,PL9DE3~1,
Wavenumbers [1/cm],Intensity,
3014.167,2.75,
3011.256,-4.5999678,
3008.346,71.06682,
3005.435,81.060958,
3002.525,88.032438,
2999.614,94.503272,
2996.704,96.121139,
2993.793,108.88306,
2990.882,112.91788,
2987.972,116.78027,
2985.061,122.30665,
2982.151,121.75,
2979.240,126.1673,
2976.329,129.51229,
2973.419,141.16566,
2970.508,142.08327,
2967.598,141.79418,
2964.687,133.73437,
2961.777,138.50206,
2958.866,145.08432,
2955.955,155.89158,
2953.045,150.23548,
2950.134,163.93075,
2947.224,142.43325,
2944.313,171.14316,
2941.403,172.53558,
2938.492,177.47358,
2935.581,174.70707,
2932.671,187.98602,
2929.760,185.39234,
2926.850,172.31767,
2923.939,193.22661,
2921.028,193.19106,
2918.118,190.0296,
2915.207,183.80693,
2912.297,203.65691,
2909.386,188.7427,
2906.476,187.36236,
2903.565,200.75,
2900.654,201.36173,
2897.744,196.54884,
2894.833,182.81182,
2891.923,208.45521,
2889.012,188.50144,
2886.102,187.37432,
2883.191,173.7651,
2880.280,178.81221,
2877.370,178.76166,
2874.459,169.34736,
2871.549,170.81606,
2868.638,192.52319,
2865.727,195.46916,
2862.817,209.17782,
2859.906,223.69872,
2856.996,202.77264,
2854.085,210.95381,
2851.175,208.58432,
2848.264,218.24516,
2845.353,230.21082,
2842.443,210.14234,
2839.532,202.00382,
2836.622,191.8737,
2833.711,202.69819,
2830.801,196.35441,
2827.890,208.66608,
2824.979,203.18202,
2822.069,209.85235,
2819.158,216.08962,
2816.248,211.75,
2813.337,238.27562,
2810.427,226.75,
2807.516,220.85797,
2804.605,216.13702,
2801.695,216.01316,
2798.784,203.85885,
2795.874,213.45976,
2792.963,215.82138,
2790.052,215.74979,
2787.142,217.84204,
2784.231,217.13664,
2781.321,211.00144,
2778.410,216.4099,
2775.500,217.98414,
2772.589,204.13532,
2769.678,220.7841,
2766.768,213.14027,
2763.857,228.69605,
2760.947,216.24054,
2758.036,227.45708,
2755.126,215.98291,
2752.215,224.96358,
2749.304,225.98381,
2746.394,234.93956,
2743.483,220.2,
2740.573,231.28324,
2737.662,227.7707,
2734.751,234.49283,
2731.841,229.64194,
2728.930,230.19914,
2726.020,231.75,
2723.109,222.88417,
2720.199,237.43761,
2717.288,229.90694,
2714.377,214.9795,
2711.467,243.53681,
2708.556,245.18621,
2705.646,225.1584,
2702.735,238.09537,
2699.825,246.32635,
2696.914,257.32184,
2694.003,231.70446,
2691.093,245.05326,
2688.182,242.09593,
2685.272,236.22795,
2682.361,237.80895,
2679.450,253.6923,
2676.540,238.93292,
2673.629,247.08633,
2670.719,244.46534,
2667.808,250.40955,
2664.898,255.71109,
2661.987,251.04997,
2659.076,261.96982,
2656.166,250.75,
2653.255,246.89966,
2650.345,255.29447,
2647.434,282.57766,
2644.524,248.75,
2641.613,256.97879,
2638.702,253.86047,
2635.792,268.8457,
2632.881,265.29742,
2629.971,274.62249,
2627.060,262.91469,
2624.149,275.07501,
2621.239,276.76186,
2618.328,281.66523,
2615.418,272.44999,
2612.507,260.85276,
2609.597,267.29092,
2606.686,275.94478,
2603.775,282.51191,
2600.865,279.57591,
2597.954,285.98337,
2595.044,278.67915,
2592.133,298.41883,
2589.223,306.99106,
2586.312,289.06659,
2583.401,283.05656,
2580.491,287.73555,
2577.580,283.7698,
2574.670,295.75,
2571.759,298.50257,
2568.848,285.93224,
2565.938,298.51185,
2563.027,294.04098,
2560.117,289.63788,
2557.206,296.03782,
2554.296,284.86899,
2551.385,303.43599,
2548.474,314.41692,
2545.564,296.50973,
2542.653,301.82383,
2539.743,298.75,
2536.832,300.26028,
2533.922,303.01808,
2531.011,318.92507,
2528.100,316.2169,
2525.190,323.65574,
2522.279,290.59416,
2519.369,307.44813,
2516.458,322.31657,
2513.548,309.66853,
2510.637,303.1189,
2507.726,309.68681,
2504.816,319.06342,
2501.905,314.19939,
2498.995,310.28747,
2496.084,321.81622,
2493.173,322.67086,
2490.263,324.92967,
2487.352,333.45787,
2484.442,331.02193,
2481.531,325.95229,
2478.621,317.8922,
2475.710,337.84201,
2472.799,345.80386,
2469.889,325.02422,
2466.978,328.01793,
2464.068,333.70768,
2461.157,329.7924,
2458.247,342.05877,
2455.336,324.53864,
2452.425,328.55661,
2449.515,345.44856,
2446.604,359.10949,
2443.694,359.21549,
2440.783,371.60811,
2437.872,348.80191,
2434.962,332.15552,
2432.051,351.36103,
2429.141,350.30878,
2426.230,352.68481,
2423.320,379.55028,
2420.409,365.85901,
2417.498,350.78369,
2414.588,350.10738,
2411.677,371.3197,
2408.767,364.0502,
2405.856,375.34286,
2402.946,368.95822,
2400.035,353.26407,
2397.124,363.1992,
2394.214,369.6696,
2391.303,377.35772,
2388.393,377.25697,
2385.482,376.75,
2382.571,376.88891,
2379.661,384.02914,
2376.750,363.27965,
2373.840,368.43743,
2370.929,385.60921,
2368.019,398.31714,
2365.108,382.12173,
2362.197,395.30621,
2359.287,404.94332,
2356.376,410.74119,
2353.466,391.85798,
2350.555,382.71068,
2347.645,407.01358,
2344.734,411.6302,
2341.823,401.949,
2338.913,401.10523,
2336.002,397.55866,
2333.092,406.20946,
2330.181,412.95974,
2327.270,419.25495,
2324.360,416.80897,
2321.449,416.24321,
2318.539,427.75,
2315.628,417.98581,
2312.718,404.9174,
2309.807,420.11627,
2306.896,432.45109,
2303.986,415.05521,
2301.075,411.81385,
2298.165,402.36527,
2295.254,430.10371,
2292.344,436.90767,
2289.433,436.07045,
2286.522,424.02239,
2283.612,443.35208,
2280.701,435.84421,
2277.791,432.0706,
2274.880,445.95588,
2271.969,457.91872,
2269.059,451.36309,
2266.148,442.97037,
2263.238,452.04342,
2260.327,455.95692,
2257.417,461.35944,
2254.506,471.7728,
2251.595,470.75366,
2248.685,461.85771,
2245.774,479.57383,
2242.864,457.91706,
2239.953,471.56385,
2237.043,463.86714,
2234.132,476.45905,
2231.221,476.35462,
2228.311,468.53093,
2225.400,466.22847,
2222.490,483.49269,
2219.579,486.06619,
2216.669,493.20946,
2213.758,484.7905,
2210.847,487.84066,
2207.937,512.81349,
2205.026,501.30539,
2202.116,502.07909,
2199.205,494.22482,
2196.294,509.55197,
2193.384,538.64403,
2190.473,524.44248,
2187.563,527.90951,
2184.652,563.61163,
2181.742,572.65821,
2178.831,562.78505,
2175.920,588.65347,
2173.010,618.87642,
2170.099,617.95089,
2167.189,672.85046,
2164.278,690.56508,
2161.368,728.46239,
2158.457,770.29176,
2155.546,777.67405,
2152.636,815.59033,
2149.725,851.55535,
2146.815,902.14829,
2143.904,925.14406,
2140.993,924.48528,
2138.083,974.12688,
2135.172,969.85076,
2132.262,949.61356,
2129.351,932.66717,
2126.441,923.44901,
2123.530,886.32349,
2120.619,847.64913,
2117.709,827.03825,
2114.798,776.31909,
2111.888,736.76338,
2108.977,686.59766,
2106.067,652.06569,
2103.156,642.35082,
2100.245,613.74122,
2097.335,596.37828,
2094.424,573.1861,
2091.514,579.89518,
2088.603,572.83299,
2085.692,564.88752,
2082.782,546.54531,
2079.871,570.6088,
2076.961,552.4936,
2074.050,526.42879,
2071.140,539.26728,
2068.229,540.83202,
2065.318,557.87401,
2062.408,544.11311,
2059.497,541.39289,
2056.587,560.00575,
2053.676,533.98503,
2050.766,533.28812,
2047.855,526.43673,
2044.944,517.74519,
2042.034,529.56501,
2039.123,528.13047,
2036.213,533.63445,
2033.302,534.75,
2030.391,550.20721,
2027.481,546.84767,
2024.570,546.12134,
2021.660,526.05084,
2018.749,518.47182,
2015.839,532.71456,
2012.928,509.73826,
2010.017,521.37324,
2007.107,522.23785,
2004.196,530.01194,
2001.286,522.01859,
1998.375,525.75493,
1995.465,528.81696,
1992.554,505.83842,
1989.643,517.23154,
1986.733,506.73333,
1983.822,493.4051,
1980.912,514.0068,
1978.001,494.96151,
1975.090,504.77289,
1972.180,500.57712,
1969.269,492.16375,
1966.359,488.23657,
1963.448,515.85701,
1960.538,510.14283,
1957.627,488.02553,
1954.716,504.20419,
1951.806,520.60097,
1948.895,513.15898,
1945.985,485.63072,
1943.074,489.25203,
1940.164,456.54801,
1937.253,460.21936,
1934.342,479.80989,
1931.432,466.54495,
1928.521,456.94516,
1925.611,469.8408,
1922.700,455.54697,
1919.790,489.50679,
1916.879,509.70376,
1913.968,454.81886,
1911.058,472.68393,
1908.147,467.23317,
1905.237,442.11768,
1902.326,460.27741,
1899.415,467.32684,
1896.505,465.82816,
1893.594,438.93595,
1890.684,452.95247,
1887.773,470.28457,
1884.863,463.92312,
1881.952,447.10265,
1879.041,482.35697,
1876.131,449.33041,
1873.220,457.05538,
1870.310,520.08621,
1867.399,509.9899,
1864.489,482.94472,
1861.578,484.76122,
1858.667,452.37577,
1855.757,443.71062,
1852.846,482.22181,
1849.936,474.21445,
1847.025,495.51399,
1844.114,479.83935,
1841.204,469.79195,
1838.293,498.23919,
1835.383,496.55251,
1832.472,508.13435,
1829.562,515.63958,
1826.651,520.95533,
1823.740,521.11015,
1820.830,512.0334,
1817.919,512.19313,
1815.009,517.8874,
1812.098,495.41143,
1809.188,516.19956,
1806.277,509.92705,
1803.366,517.58364,
1800.456,507.47521,
1797.545,504.87046,
1794.635,527.04002,
1791.724,529.31319,
1788.813,504.15951,
1785.903,531.63955,
1782.992,536.0168,
1780.082,553.49445,
1777.171,513.74518,
1774.261,497.57504,
1771.350,515.78851,
1768.439,525.98226,
1765.529,527.38987,
1762.618,559.41252,
1759.708,568.21738,
1756.797,547.38636,
1753.887,581.52259,
1750.976,574.1669,
1748.065,557.72542,
1745.155,541.56309,
1742.244,537.34419,
1739.334,546.85823,
1736.423,546.63038,
1733.512,551.57115,
1730.602,576.93853,
1727.691,570.93211,
1724.781,568.32315,
1721.870,600.1359,
1718.960,626.66134,
1716.049,600.54691,
1713.138,598.16998,
1710.228,583.95495,
1707.317,606.518,
1704.407,616.03878,
1701.496,612.19226,
1698.586,617.29391,
1695.675,638.33559,
1692.764,665.31149,
1689.854,653.35629,
1686.943,638.25588,
1684.033,681.63237,
1681.122,655.22579,
1678.211,661.68338,
1675.301,659.75617,
1672.390,671.82776,
1669.480,697.70187,
1666.569,692.01661,
1663.659,713.19097,
1660.748,740.44414,
1657.837,776.01244,
1654.927,787.70314,
1652.016,786.33318,
1649.106,810.6558,
1646.195,846.07866,
1643.285,819.0918,
1640.374,833.89634,
1637.463,841.81286,
1634.553,900.29678,
1631.642,937.21689,
1628.732,980.16478,
1625.821,1049.7454,
1622.911,1042.7894,
1620.000,1138.5279,
1617.089,1292.6455,
1614.179,1356.9733,
1611.268,1412.668,
1608.358,1485.2851,
1605.447,1545.3219,
1602.536,1560.8645,
1599.626,1581.9885,
1596.715,1585.5652,
1593.805,1535.6674,
1590.894,1530.6307,
1587.984,1547.2057,
1585.073,1513.1649,
1582.162,1489.2174,
1579.252,1446.4715,
1576.341,1431.3415,
1573.431,1448.5462,
1570.520,1460.6294,
1567.610,1403.1412,
1564.699,1391.4504,
1561.788,1382.7783,
1558.878,1351.805,
1555.967,1322.5727,
1553.057,1322.6809,
1550.146,1299.481,
1547.235,1260.4982,
1544.325,1220.3011,
1541.414,1187.2486,
1538.504,1169.5844,
1535.593,1175.4359,
1532.683,1147.7827,
1529.772,1096.4376,
1526.861,1065.001,
1523.951,1049.8587,
1521.040,1069.566,
1518.130,1031.8152,
1515.219,1034.5096,
1512.309,1038.3265,
1509.398,1003.2977,
1506.487,972.73404,
1503.577,992.36648,
1500.666,995.37028,
1497.756,945.89421,
1494.845,960.1102,
1491.934,968.61771,
1489.024,928.19301,
1486.113,949.00317,
1483.203,930.32214,
1480.292,877.68782,
1477.382,830.76234,
1474.471,869.3275,
1471.560,877.94467,
1468.650,806.05608,
1465.739,821.14627,
1462.829,813.73141,
1459.918,806.21975,
1457.008,817.2269,
1454.097,811.12842,
1451.186,814.89894,
1448.276,827.38103,
1445.365,818.39139,
1442.455,806.48971,
1439.544,817.48749,
1436.633,804.67254,
1433.723,812.1299,
1430.812,796.76034,
1427.902,747.92259,
1424.991,797.20623,
1422.081,729.02174,
1419.170,739.16715,
1416.259,763.6217,
1413.349,737.78512,
1410.438,725.65066,
1407.528,731.83116,
1404.617,712.852,
1401.707,698.86976,
1398.796,709.24648,
1395.885,721.23034,
1392.975,745.29252,
1390.064,778.62967,
1387.154,763.60946,
1384.243,753.47539,
1381.332,775.79012,
1378.422,700.00084,
1375.511,782.43757,
1372.601,818.76967,
1369.690,823.46444,
1366.780,867.31193,
1363.869,851.87035,
1360.958,874.76081,
1358.048,962.3541,
1355.137,979.73464,
1352.227,969.59325,
1349.316,1014.8574,
1346.406,1055.3045,
1343.495,1068.9713,
1340.584,1098.7496,
1337.674,1125.7164,
1334.763,1160.1261,
1331.853,1196.2881,
1328.942,1197.75,
1326.032,1223.8499,
1323.121,1250.497,
1320.210,1261.7455,
1317.300,1289.13,
1314.389,1347.8619,
1311.479,1376.7015,
1308.568,1399.3099,
1305.657,1477.9217,
1302.747,1505.8317,
1299.836,1473.9295,
1296.926,1557.9802,
1294.015,1648.9932,
1291.105,1695.8965,
1288.194,1726.511,
1285.283,1780.0062,
1282.373,1831.6561,
1279.462,1895.2197,
1276.552,1963.3407,
1273.641,1984.1861,
1270.731,1963.1605,
1267.820,1984.3447,
1264.909,2016.1667,
1261.999,1952.8845,
1259.088,1929.1694,
1256.178,1909.7644,
1253.267,1905.9828,
1250.356,1863.7603,
1247.446,1798.572,
1244.535,1723.143,
1241.625,1635.1501,
1238.714,1570.4386,
1235.804,1559.2646,
1232.893,1516.7577,
1229.982,1482.3019,
1227.072,1498.5976,
1224.161,1465.2893,
1221.251,1413.3349,
1218.340,1387.385,
1215.430,1362.4813,
1212.519,1353.5414,
1209.608,1367.42,
1206.698,1372.6435,
1203.787,1362.5792,
1200.877,1388.2485,
1197.966,1380.1561,
1195.055,1413.8799,
1192.145,1439.2849,
1189.234,1456.1307,
1186.324,1506.4816,
1183.413,1539.3338,
1180.503,1545.2167,
1177.592,1563.8004,
1174.681,1546.8219,
1171.771,1518.6373,
1168.860,1470.4105,
1165.950,1478.6506,
1163.039,1453.8139,
1160.129,1476.5515,
1157.218,1460.3682,
1154.307,1423.0574,
1151.397,1432.968,
1148.486,1425.0554,
1145.576,1394.4461,
1142.665,1433.5143,
1139.754,1422.9183,
1136.844,1398.0406,
1133.933,1378.7794,
1131.023,1366.5569,
1128.112,1347.8947,
1125.202,1328.8563,
1122.291,1343.0034,
1119.380,1351.75,
1116.470,1351.75,
1113.559,1363.3487,
1110.649,1348.4143,
1107.738,1345.1798,
1104.828,1356.5754,
1101.917,1368.5963,
1099.006,1374.4202,
1096.096,1357.6212,
1093.185,1339.1831,
1090.275,1343.4149,
1087.364,1350.9251,
1084.453,1364.4368,
1081.543,1375.3793,
1078.632,1371.2285,
1075.722,1353.8097,
1072.811,1350.8049,
1069.901,1365.6503,
1066.990,1382.1083,
1064.079,1383.7085,
1061.169,1404.2897,
1058.258,1426.8318,
1055.348,1433.1621,
1052.437,1438.4735,
1049.527,1472.4143,
1046.616,1463.726,
1043.705,1492.8098,
1040.795,1505.581,
1037.884,1493.5893,
1034.974,1487.9433,
1032.063,1513.4342,
1029.153,1546.6994,
1026.242,1512.9661,
1023.331,1544.2479,
1020.421,1556.3268,
1017.510,1574.998,
1014.600,1579.2914,
1011.689,1576.8722,
1008.778,1604.7348,
1005.868,1633.8272,
1002.957,1642.4308,
1000.047,1693.254,
997.136,1779.8798,
994.226,1833.5499,
991.315,1834.6609,
988.404,1817.5074,
985.494,1800.4239,
982.583,1785.8625,
979.673,1744.9727,
976.762,1767.7374,
973.852,1792.424,
970.941,1777.1165,
968.030,1750.0102,
965.120,1779.7393,
962.209,1777.1816,
959.299,1782.416,
956.388,1783.0701,
953.477,1805.1786,
950.567,1833.783,
947.656,1820.7527,
944.746,1828.3987,
941.835,1822.2715,
938.925,1814.1695,
936.014,1809.2325,
933.103,1810.2217,
930.193,1801.9656,
927.282,1750.2001,
924.372,1740.0528,
921.461,1717.3944,
918.551,1687.6745,
915.640,1667.5006,
912.729,1648.8689,
909.819,1614.4172,
906.908,1619.4718,
903.998,1652.3599,
901.087,1668.3881,
898.176,1684.2027,
895.266,1702.7806,
892.355,1714.1794,
889.445,1705.7867,
886.534,1729.1264,
883.624,1778.1569,
880.713,1795.1568,
877.802,1789.7078,
874.892,1789.5885,
871.981,1795.8364,
869.071,1714.8013,
866.160,1689.7106,
863.250,1723.541,
860.339,1758.75,
857.428,1755.8804,
854.518,1743.3889,
851.607,1730.9079,
848.697,1703.9886,
845.786,1671.4724,
842.875,1649.6527,
839.965,1656.1678,
837.054,1703.9826,
834.144,1724.7014,
831.233,1732.7497,
828.323,1702.6028,
825.412,1674.5794,
822.501,1682.0691,
819.591,1667.1939,
816.680,1612.2627,
813.770,1584.9669,
810.859,1573.5913,
807.949,1571.9549,
805.038,1578.4469,
802.127,1584.2088,
799.217,1581.023,
796.306,1567.831,
793.396,1555.6355,
790.485,1547.3807,
787.574,1534.968,
784.664,1540.7087,
781.753,1571.2733,
778.843,1590.6508,
775.932,1589.5773,
773.022,1579.0467,
770.111,1600.3038,
767.200,1604.0339,
764.290,1602.4385,
761.379,1583.026,
758.469,1558.889,
755.558,1570.6527,
752.648,1567.3943,
749.737,1557.611,
746.826,1542.0269,
743.916,1519.1395,
741.005,1487.4399,
738.095,1449.2817,
735.184,1386.1151,
732.274,1341.1882,
729.363,1361.4252,
726.452,1447.4974,
723.542,1490.3953,
720.631,1501.1599,
717.721,1523.7996,
714.810,1548.267,
711.899,1562.0569,
708.989,1554.7946,
706.078,1572.3787,
703.168,1559.7478,
700.257,1538.4357,
697.347,1538.5311,
694.436,1590.7244,
691.525,1552.9455,
688.615,1518.3357,
685.704,1508.362,
682.794,1528.8562,
679.883,1569.7676,
676.973,1525.6922,
674.062,1546.1018,
671.151,1550.9151,
668.241,1535.2735,
665.330,1532.0483,
662.420,1496.1053,
659.509,1530.0205,
656.598,1542.0658,
653.688,1536.6418,
650.777,1568.2919,
647.867,1525.2902,
644.956,1497.1755,
642.046,1484.0916,
639.135,1486.571,
636.224,1504.9887,
633.314,1552.625,
630.403,1544.6488,
627.493,1548.4174,
624.582,1579.3986,
621.672,1591.2785,
618.761,1564.3922,
615.850,1586.0543,
612.940,1611.4331,
610.029,1612.75,
607.119,1612.75,
604.208,1616.3001,
601.297,1598.8063,
598.387,1594.3682,
595.476,1630.3043,
592.566,1625.5819,
589.655,1616.9753,
586.745,1586.7119,
583.834,1552.75,
580.923,1552.7121,
578.013,1546.4342,
575.102,1555.0746,
572.192,1569.1811,
569.281,1575.5478,
566.371,1546.5907,
563.460,1547.9828,
560.549,1579.9613,
557.639,1612.2871,
554.728,1612.7153,
551.818,1596.3287,
548.907,1615.2983,
545.996,1638.3034,
543.086,1645.0395,
540.175,1613.8937,
537.265,1621.1656,
534.354,1637.794,
531.444,1651.3073,
528.533,1652.75,
525.622,1652.75,
522.712,1687.9417,
519.801,1722.2064,
516.891,1741.8455,
513.980,1747.2656,
511.070,1759.0196,
508.159,1782.8527,
505.248,1802.7486,
502.338,1801.6477,
499.427,1866.4816,
496.517,1896.1944,
493.606,1906.0865,
490.695,1912.2062,
487.785,1951.4655,
484.874,1975.198,
481.964,1954.4347,
479.053,1924.4362,
476.143,1977.4256,
473.232,1931.8305,
470.321,1906.9111,
467.411,1890.6196,
464.500,1861.6421,
461.590,1896.8661,
458.679,1919.4068,
455.769,1930.6952,
452.858,1936.4086,
449.947,1971.5494,
447.037,1964.7945,
444.126,1969.7985,
441.216,1992.1625,
438.305,1983.0194,
435.395,2035.5122,
432.484,2050.4139,
429.573,2031.2175,
426.663,2028.9371,
423.752,2044.7906,
420.842,1970.9166,
417.931,1872.1644,
415.020,1863.0641,
412.110,1901.5255,
409.199,1943.1338,
406.289,2008.6469,
403.378,2121.6245,
400.468,2084.5808,
397.557,2067.6085,
394.646,2069.2143,
391.736,2088.1745,
388.825,2132.6742,
385.915,2109.0286,
383.004,2086.744,
380.094,2113.5159,
377.183,2148.1298,
374.272,2167.52,
371.362,2192.5267,
368.451,2233.9354,
365.541,2253.4493,
362.630,2256.565,
359.719,2258.3016,
356.809,2267.0672,
353.898,2272.3088,
350.988,2293.2795,
348.077,2295.52,
345.167,2262.6042,
342.256,2299.2106,
339.345,2270.9554,
336.435,2248.1313,
333.524,2277.6091,
330.614,2273.1381,
327.703,2263.5355,
324.793,2257.5545,
321.882,2262.8311,
318.971,2296.286,
316.061,2309.7033,
313.150,2309.6714,
310.240,2302.9924,
307.329,2357.0624,
304.418,2375.5583,
301.508,2367.8115,
298.597,2353.0032,
295.687,2351.75,
292.776,2368.4168,
289.866,2396.8878,
286.955,2421.2657,
284.044,2500.0174,
281.134,2564.8564,
278.223,2609.6958,
275.313,2670.8548,
272.402,2697.6917,
269.492,2721.6915,
266.581,2759.7377,
263.670,2871.4851,
260.760,2867.7056,
257.849,2838.856,
254.939,2850.5982,
252.028,2842.7877,
249.117,2862.1345,
246.207,2889.8865,
243.296,2894.2787,
240.386,2859.4884,
237.475,2814.2411,
234.565,2774.8559,
231.654,2794.5763,
228.743,2759.625,
225.833,2714.8954,
222.922,2679.8711,
220.012,2703.9135,
217.101,2718.62,
214.191,2706.7352,
211.280,2643.446,
208.369,2640.7684,
205.459,2615.7987,
202.548,2586.7779,
199.638,2644.8298,
196.727,2689.0181,
193.816,2714.5561,
190.906,2718.0389,
187.995,2697.7663,
185.085,2738.9813,
182.174,2789.42,
179.264,2777.133,
176.353,2765.4975,
173.442,2770.2642,
170.532,2782.4495,
167.621,2728.3763,
164.711,2670.1279,
161.800,2605.4362,
158.890,2531.3043,
155.979,2325.0753,
153.068,2123.1798,
150.158,1919.8762,
147.247,1667.875,
144.337,1382.5602,
141.426,1088.3333,
138.516,795.1248,
135.605,594.94201,
132.694,415.42487,
129.784,262.93509,
126.873,166.39256,
123.963,108.6223,
121.052,72.951059,
118.141,55.817411,
115.231,47.223156,
112.320,40.360913,
109.410,34.386447,
106.499,27.264895,
103.589,19.587201,
100.678,14.75,
97.767,14.75,
94.857,20.293912,
91.946,19.525113,
89.036,13.621021,
86.125,6.5289682,
83.215,6.8736814,
80.304,8.75,
77.393,8.75,
74.483,13.99108,
71.572,13.488831,
68.662,8.02707,
65.751,10.852874,
62.840,11.268298,
59.930,9.6262828,
57.019,5.3957909,
54.109,11.91593,
51.198,15.543563,
48.288,12.687713,
45.377,4.9505544,
42.466,5.4599741,
39.556,10.404644,
36.645,8.2980736,
33.735,7.2307515,
30.824,6.0873391,
27.914,3.9838133,
25.003,5.6179124,
22.092,10.30195,
19.182,18.024594,
16.271,26.418476,
13.361,159.55906,
10.450,385.34514,
7.539,661.87803,
4.629,886.58219,
1.718,925.62109,
-1.192,586.1117,
-4.103,274.16009,
-7.013,70.347763,
-9.924,0.75,
