,PLIQUI~3,
Wavenumbers [1/cm],Intensity,
3014.167,1,
3011.256,-0.79995705,
3008.346,68.023591,
3005.435,86.883391,
3002.525,74.659955,
2999.614,93.376636,
2996.704,94.185569,
2993.793,100.13306,
2990.882,100.21371,
2987.972,106.00504,
2985.061,108.33005,
2982.151,123.2101,
2979.240,118.10077,
2976.329,119.25956,
2973.419,130.07702,
2970.508,128.46665,
2967.598,120,
2964.687,123.34307,
2961.777,120.65806,
2958.866,143.33432,
2955.955,135.17036,
2953.045,147.51452,
2950.134,140.48981,
2947.224,136.42703,
2944.313,160.43804,
2941.403,161.57117,
2938.492,174.29811,
2935.581,169.4356,
2932.671,171.79827,
2929.760,171.01924,
2926.850,173.26128,
2923.939,184.04207,
2921.028,179.31179,
2918.118,175.39798,
2915.207,170.18368,
2912.297,181.98307,
2909.386,185.23357,
2906.476,192.55057,
2903.565,181.27183,
2900.654,203.48334,
2897.744,182.15087,
2894.833,185.34037,
2891.923,198.94881,
2889.012,196.04046,
2886.102,184.29461,
2883.191,182.9915,
2880.280,189.76076,
2877.370,182.49417,
2874.459,236.61597,
2871.549,180.22376,
2868.638,203.13813,
2865.727,196.53837,
2862.817,220.69921,
2859.906,205.31624,
2856.996,201.49321,
2854.085,207.40127,
2851.175,197.1175,
2848.264,197.99033,
2845.353,195.53918,
2842.443,215.20836,
2839.532,201.79108,
2836.622,195.84831,
2833.711,190.26687,
2830.801,200.38824,
2827.890,213.47726,
2824.979,206.56798,
2822.069,215.17058,
2819.158,220.8787,
2816.248,206,
2813.337,226.68048,
2810.427,233.43388,
2807.516,216.48219,
2804.605,203.69953,
2801.695,212.38156,
2798.784,217.039,
2795.874,205.15041,
2792.963,208.28596,
2790.052,211.00064,
2787.142,210.42108,
2784.231,205.19411,
2781.321,213.55998,
2778.410,211.97969,
2775.500,219,
2772.589,219.84557,
2769.678,211.46416,
2766.768,212.81165,
2763.857,221.10404,
2760.947,212.0063,
2758.036,233.33133,
2755.126,221.19017,
2752.215,216.68175,
2749.304,218.10611,
2746.394,233.22588,
2743.483,226.14992,
2740.573,230.35394,
2737.662,211.12721,
2734.751,228.69893,
2731.841,219.72893,
2728.930,226.20343,
2726.020,221.6684,
2723.109,216.79392,
2720.199,242.55009,
2717.288,234.89416,
2714.377,229.42098,
2711.467,221.27803,
2708.556,247.35116,
2705.646,233.85913,
2702.735,244.34021,
2699.825,245.13089,
2696.914,243.04773,
2694.003,237.54146,
2691.093,235.94586,
2688.182,237.03778,
2685.272,245.0441,
2682.361,237.94105,
2679.450,243.29218,
2676.540,231.10162,
2673.629,237.65918,
2670.719,251.27727,
2667.808,242.72953,
2664.898,240.75291,
2661.987,261.13336,
2659.076,241.05174,
2656.166,252.82251,
2653.255,253.92517,
2650.345,259.13612,
2647.434,273.79966,
2644.524,257.52516,
2641.613,260.22879,
2638.702,260.06312,
2635.792,270.65802,
2632.881,262.77371,
2629.971,270.48995,
2627.060,248.99813,
2624.149,265.37812,
2621.239,275.2663,
2618.328,283.61852,
2615.418,271.68181,
2612.507,271.20551,
2609.597,264.1018,
2606.686,277.41566,
2603.775,279.32143,
2600.865,283.23549,
2597.954,271.19166,
2595.044,279.95572,
2592.133,280.82793,
2589.223,282.13264,
2586.312,294.12062,
2583.401,291.28469,
2580.491,289.56253,
2577.580,296.0198,
2574.670,300.80483,
2571.759,285.85359,
2568.848,283.23754,
2565.938,307.14292,
2563.027,296.43865,
2560.117,291.36448,
2557.206,279.24723,
2554.296,278.29062,
2551.385,295.49596,
2548.474,302.9632,
2545.564,300.25324,
2542.653,312.90605,
2539.743,299.45687,
2536.832,306.02056,
2533.922,293.37846,
2531.011,317.82493,
2528.100,310.40415,
2525.190,305.95287,
2522.279,311.43722,
2519.369,297.88692,
2516.458,300.22734,
2513.548,302.76368,
2510.637,313.29114,
2507.726,331.12639,
2504.816,321.93686,
2501.905,300.14512,
2498.995,312.77635,
2496.084,324.69338,
2493.173,321.23675,
2490.263,319,
2487.352,333.83307,
2484.442,330,
2481.531,327.36705,
2478.621,327.30333,
2475.710,330.04601,
2472.799,337.23317,
2469.889,337.12188,
2466.978,341.65971,
2464.068,358.40745,
2461.157,333.15497,
2458.247,339.7059,
2455.336,340.02152,
2452.425,330.0849,
2449.515,361.08525,
2446.604,370.00695,
2443.694,370.62832,
2440.783,354.70946,
2437.872,322.42213,
2434.962,352.90784,
2432.051,333.97533,
2429.141,342.11756,
2426.230,371.17465,
2423.320,365.9574,
2420.409,357.26919,
2417.498,350.82864,
2414.588,348.08743,
2411.677,356.03586,
2408.767,359.27657,
2405.856,371.62854,
2402.946,364.30921,
2400.035,359.79812,
2397.124,375.57218,
2394.214,380.53881,
2391.303,368.75135,
2388.393,386.18375,
2385.482,358.4981,
2382.571,387.17734,
2379.661,387.83712,
2376.750,372.26862,
2373.840,375.39366,
2370.929,379.02166,
2368.019,401,
2365.108,399.81414,
2362.197,409.94526,
2359.287,401.23509,
2356.376,415.96654,
2353.466,393.80309,
2350.555,395.37009,
2347.645,399,
2344.734,407.66822,
2341.823,382.46433,
2338.913,405.09251,
2336.002,396.64106,
2333.092,419.19529,
2330.181,421.73658,
2327.270,417.22002,
2324.360,417.31135,
2321.449,406.4626,
2318.539,421.02141,
2315.628,419.90767,
2312.718,423.4163,
2309.807,427.20494,
2306.896,434.53522,
2303.986,441.0389,
2301.075,409.78731,
2298.165,403.98092,
2295.254,419.6984,
2292.344,437.47302,
2289.433,432.94591,
2286.522,427.72761,
2283.612,442.90052,
2280.701,442.53812,
2277.791,424.00187,
2274.880,446.28803,
2271.969,439.61317,
2269.059,441.79292,
2266.148,459.32053,
2263.238,460.50193,
2260.327,460.06897,
2257.417,464.32111,
2254.506,465.29056,
2251.595,447.57457,
2248.685,466.35954,
2245.774,464.98917,
2242.864,474.06484,
2239.953,477.27582,
2237.043,473.31073,
2234.132,458.85453,
2231.221,464.84239,
2228.311,453.82218,
2225.400,495.57782,
2222.490,479.14328,
2219.579,477.49618,
2216.669,489.00477,
2213.758,488.65229,
2210.847,490.61209,
2207.937,509.22636,
2205.026,505.88892,
2202.116,508.14649,
2199.205,514.52518,
2196.294,515.49599,
2193.384,538.18353,
2190.473,532.2723,
2187.563,549.971,
2184.652,546.5604,
2181.742,555.09018,
2178.831,560.34639,
2175.920,593.1603,
2173.010,610.60091,
2170.099,608.93403,
2167.189,660.94977,
2164.278,662.95076,
2161.368,726.71287,
2158.457,767.43793,
2155.546,769.54613,
2152.636,798.02117,
2149.725,842.46306,
2146.815,866.36599,
2143.904,910.20074,
2140.993,913.16401,
2138.083,923.56532,
2135.172,935.9916,
2132.262,931.36708,
2129.351,918.1827,
2126.441,911.46601,
2123.530,867.70818,
2120.619,842.13761,
2117.709,827.17875,
2114.798,772.89989,
2111.888,743.67559,
2108.977,706.20528,
2106.067,669.24867,
2103.156,666.39918,
2100.245,623,
2097.335,618.66493,
2094.424,584.60651,
2091.514,573.78223,
2088.603,551.38717,
2085.692,555.46084,
2082.782,565.34542,
2079.871,572.03617,
2076.961,567.45205,
2074.050,540.40606,
2071.140,568,
2068.229,570.99348,
2065.318,587.03776,
2062.408,588.18155,
2059.497,577.20238,
2056.587,565.23276,
2053.676,555.91692,
2050.766,550.3849,
2047.855,553.57281,
2044.944,536.47276,
2042.034,523.31796,
2039.123,540.80135,
2036.213,552.67333,
2033.302,562.41287,
2030.391,562.33925,
2027.481,545.09767,
2024.570,541,
2021.660,545.70435,
2018.749,564.07598,
2015.839,562.77165,
2012.928,538.32215,
2010.017,532.1683,
2007.107,552.11777,
2004.196,560.97619,
2001.286,563.62544,
1998.375,543.73227,
1995.465,544.22589,
1992.554,534.72952,
1989.643,552.30873,
1986.733,548.35789,
1983.822,536.71787,
1980.912,527.71228,
1978.001,511.15214,
1975.090,531.39084,
1972.180,543.68882,
1969.269,529.22406,
1966.359,515.5406,
1963.448,555.25629,
1960.538,546.27773,
1957.627,557.04955,
1954.716,538.60326,
1951.806,562.70193,
1948.895,550.49605,
1945.985,510.69771,
1943.074,525.07386,
1940.164,519.6251,
1937.253,535.31724,
1934.342,530.37594,
1931.432,499.83596,
1928.521,493.84456,
1925.611,495.55846,
1922.700,491.83425,
1919.790,540.09193,
1916.879,507.99923,
1913.968,513.98893,
1911.058,521.58559,
1908.147,536.29482,
1905.237,487.98531,
1902.326,488.35261,
1899.415,492.91589,
1896.505,527.59617,
1893.594,491.27741,
1890.684,511.43118,
1887.773,529.18128,
1884.863,512.4328,
1881.952,502.11755,
1879.041,547.65889,
1876.131,527.16733,
1873.220,504.18136,
1870.310,538.20173,
1867.399,551.82407,
1864.489,547.54521,
1861.578,555.58283,
1858.667,504.32035,
1855.757,511.80072,
1852.846,514.01538,
1849.936,534.78977,
1847.025,564.82238,
1844.114,560.3435,
1841.204,559.53147,
1838.293,558.02993,
1835.383,538.907,
1832.472,552.82609,
1829.562,559.16719,
1826.651,556.31622,
1823.740,579.29506,
1820.830,579.51174,
1817.919,555.82621,
1815.009,565.55598,
1812.098,580.56692,
1809.188,596.06973,
1806.277,567.66396,
1803.366,555.81518,
1800.456,601.14223,
1797.545,553.19852,
1794.635,568.99906,
1791.724,590.55347,
1788.813,571.21054,
1785.903,603.06202,
1782.992,602.68257,
1780.082,608.79495,
1777.171,606,
1774.261,602.34993,
1771.350,593.22975,
1768.439,588.14882,
1765.529,603.82135,
1762.618,623.51687,
1759.708,630.66312,
1756.797,626.16667,
1753.887,631.23178,
1750.976,626.48953,
1748.065,613.15668,
1745.155,603.05813,
1742.244,609.25632,
1739.334,621.16235,
1736.423,640.25044,
1733.512,636.08534,
1730.602,601.3313,
1727.691,637.05963,
1724.781,668.30468,
1721.870,668.1714,
1718.960,705.64491,
1716.049,635.97535,
1713.138,641.5199,
1710.228,662.40594,
1707.317,685.34514,
1704.407,668.23526,
1701.496,653.23833,
1698.586,659.39188,
1695.675,703.0426,
1692.764,715.46722,
1689.854,698.77952,
1686.943,683.50588,
1684.033,758.08761,
1681.122,740.33985,
1678.211,718.20938,
1675.301,729.963,
1672.390,734.06281,
1669.480,755.04813,
1666.569,760.74608,
1663.659,742.43725,
1660.748,828.3637,
1657.837,796.76544,
1654.927,830.69542,
1652.016,820.04112,
1649.106,900.75147,
1646.195,851.67134,
1643.285,879.72917,
1640.374,911.79442,
1637.463,948.98199,
1634.553,949.55168,
1631.642,1052.8697,
1628.732,1040.9526,
1625.821,1033.0864,
1622.911,1164.2562,
1620.000,1215.3575,
1617.089,1284.607,
1614.179,1370.5465,
1611.268,1444.2488,
1608.358,1535.6455,
1605.447,1586.2004,
1602.536,1630.003,
1599.626,1592.523,
1596.715,1644.3637,
1593.805,1604.3891,
1590.894,1575.2219,
1587.984,1589.3218,
1585.073,1549.4592,
1582.162,1562.0373,
1579.252,1537.3595,
1576.341,1496.5543,
1573.431,1495.8317,
1570.520,1463.603,
1567.610,1480.5691,
1564.699,1466.074,
1561.788,1429.5355,
1558.878,1428.2414,
1555.967,1407.2341,
1553.057,1381.2415,
1550.146,1343.8873,
1547.235,1323.8193,
1544.325,1298.6821,
1541.414,1273.5193,
1538.504,1242.8237,
1535.593,1228.7383,
1532.683,1212.8145,
1529.772,1201.4059,
1526.861,1191.5951,
1523.951,1138.6273,
1521.040,1126.3526,
1518.130,1123.63,
1515.219,1147.6814,
1512.309,1098.991,
1509.398,1104.5779,
1506.487,1114,
1503.577,1110.1792,
1500.666,1084.5303,
1497.756,1058.0679,
1494.845,1068.8788,
1491.934,1018.0378,
1489.024,1029.5877,
1486.113,1027.2184,
1483.203,1008.3485,
1480.292,994.96935,
1477.382,946.92985,
1474.471,982.81012,
1471.560,970.87602,
1468.650,918.63703,
1465.739,934.86745,
1462.829,926.35277,
1459.918,922.46975,
1457.008,942.10778,
1454.097,929.1272,
1451.186,925.96131,
1448.276,943.29989,
1445.365,930.46524,
1442.455,933.25377,
1439.544,912.24342,
1436.633,919.65045,
1433.723,913.6382,
1430.812,883.22165,
1427.902,886.96964,
1424.991,927.72342,
1422.081,876.70381,
1419.170,873.72812,
1416.259,846.45786,
1413.349,871.72012,
1410.438,879.90066,
1407.528,870.63136,
1404.617,834.29507,
1401.707,830.01798,
1398.796,879.04187,
1395.885,870.52718,
1392.975,839.29305,
1390.064,899.70569,
1387.154,891.52286,
1384.243,867.34489,
1381.332,866.78669,
1378.422,849.67627,
1375.511,862.7912,
1372.601,958.84332,
1369.690,952.42722,
1366.780,1000.6903,
1363.869,994.38512,
1360.958,998.22368,
1358.048,1075.1974,
1355.137,1100.8699,
1352.227,1121.6342,
1349.316,1204.4393,
1346.406,1224.4302,
1343.495,1178.4182,
1340.584,1258.2851,
1337.674,1299.1776,
1334.763,1284.8116,
1331.853,1306.1379,
1328.942,1363.0362,
1326.032,1411.5967,
1323.121,1375.0602,
1320.210,1390.2983,
1317.300,1416.0339,
1314.389,1433.7919,
1311.479,1468.9027,
1308.568,1521.1147,
1305.657,1564.0239,
1302.747,1574.1146,
1299.836,1551.3539,
1296.926,1616.2557,
1294.015,1729.3325,
1291.105,1770.9828,
1288.194,1818.3334,
1285.283,1866.2322,
1282.373,1922.7655,
1279.462,1966.2153,
1276.552,2007.5513,
1273.641,2037.3796,
1270.731,2042.7045,
1267.820,2055.4542,
1264.909,2058.5822,
1261.999,2041.8988,
1259.088,2066.526,
1256.178,1993.4883,
1253.267,1953.381,
1250.356,1916.5553,
1247.446,1861.3424,
1244.535,1805.2411,
1241.625,1742.0705,
1238.714,1678.1023,
1235.804,1640.238,
1232.893,1584.7596,
1229.982,1541.7359,
1227.072,1563.4634,
1224.161,1512.0483,
1221.251,1501.2555,
1218.340,1475.7353,
1215.430,1451.5398,
1212.519,1438.9252,
1209.608,1435.0631,
1206.698,1440.3192,
1203.787,1450.3116,
1200.877,1451.4985,
1197.966,1443.4061,
1195.055,1495.9014,
1192.145,1558.3454,
1189.234,1601.3029,
1186.324,1637.9113,
1183.413,1662.2995,
1180.503,1665.9647,
1177.592,1649.3129,
1174.681,1613.3664,
1171.771,1608.217,
1168.860,1574.2796,
1165.950,1588.7384,
1163.039,1593.6984,
1160.129,1583.9725,
1157.218,1574.5963,
1154.307,1560.8692,
1151.397,1532.8762,
1148.486,1499.8069,
1145.576,1460.2721,
1142.665,1489.5732,
1139.754,1494.4409,
1136.844,1466.2876,
1133.933,1454,
1131.023,1436.5325,
1128.112,1421.9993,
1125.202,1433.1739,
1122.291,1437.9946,
1119.380,1424.4677,
1116.470,1472.1242,
1113.559,1455.5758,
1110.649,1476.5035,
1107.738,1466.8882,
1104.828,1433.1009,
1101.917,1427.7224,
1099.006,1459.7525,
1096.096,1466.2799,
1093.185,1438.1838,
1090.275,1443.2834,
1087.364,1444.3139,
1084.453,1439.5003,
1081.543,1442.5733,
1078.632,1457.2679,
1075.722,1466.8627,
1072.811,1449.1241,
1069.901,1450.8706,
1066.990,1483.3333,
1064.079,1487.5974,
1061.169,1483.2385,
1058.258,1500.9038,
1055.348,1529.4698,
1052.437,1533.8199,
1049.527,1538.4028,
1046.616,1548.8287,
1043.705,1560.0199,
1040.795,1573.8546,
1037.884,1580,
1034.974,1589.3106,
1032.063,1606.4307,
1029.153,1611.8309,
1026.242,1618.7505,
1023.331,1628.1661,
1020.421,1632.7884,
1017.510,1645.2055,
1014.600,1647.656,
1011.689,1651.5431,
1008.778,1694.1424,
1005.868,1759.0386,
1002.957,1763.3404,
1000.047,1800.4,
997.136,1859.2241,
994.226,1905.7228,
991.315,1923.6955,
988.404,1918.6225,
985.494,1895.2136,
982.583,1860.0948,
979.673,1842.562,
976.762,1872.0519,
973.852,1893.7899,
970.941,1877.0701,
968.030,1841.445,
965.120,1827.1969,
962.209,1874.0867,
959.299,1869.2515,
956.388,1869.5996,
953.477,1881.8095,
950.567,1907.3783,
947.656,1942.7637,
944.746,1902.8346,
941.835,1923.6748,
938.925,1908.6004,
936.014,1879.7903,
933.103,1877.1831,
930.193,1892.2156,
927.282,1839.7626,
924.372,1816.9312,
921.461,1801.4812,
918.551,1783.0576,
915.640,1770.4503,
912.729,1754.924,
909.819,1725.0025,
906.908,1747.748,
903.998,1737.0695,
901.087,1739.7286,
898.176,1754.9299,
895.266,1779.109,
892.355,1807.3977,
889.445,1830.8972,
886.534,1840.1836,
883.624,1888.4254,
880.713,1887.0133,
877.802,1872.3374,
874.892,1891.3092,
871.981,1903.1592,
869.071,1782.8597,
866.160,1805.4675,
863.250,1836.0083,
860.339,1857.0972,
857.428,1871.452,
854.518,1847.3741,
851.607,1825.7403,
848.697,1815.8096,
845.786,1820.7845,
842.875,1804.9298,
839.965,1764.335,
837.054,1775.3907,
834.144,1810.1983,
831.233,1811.6671,
828.323,1789.7117,
825.412,1771.6098,
822.501,1773.6595,
819.591,1766.2219,
816.680,1731.5448,
813.770,1704.2049,
810.859,1697.5124,
807.949,1693.3536,
805.038,1673.177,
802.127,1715.9796,
799.217,1670.8042,
796.306,1663.0811,
793.396,1675.8398,
790.485,1676.5768,
787.574,1645.1557,
784.664,1649.2562,
781.753,1660.7357,
778.843,1688.0537,
775.932,1708.8395,
773.022,1702.098,
770.111,1689.8344,
767.200,1681.3869,
764.290,1681.8894,
761.379,1675.7288,
758.469,1665.5112,
755.558,1674.0761,
752.648,1643.1212,
749.737,1648.0974,
746.826,1654,
743.916,1630.2659,
741.005,1562.3972,
738.095,1503.9421,
735.184,1446.2308,
732.274,1397.0756,
729.363,1428.1592,
726.452,1552.548,
723.542,1616.4901,
720.631,1653.6397,
717.721,1680.6125,
714.810,1685.0057,
711.899,1667.6733,
708.989,1649.114,
706.078,1656.2117,
703.168,1676.8238,
700.257,1667.1337,
697.347,1640.13,
694.436,1654.8472,
691.525,1649.2206,
688.615,1636.0507,
685.704,1614.3224,
682.794,1603.4254,
679.883,1632.9824,
676.973,1677.0578,
674.062,1658.5625,
671.151,1632.0417,
668.241,1628.7212,
665.330,1662.8109,
662.420,1658.8173,
659.509,1645.3014,
656.598,1643.6257,
653.688,1652.1502,
650.777,1655.757,
647.867,1648.59,
644.956,1645.7617,
642.046,1640.4394,
639.135,1633.5808,
636.224,1631.8647,
633.314,1604.8708,
630.403,1646.4793,
627.493,1673.4707,
624.582,1668.4737,
621.672,1693.0255,
618.761,1694.7599,
615.850,1710.9786,
612.940,1724.3415,
610.029,1722.5011,
607.119,1707.4981,
604.208,1718.7802,
601.297,1717.5193,
598.387,1719.3123,
595.476,1739.8514,
592.566,1738.2773,
589.655,1693.2956,
586.745,1677.6794,
583.834,1689.8783,
580.923,1692.8294,
578.013,1664.579,
575.102,1668.4718,
572.192,1678.7864,
569.281,1682.4218,
566.371,1684.7697,
563.460,1662.425,
560.549,1691.495,
557.639,1725.823,
554.728,1708.7044,
551.818,1704.0225,
548.907,1722.5012,
545.996,1727.2242,
543.086,1717.852,
540.175,1731.0889,
537.265,1752.2798,
534.354,1773.044,
531.444,1778.4762,
528.533,1760.1036,
525.622,1775.6226,
522.712,1788.7081,
519.801,1791.945,
516.891,1797.1728,
513.980,1847.5021,
511.070,1849.887,
508.159,1885.295,
505.248,1924.7496,
502.338,1924.4744,
499.427,1940.6829,
496.517,2016.8383,
493.606,2056.8579,
490.695,2025.6092,
487.785,2015.6019,
484.874,2037.9103,
481.964,2044.3555,
479.053,2039.4126,
476.143,2057.8437,
473.232,2049.6478,
470.321,2044.0537,
467.411,2024.525,
464.500,1973.9697,
461.590,2012.2567,
458.679,2021.3491,
455.769,2024.0958,
452.858,2037.9312,
449.947,2085.2949,
447.037,2078.6175,
444.126,2074.2848,
441.216,2092.5404,
438.305,2135.9705,
435.395,2144.6225,
432.484,2146,
429.573,2146.71,
426.663,2149.7506,
423.752,2196.7271,
420.842,2132.0564,
417.931,2053.4088,
415.020,2132.278,
412.110,2107.1987,
409.199,2084.7751,
406.289,2109.3889,
403.378,2223.9078,
400.468,2196.692,
397.557,2190.5707,
394.646,2197.3095,
391.736,2208.7827,
388.825,2201.9946,
385.915,2197.8712,
383.004,2184.0072,
380.094,2158.0692,
377.183,2237.8317,
374.272,2264.3422,
371.362,2276.2412,
368.451,2295.7265,
365.541,2291.2232,
362.630,2303.656,
359.719,2317.3677,
356.809,2324.8577,
353.898,2355.5584,
350.988,2362.3725,
348.077,2363.3233,
345.167,2370.4758,
342.256,2399.6115,
339.345,2385.1484,
336.435,2376.6589,
333.524,2405.6142,
330.614,2361.65,
327.703,2368.5362,
324.793,2391.8669,
321.882,2402.9784,
318.971,2394.0571,
316.061,2406.1377,
313.150,2427.7738,
310.240,2446.3267,
307.329,2451.2878,
304.418,2439.7774,
301.508,2419.0769,
298.597,2400.5665,
295.687,2390.1959,
292.776,2410.1668,
289.866,2450.6947,
286.955,2482.4599,
284.044,2563.5324,
281.134,2643.5476,
278.223,2711.868,
275.313,2765.6584,
272.402,2773.5146,
269.492,2795.0808,
266.581,2846.527,
263.670,2839.9104,
260.760,2850.5372,
257.849,2876.3711,
254.939,2917.4685,
252.028,2940.4392,
249.117,2927.5291,
246.207,2902.9471,
243.296,2906.6072,
240.386,2857.3726,
237.475,2825.2372,
234.565,2810.5934,
231.654,2776.2654,
228.743,2758.068,
225.833,2730.1817,
222.922,2685.7134,
220.012,2701.0131,
217.101,2684.4085,
214.191,2655.4432,
211.280,2633.6193,
208.369,2590.9584,
205.459,2557.0262,
202.548,2546.1532,
199.638,2604.9308,
196.727,2588.1892,
193.816,2614.2606,
190.906,2721.4097,
187.995,2647.5592,
185.085,2651.7899,
182.174,2677.1647,
179.264,2648.254,
176.353,2655.2525,
173.442,2671.8767,
170.532,2686.7156,
167.621,2649.9459,
164.711,2573.7785,
161.800,2502.9406,
158.890,2470.5529,
155.979,2280.0195,
153.068,2094.52,
150.158,1903.9276,
147.247,1639.0032,
144.337,1346.3491,
141.426,1065.0748,
138.516,814.87972,
135.605,581.21077,
132.694,409.28945,
129.784,285.2095,
126.873,183.66106,
123.963,118.61253,
121.052,76.218034,
118.141,54.087072,
115.231,50.447148,
112.320,43.916369,
109.410,35.363737,
106.499,26.817874,
103.589,26.120509,
100.678,24.012161,
97.767,16.191848,
94.857,15.307011,
91.946,12.178224,
89.036,7.6613063,
86.125,5.5336905,
83.215,6.5927611,
80.304,7.5211346,
77.393,6.1047948,
74.483,12.55135,
71.572,12.376479,
68.662,6,
65.751,6,
62.840,7.9268079,
59.930,7.190707,
57.019,-3.3855228,
54.109,4.5545736,
51.198,11.603219,
48.288,12.886751,
45.377,-1.1808102,
42.466,1.2443868,
39.556,11.963933,
36.645,5.6442209,
33.735,3.4807515,
30.824,3.220887,
27.914,3.9220622,
25.003,4.6226375,
22.092,5.6458091,
19.182,6.9542343,
16.271,5.555254,
13.361,20.593945,
10.450,30.341593,
7.539,-37.394997,
4.629,32.775246,
1.718,80.361636,
-1.192,-32.575779,
-4.103,-33.023602,
-7.013,-16.095418,
-9.924,2,
