,PLC260~1,
Wavenumbers [1/cm],Intensity,
3014.167,-1,
3011.256,0.75005368,
3008.346,92.398443,
3005.435,97.194349,
3002.525,105.41499,
2999.614,104.80262,
2996.704,114.95567,
2993.793,110.59159,
2990.882,127.52676,
2987.972,120.12108,
2985.061,140.00985,
2982.151,128.83529,
2979.240,130.51807,
2976.329,128.25956,
2973.419,145.86188,
2970.508,135.69998,
2967.598,159.23534,
2964.687,142.08967,
2961.777,172.61572,
2958.866,161.66419,
2955.955,160.44691,
2953.045,151.56825,
2950.134,167.85132,
2947.224,158.39856,
2944.313,173.79772,
2941.403,185.55976,
2938.492,180.03254,
2935.581,185.84419,
2932.671,184.72104,
2929.760,193.2077,
2926.850,202.63421,
2923.939,195.47661,
2921.028,196.98225,
2918.118,214.0995,
2915.207,210,
2912.297,190.08463,
2909.386,212.41605,
2906.476,199.65171,
2903.565,202.25778,
2900.654,218.01111,
2897.744,213.03772,
2894.833,218.88654,
2891.923,217.3237,
2889.012,196.20231,
2886.102,217.20811,
2883.191,189.02738,
2880.280,216.21531,
2877.370,202.4419,
2874.459,189.28317,
2871.549,215.69739,
2868.638,209.36289,
2865.727,217.76537,
2862.817,217.71391,
2859.906,231.7208,
2856.996,222.95924,
2854.085,220.5567,
2851.175,227.73795,
2848.264,236.6325,
2845.353,205.45291,
2842.443,228.39582,
2839.532,217.25382,
2836.622,210.70247,
2833.711,223.32651,
2830.801,232.58236,
2827.890,226.60667,
2824.979,226.80208,
2822.069,234.11372,
2819.158,239.43935,
2816.248,240.96526,
2813.337,252,
2810.427,248.65427,
2807.516,249.20859,
2804.605,246.34374,
2801.695,251.27635,
2798.784,253.73923,
2795.874,246.99472,
2792.963,243.64266,
2790.052,250.99743,
2787.142,235.6185,
2784.231,242.58075,
2781.321,252.88004,
2778.410,260.60534,
2775.500,236.15104,
2772.589,264.92203,
2769.678,257.35491,
2766.768,258.88348,
2763.857,252.21002,
2760.947,260.5788,
2758.036,262.83433,
2755.126,276.90171,
2752.215,271.70438,
2749.304,259.1277,
2746.394,282.97787,
2743.483,260.30003,
2740.573,257.54869,
2737.662,265.32988,
2734.751,267.46595,
2731.841,280.81136,
2728.930,266.63541,
2726.020,274.09143,
2723.109,270.52558,
2720.199,289.11885,
2717.288,275.5438,
2714.377,282.09574,
2711.467,274.32748,
2708.556,284.18105,
2705.646,279.53522,
2702.735,298.33505,
2699.825,294.13089,
2696.914,296.09547,
2694.003,287.38536,
2691.093,294.91094,
2688.182,294.89037,
2685.272,291.11522,
2682.361,310.30568,
2679.450,303.72023,
2676.540,302.18292,
2673.629,305.02694,
2670.719,302.63494,
2667.808,323.22183,
2664.898,309.09046,
2661.987,324.7998,
2659.076,297.79743,
2656.166,300.12983,
2653.255,310.48129,
2650.345,323.54447,
2647.434,331.79966,
2644.524,323.24702,
2641.613,330,
2638.702,325.07891,
2635.792,339.18843,
2632.881,336.0416,
2629.971,349.46986,
2627.060,323.83281,
2624.149,326.1625,
2621.239,331.51482,
2618.328,323.72058,
2615.418,343.98182,
2612.507,342.07118,
2609.597,340.54092,
2606.686,355.83132,
2603.775,347.15873,
2600.865,343,
2597.954,353.28129,
2595.044,341.97343,
2592.133,341.88529,
2589.223,367.42213,
2586.312,353.3417,
2583.401,357.69344,
2580.491,364.6298,
2577.580,377.99175,
2574.670,372.44653,
2571.759,372.10103,
2568.848,352.41978,
2565.938,371.09523,
2563.027,368.70684,
2560.117,363,
2557.206,356.67159,
2554.296,381.9405,
2551.385,368.05796,
2548.474,364.40744,
2545.564,382.4302,
2542.653,380.98994,
2539.743,373.96303,
2536.832,381.53084,
2533.922,396.93692,
2531.011,389.97526,
2528.100,379.86759,
2525.190,378,
2522.279,405.67171,
2519.369,392.66076,
2516.458,397.45821,
2513.548,390.34577,
2510.637,374.35262,
2507.726,400.9331,
2504.816,405.56144,
2501.905,403.86951,
2498.995,398.07494,
2496.084,411.62716,
2493.173,396.26291,
2490.263,401.16838,
2487.352,405.58427,
2484.442,419.85439,
2481.531,429.89886,
2478.621,423.94782,
2475.710,418.91565,
2472.799,406.76683,
2469.889,418.02773,
2466.978,437.60821,
2464.068,421.76184,
2461.157,430.69493,
2458.247,436.45582,
2455.336,429.65949,
2452.425,447.83021,
2449.515,459.14137,
2446.604,452.64747,
2443.694,446.18584,
2440.783,429.04504,
2437.872,428.76576,
2434.962,452.15207,
2432.051,456.61103,
2429.141,455.55878,
2426.230,462.60885,
2423.320,478.74302,
2420.409,475.02558,
2417.498,469.82864,
2414.588,467.90492,
2411.677,483.17526,
2408.767,458.47047,
2405.856,459.44281,
2402.946,471.05362,
2400.035,468.40375,
2397.124,483.65241,
2394.214,477.54159,
2391.303,491.28726,
2388.393,489.02789,
2385.482,449.71841,
2382.571,415.10049,
2379.661,446.58129,
2376.750,471.04917,
2373.840,491.41246,
2370.929,504.88087,
2368.019,496.43286,
2365.108,520.53403,
2362.197,506.90127,
2359.287,519.94151,
2356.376,514.02289,
2353.466,521.24319,
2350.555,513.55513,
2347.645,524.32847,
2344.734,524.84792,
2341.823,520.06633,
2338.913,522.30897,
2336.002,527.80866,
2333.092,527.44813,
2330.181,541.54474,
2327.270,533.60506,
2324.360,540.73114,
2321.449,537.38435,
2318.539,537.57493,
2315.628,544.48721,
2312.718,551.29956,
2309.807,532.29795,
2306.896,550.25196,
2303.986,547.95452,
2301.075,556.9574,
2298.165,572.98092,
2295.254,542.71092,
2292.344,574.58094,
2289.433,567.33591,
2286.522,572.6205,
2283.612,582.52042,
2280.701,576.34531,
2277.791,587.63746,
2274.880,567.19777,
2271.969,594.97942,
2269.059,592.01911,
2266.148,601.51586,
2263.238,601.59845,
2260.327,607.4482,
2257.417,604.50722,
2254.506,620.21368,
2251.595,614.00732,
2248.685,603.58079,
2245.774,624.52708,
2242.864,622.63842,
2239.953,602.54484,
2237.043,601,
2234.132,615.31682,
2231.221,631.97418,
2228.311,613.12374,
2225.400,643.63411,
2222.490,631.37134,
2219.579,627.52954,
2216.669,640.38792,
2213.758,662.69542,
2210.847,660.38791,
2207.937,683.02277,
2205.026,675.44461,
2202.116,669.42675,
2199.205,662.1127,
2196.294,660.24799,
2193.384,678.34153,
2190.473,684.14202,
2187.563,696.00483,
2184.652,699.71102,
2181.742,721.7963,
2178.831,729.20619,
2175.920,735.48635,
2173.010,756.70068,
2170.099,766.93254,
2167.189,792.0287,
2164.278,801.13568,
2161.368,829.85728,
2158.457,844.36871,
2155.546,885.93849,
2152.636,914.63294,
2149.725,932.651,
2146.815,969.79872,
2143.904,971.81039,
2140.993,998.16401,
2138.083,1016.9543,
2135.172,1046.4706,
2132.262,1047.4965,
2129.351,1041.4689,
2126.441,1032.0485,
2123.530,991.98878,
2120.619,988.24782,
2117.709,959.66143,
2114.798,917.51142,
2111.888,887.16311,
2108.977,853.65562,
2106.067,861.71782,
2103.156,832.8066,
2100.245,825.96738,
2097.335,772.79581,
2094.424,768.06894,
2091.514,774.20693,
2088.603,767.22118,
2085.692,785.41257,
2082.782,768.55437,
2079.871,755.53559,
2076.961,763.4188,
2074.050,771.90303,
2071.140,766.13824,
2068.229,754.70831,
2065.318,765.75199,
2062.408,764.71254,
2059.497,773.17856,
2056.587,778.05794,
2053.676,760.13473,
2050.766,742.07773,
2047.855,766.80065,
2044.944,761.99519,
2042.034,773.10402,
2039.123,760.53872,
2036.213,755.07559,
2033.302,761.82612,
2030.391,759.35595,
2027.481,759,
2024.570,774.17103,
2021.660,802.40351,
2018.749,767.67158,
2015.839,807.17519,
2012.928,793.36745,
2010.017,795.0141,
2007.107,775.95516,
2004.196,788.53572,
2001.286,777.31098,
1998.375,761.34547,
1995.465,776.09196,
1992.554,770.48244,
1989.643,777.68893,
1986.733,767.74912,
1983.822,779.30724,
1980.912,767.86129,
1978.001,756.1614,
1975.090,750.15726,
1972.180,791.1356,
1969.269,790.95968,
1966.359,787.21643,
1963.448,787.96433,
1960.538,763.90075,
1957.627,759,
1954.716,753.17236,
1951.806,782.59614,
1948.895,787.24099,
1945.985,744.26798,
1943.074,762.60877,
1940.164,770.59601,
1937.253,756.41745,
1934.342,768.12834,
1931.432,768.56782,
1928.521,769.03973,
1925.611,767.79228,
1922.700,740.46547,
1919.790,757.25407,
1916.879,776.81426,
1913.968,764.01721,
1911.058,728.01204,
1908.147,804.76343,
1905.237,751.99265,
1902.326,759.69184,
1899.415,761.47072,
1896.505,752.22299,
1893.594,774.0854,
1890.684,753.50348,
1887.773,756.34401,
1884.863,783.82688,
1881.952,779.72256,
1879.041,778.51298,
1876.131,786.32941,
1873.220,755.74766,
1870.310,791.84298,
1867.399,778.27189,
1864.489,771.50627,
1861.578,783.7198,
1858.667,784.81435,
1855.757,799.62649,
1852.846,772.76409,
1849.936,793.09208,
1847.025,827.35036,
1844.114,831.75762,
1841.204,825.96154,
1838.293,843.98004,
1835.383,853.814,
1832.472,829.46435,
1829.562,830.60886,
1826.651,825.64067,
1823.740,815.36015,
1820.830,842.55143,
1817.919,842.04186,
1815.009,822.01909,
1812.098,811.8189,
1809.188,822.25579,
1806.277,842.55736,
1803.366,870.46764,
1800.456,839.87931,
1797.545,854.26245,
1794.635,853.83711,
1791.724,902.47569,
1788.813,907.18997,
1785.903,867.3237,
1782.992,821.83154,
1780.082,744.87375,
1777.171,644.65041,
1774.261,619.77072,
1771.350,745.32003,
1768.439,855.61893,
1765.529,867.63517,
1762.618,872.07815,
1759.708,894.19574,
1756.797,905.15152,
1753.887,913.76968,
1750.976,912.51375,
1748.065,924.58986,
1745.155,957.35468,
1742.244,943.51454,
1739.334,927.94588,
1736.423,951.0224,
1733.512,947.17476,
1730.602,947.98414,
1727.691,968.42385,
1724.781,962.98793,
1721.870,945.5142,
1718.960,956.80018,
1716.049,935.66973,
1713.138,929.29001,
1710.228,943.79505,
1707.317,989.344,
1704.407,1000.3904,
1701.496,981.8575,
1698.586,1009.5675,
1695.675,1028.8428,
1692.764,1020.5328,
1689.854,1002.7795,
1686.943,1020.3592,
1684.033,1024.9007,
1681.122,1050.5582,
1678.211,1094.5812,
1675.301,1005.2775,
1672.390,1066.0479,
1669.480,1082.0562,
1666.569,1089.9268,
1663.659,1161.216,
1660.748,1114.8291,
1657.837,1157.5249,
1654.927,1180.4143,
1652.016,1157.3121,
1649.106,1210.4651,
1646.195,1229.6953,
1643.285,1257.5671,
1640.374,1239.2091,
1637.463,1249.7206,
1634.553,1289.3251,
1631.642,1311.7275,
1628.732,1378.1659,
1625.821,1406.0255,
1622.911,1444.7802,
1620.000,1541.7653,
1617.089,1618.4677,
1614.179,1713.2927,
1611.268,1792.0629,
1608.358,1857.9097,
1605.447,1930.772,
1602.536,2003.9596,
1599.626,2003.4804,
1596.715,1953.0819,
1593.805,1937.268,
1590.894,1940.4034,
1587.984,1895.9632,
1585.073,1888.1492,
1582.162,1875.4767,
1579.252,1841.0863,
1576.341,1830.7957,
1573.431,1826.0841,
1570.520,1776.0799,
1567.610,1743.8625,
1564.699,1748.8754,
1561.788,1739.6198,
1558.878,1690.3032,
1555.967,1683.2133,
1553.057,1683.6208,
1550.146,1681.2291,
1547.235,1685.542,
1544.325,1655.7647,
1541.414,1620.7389,
1538.504,1613.5414,
1535.593,1605.7486,
1532.683,1609.3224,
1529.772,1590.0693,
1526.861,1506.9858,
1523.951,1446.4092,
1521.040,1454.8137,
1518.130,1483.703,
1515.219,1485.719,
1512.309,1510.5946,
1509.398,1475.1331,
1506.487,1465.8895,
1503.577,1473.4516,
1500.666,1394.5962,
1497.756,1439.0763,
1494.845,1437.5186,
1491.934,1378.0157,
1489.024,1382.8282,
1486.113,1388.5633,
1483.203,1373.9011,
1480.292,1380.4851,
1477.382,1394.932,
1474.471,1318.96,
1471.560,1342.1683,
1468.650,1365.4662,
1465.739,1341.0994,
1462.829,1329.5809,
1459.918,1341.3923,
1457.008,1321.0766,
1454.097,1312.0242,
1451.186,1303.4739,
1448.276,1264.9518,
1445.365,1283.8239,
1442.455,1308.6269,
1439.544,1303.7303,
1436.633,1324.3784,
1433.723,1309.8814,
1430.812,1291.6753,
1427.902,1250.2931,
1424.991,1262.6141,
1422.081,1285.9369,
1419.170,1301.825,
1416.259,1249.7258,
1413.349,1254.3705,
1410.438,1257.2009,
1407.528,1258.575,
1404.617,1271.1554,
1401.707,1267.3413,
1398.796,1282.9615,
1395.885,1290.9171,
1392.975,1268.792,
1390.064,1285.3545,
1387.154,1281.4199,
1384.243,1256.3805,
1381.332,1300.6118,
1378.422,1406.039,
1375.511,1329.2229,
1372.601,1371.3138,
1369.690,1399.0022,
1366.780,1387.1593,
1363.869,1411.3326,
1360.958,1464.2538,
1358.048,1525.1586,
1355.137,1565.1421,
1352.227,1597.5884,
1349.316,1636.3867,
1346.406,1681.3518,
1343.495,1735.2282,
1340.584,1758.464,
1337.674,1779.536,
1334.763,1783.9647,
1331.853,1783.0375,
1328.942,1807.905,
1326.032,1886.8527,
1323.121,1863.9879,
1320.210,1898.6122,
1317.300,1907.0637,
1314.389,1907.8197,
1311.479,1930.3591,
1308.568,1950.7471,
1305.657,1976.4527,
1302.747,2030.9621,
1299.836,2091.9656,
1296.926,2108.051,
1294.015,2152.1785,
1291.105,2224.4433,
1288.194,2274.7359,
1285.283,2317.9361,
1282.373,2324.0391,
1279.462,2384.2341,
1276.552,2436.0709,
1273.641,2450.5639,
1270.731,2495.7,
1267.820,2541.5458,
1264.909,2519.317,
1261.999,2401.5618,
1259.088,2499.1588,
1256.178,2453.6126,
1253.267,2414.3122,
1250.356,2402.9682,
1247.446,2348.6078,
1244.535,2314.4687,
1241.625,2287.3186,
1238.714,2244.1795,
1235.804,2246.1602,
1232.893,2229.8844,
1229.982,2185.5588,
1227.072,2143.0091,
1224.161,2124.8709,
1221.251,2137.6347,
1218.340,2109.3138,
1215.430,2061.8216,
1212.519,2045.2442,
1209.608,2051.5194,
1206.698,2048.7873,
1203.787,2051.9749,
1200.877,2043.7303,
1197.966,2087.7891,
1195.055,2124.1299,
1192.145,2156.297,
1189.234,2279.8362,
1186.324,2302.178,
1183.413,2269,
1180.503,2281.8157,
1177.592,2291.8987,
1174.681,2237.5651,
1171.771,2206.6497,
1168.860,2191.4672,
1165.950,2178.7119,
1163.039,2170.4128,
1160.129,2188.0551,
1157.218,2188.5394,
1154.307,2182.9046,
1151.397,2193.8291,
1148.486,2176.6052,
1145.576,2145.4603,
1142.665,2133.0296,
1139.754,2123.8637,
1136.844,2117.0979,
1133.933,2091.5398,
1131.023,2067.4465,
1128.112,2077.9258,
1125.202,2108.6184,
1122.291,2097.624,
1119.380,2095.0346,
1116.470,2098.5648,
1113.559,2142.3019,
1110.649,2148.4515,
1107.738,2141.2493,
1104.828,2149.2347,
1101.917,2179.7935,
1099.006,2213.2475,
1096.096,2205.5375,
1093.185,2214.3176,
1090.275,2173.7272,
1087.364,2151.6498,
1084.453,2146,
1081.543,2160.0231,
1078.632,2180.5072,
1075.722,2187.3164,
1072.811,2192.9379,
1069.901,2192.0647,
1066.990,2205.7416,
1064.079,2213.0831,
1061.169,2238.749,
1058.258,2271.5515,
1055.348,2286.4725,
1052.437,2284.0676,
1049.527,2314.8322,
1046.616,2310.488,
1043.705,2333.123,
1040.795,2325.9529,
1037.884,2334.6893,
1034.974,2355.8415,
1032.063,2364.7154,
1029.153,2367.5193,
1026.242,2371.8441,
1023.331,2352.0013,
1020.421,2361.2449,
1017.510,2379.3261,
1014.600,2395.344,
1011.689,2405.1403,
1008.778,2412.2517,
1005.868,2437.0154,
1002.957,2438.7362,
1000.047,2539.464,
997.136,2630.4466,
994.226,2678.7075,
991.315,2672.8193,
988.404,2625.4331,
985.494,2606.789,
982.583,2597.3669,
979.673,2570.3924,
976.762,2580.3744,
973.852,2598.8621,
970.941,2607.371,
968.030,2613,
965.120,2612.8711,
962.209,2582.1796,
959.299,2600.3722,
956.388,2598.8007,
953.477,2589.589,
950.567,2607.0382,
947.656,2653.3208,
944.746,2617.6394,
941.835,2637.0551,
938.925,2626.8648,
936.014,2623.5524,
933.103,2624.4691,
930.193,2612.2071,
927.282,2592.208,
924.372,2651.4005,
921.461,2579.4688,
918.551,2565.5233,
915.640,2544.9791,
912.729,2507.2937,
909.819,2517.3319,
906.908,2504.6956,
903.998,2507.9768,
901.087,2512.819,
898.176,2515.4772,
895.266,2534.0917,
892.355,2583.523,
889.445,2639.7539,
886.534,2601.5959,
883.624,2645.8081,
880.713,2691.4142,
877.802,2626.5838,
874.892,2428.2891,
871.981,2248.9422,
869.071,2119.4532,
866.160,2286.0489,
863.250,2457.4935,
860.339,2559.2683,
857.428,2601.3826,
854.518,2600.9298,
851.607,2529.3719,
848.697,2394.5686,
845.786,2358.2017,
842.875,2424.2377,
839.965,2524.2382,
837.054,2571.9676,
834.144,2658.1578,
831.233,2670.3337,
828.323,2670.9674,
825.412,2649.2089,
822.501,2598.3405,
819.591,2605.7781,
816.680,2564.3333,
813.770,2577.1806,
810.859,2572.0479,
807.949,2547.6219,
805.038,2548.0819,
802.127,2581.8301,
799.217,2526.1141,
796.306,2506.5676,
793.396,2507.3893,
790.485,2510.1058,
787.574,2517.9689,
784.664,2517.1488,
781.753,2515.658,
778.843,2536.0735,
775.932,2562.9382,
773.022,2572.3516,
770.111,2561.7231,
767.200,2586.8846,
764.290,2573.6185,
761.379,2547.3656,
758.469,2542.0911,
755.558,2584.5592,
752.648,2603.2951,
749.737,2548.249,
746.826,2533.3177,
743.916,2555.9091,
741.005,2563.3406,
738.095,2539.7961,
735.184,2534.8548,
732.274,2514.0159,
729.363,2523.2347,
726.452,2582.5547,
723.542,2613.3117,
720.631,2588.2411,
717.721,2597.1854,
714.810,2618.7556,
711.899,2619.0792,
708.989,2559.3667,
706.078,2599.8664,
703.168,2600.8917,
700.257,2587.5737,
697.347,2569.6095,
694.436,2542.4763,
691.525,2523.1849,
688.615,2538.4962,
685.704,2553.8852,
682.794,2560.1702,
679.883,2563.6035,
676.973,2554.7884,
674.062,2574.6948,
671.151,2593.575,
668.241,2593.1848,
665.330,2565.0756,
662.420,2566.6731,
659.509,2572.7144,
656.598,2585.5205,
653.688,2590.1786,
650.777,2562.8659,
647.867,2529.4201,
644.956,2504.6638,
642.046,2487.3664,
639.135,2498.1225,
636.224,2574.2188,
633.314,2617.8854,
630.403,2621.9055,
627.493,2623.9133,
624.582,2639.4143,
621.672,2659.2141,
618.761,2676.7187,
615.850,2668.2253,
612.940,2668.9537,
610.029,2698.7076,
607.119,2738.9788,
604.208,2712.4694,
601.297,2728.4155,
598.387,2747.8278,
595.476,2729.8281,
592.566,2780.9876,
589.655,2727.8026,
586.745,2697.0378,
583.834,2701.4392,
580.923,2703.0095,
578.013,2704.5789,
575.102,2692.3811,
572.192,2694.4331,
569.281,2710.782,
566.371,2687.3033,
563.460,2723.8008,
560.549,2717.0979,
557.639,2706.6967,
554.728,2743.6058,
551.818,2737.3633,
548.907,2739.6565,
545.996,2758.3292,
543.086,2770.579,
540.175,2708.2873,
537.265,2730.0741,
534.354,2759.0642,
531.444,2792.2116,
528.533,2826.6823,
525.622,2794.0926,
522.712,2787,
519.801,2799.9839,
516.891,2818.8089,
513.980,2807.9688,
511.070,2824.6087,
508.159,2822.4487,
505.248,2824.2678,
502.338,2862.7396,
499.427,2922.1706,
496.517,2917.0707,
493.606,2923.545,
490.695,2971.6375,
487.785,2997.8104,
484.874,2968.3964,
481.964,2970.7639,
479.053,2997.2421,
476.143,2985.7227,
473.232,2946.1522,
470.321,2940.245,
467.411,2946.4544,
464.500,2936.3297,
461.590,2949.3473,
458.679,2953.5503,
455.769,2962.1917,
452.858,2980.3977,
449.947,2984.2173,
447.037,3035.9679,
444.126,3049.7758,
441.216,3028.1122,
438.305,3092.1145,
435.395,3043.304,
432.484,3045.5067,
429.573,3073.2498,
426.663,2997.2357,
423.752,2683.4382,
420.842,2305.673,
417.931,2048.8286,
415.020,2167.8908,
412.110,2608.0414,
409.199,2875.0903,
406.289,2986.754,
403.378,2985.7182,
400.468,2902.5589,
397.557,2941.297,
394.646,3030.7426,
391.736,3107.0624,
388.825,3140.2486,
385.915,3164.9014,
383.004,3183.4253,
380.094,3197.5374,
377.183,3208.0721,
374.272,3207.2005,
371.362,3194.2872,
368.451,3174.7385,
365.541,3236.2824,
362.630,3272.6647,
359.719,3281.3048,
356.809,3264.9483,
353.898,3297.1466,
350.988,3309.7974,
348.077,3311.8384,
345.167,3307.5999,
342.256,3279.9583,
339.345,3285.2858,
336.435,3308.6589,
333.524,3338.0135,
330.614,3306.717,
327.703,3298.0268,
324.793,3305.9604,
321.882,3325.9531,
318.971,3306.6236,
316.061,3304.8831,
313.150,3325.2428,
310.240,3374.2225,
307.329,3345.2706,
304.418,3353.0619,
301.508,3374.6369,
298.597,3365.7519,
295.687,3368.3862,
292.776,3388.3334,
289.866,3433.9284,
286.955,3528.4852,
284.044,3596.3949,
281.134,3616.8914,
278.223,3603.8202,
275.313,3643.6104,
272.402,3631.6684,
269.492,3598.9394,
266.581,3559.1592,
263.670,3547.3963,
260.760,3583.1787,
257.849,3645.9459,
254.939,3723.0035,
252.028,3692.1508,
249.117,3653.9608,
246.207,3635.6905,
243.296,3684.737,
240.386,3712.8547,
237.475,3696.186,
234.565,3649.885,
231.654,3649.1546,
228.743,3630.0129,
225.833,3572.3998,
222.922,3476.907,
220.012,3560.6908,
217.101,3591.9257,
214.191,3576.111,
211.280,3509.9119,
208.369,3552.0969,
205.459,3547.851,
202.548,3504.6184,
199.638,3490.831,
196.727,3524.8778,
193.816,3532.1325,
190.906,3485.9746,
187.995,3485.2506,
185.085,3493.5114,
182.174,3513.7736,
179.264,3553.5257,
176.353,3505.4561,
173.442,3434.6684,
170.532,3366.6204,
167.621,3406.274,
164.711,3276.6734,
161.800,3083.152,
158.890,2887.3861,
155.979,2743.7965,
153.068,2535.4908,
150.158,2265.7437,
147.247,1952.7165,
144.337,1617.5637,
141.426,1284.4136,
138.516,964.6801,
135.605,681.36275,
132.694,455.38423,
129.784,288.55437,
126.873,204.16905,
123.963,142.04346,
121.052,98.368166,
118.141,74.095499,
115.231,59.788593,
112.320,46.798189,
109.410,37,
106.499,37,
103.589,32.517964,
100.678,26.012161,
97.767,18.191848,
94.857,24.92989,
91.946,27.193778,
89.036,25.548408,
86.125,22.711587,
83.215,19.876319,
80.304,19.197163,
77.393,22.738013,
74.483,15.793515,
71.572,14.898817,
68.662,19.861465,
65.751,18.448563,
62.840,18.481702,
59.930,16.752566,
57.019,8.2915818,
54.109,11.777287,
51.198,10.77747,
48.288,1.0113249,
45.377,2.418081,
42.466,7.1221934,
39.556,12.309289,
36.645,8.0961472,
33.735,8.0384969,
30.824,7.8955651,
27.914,4.3896889,
25.003,5.245275,
22.092,3.7396681,
19.182,-1.5949544,
16.271,-19.781698,
13.361,-106.2341,
10.450,-285.07063,
7.539,-692.18849,
4.629,-1033.4442,
1.718,-1200.1181,
-1.192,-1024.4377,
-4.103,-639.22132,
-7.013,-282.17496,
-9.924,-1,
