,PL63B6~1,
Wavenumbers [1/cm],Intensity,
3014.167,3.75,
3011.256,-3.8000107,
3008.346,90.24941,
3005.435,121.02209,
3002.525,113.35235,
2999.614,128.78122,
2996.704,144.80258,
2993.793,155.51152,
2990.882,161.43694,
2987.972,141.78027,
2985.061,157.50371,
2982.151,169.75,
2979.240,161.28231,
2976.329,176.51775,
2973.419,173.33434,
2970.508,183.51667,
2967.598,176.2757,
2964.687,188.66033,
2961.777,178.9721,
2958.866,202.74555,
2955.955,201.16151,
2953.045,218.30034,
2950.134,222.56925,
2947.224,218.94928,
2944.313,241.48006,
2941.403,234.67792,
2938.492,237.32453,
2935.581,230.29848,
2932.671,245.38948,
2929.760,242.75,
2926.850,238.95902,
2923.939,237.22661,
2921.028,254.91477,
2918.118,251.75,
2915.207,254.10446,
2912.297,269.69076,
2909.386,263.15146,
2906.476,272.61797,
2903.565,238.71591,
2900.654,257.73889,
2897.744,248.71228,
2894.833,239.15218,
2891.923,231.3718,
2889.012,221.66907,
2886.102,219.18648,
2883.191,178.79154,
2880.280,132.57773,
2877.370,-21.639208,
2874.459,-71.778317,
2871.549,29.290754,
2868.638,203.2592,
2865.727,216.89222,
2862.817,245.92113,
2859.906,259.97792,
2856.996,261.75,
2854.085,261.75,
2851.175,258.51501,
2848.264,278.603,
2845.353,268.6206,
2842.443,265.54513,
2839.532,265.86943,
2836.622,252.17708,
2833.711,268.90542,
2830.801,278.94412,
2827.890,275.12412,
2824.979,276.52796,
2822.069,289.75,
2819.158,283.66913,
2816.248,280.47395,
2813.337,289.06952,
2810.427,283.75,
2807.516,284.59172,
2804.605,275.10579,
2801.695,290.17102,
2798.784,281.60215,
2795.874,276.1748,
2792.963,292.60745,
2790.052,294.75107,
2787.142,274.71042,
2784.231,272.26552,
2781.321,291.1214,
2778.410,285.89974,
2775.500,287.92069,
2772.589,277.75,
2769.678,280.99913,
2766.768,279.88009,
2763.857,275.64596,
2760.947,294.30359,
2758.036,309.52711,
2755.126,276.64531,
2752.215,299.09088,
2749.304,295.0054,
2746.394,318.11493,
2743.483,313.00001,
2740.573,305.42697,
2737.662,302.05918,
2734.751,306.40503,
2731.841,304.91117,
2728.930,294.07629,
2726.020,295.64294,
2723.109,293.4305,
2720.199,313.61248,
2717.288,321.64416,
2714.377,318.78344,
2711.467,314.09396,
2708.556,331.39884,
2705.646,322.07391,
2702.735,327.25774,
2699.825,319.58812,
2696.914,324.79821,
2694.003,320.90609,
2691.093,322.05326,
2688.182,309.93148,
2685.272,309.82966,
2682.361,316.66157,
2679.450,323.62655,
2676.540,311.3394,
2673.629,330.79041,
2670.719,325.59659,
2667.808,344.16637,
2664.898,333.00973,
2661.987,336.01671,
2659.076,337.75,
2656.166,331.97514,
2653.255,332.41327,
2650.345,344.88612,
2647.434,359.34931,
2644.524,339.92749,
2641.613,353.86439,
2638.702,349.84469,
2635.792,352.37612,
2632.881,354.14268,
2629.971,362.62249,
2627.060,346.41563,
2624.149,344.64376,
2621.239,359.05188,
2618.328,349.72491,
2615.418,359.47271,
2612.507,343.43771,
2609.597,352.38273,
2606.686,354.25604,
2603.775,369.71032,
2600.865,373.80803,
2597.954,382.79172,
2595.044,369.36648,
2592.133,364.85175,
2589.223,376.14791,
2586.312,370.85046,
2583.401,396.58579,
2580.491,389.95677,
2577.580,365.76155,
2574.670,371.36631,
2571.759,367.19949,
2568.848,378.27492,
2565.938,395.55954,
2563.027,390.45684,
2560.117,389.19861,
2557.206,397.17435,
2554.296,377.98112,
2551.385,391.37803,
2548.474,408.12063,
2545.564,392.44642,
2542.653,396.3708,
2539.743,397.30545,
2536.832,397.28084,
2533.922,396.17577,
2531.011,422.75,
2528.100,421.15069,
2525.190,410.26312,
2522.279,388.39143,
2519.369,416.61824,
2516.458,410.86544,
2513.548,395.52301,
2510.637,402.1189,
2507.726,409.62361,
2504.816,421.62599,
2501.905,406.64878,
2498.995,404.88466,
2496.084,422.75,
2493.173,414.46026,
2490.263,431.68224,
2487.352,433.9988,
2484.442,421.87632,
2481.531,435.27659,
2478.621,431.91112,
2475.710,442.78067,
2472.799,446.25673,
2469.889,431.66133,
2466.978,432.18285,
2464.068,465.52258,
2461.157,433.67495,
2458.247,440.89705,
2455.336,431.1766,
2452.425,441.01417,
2449.515,445.55251,
2446.604,473.10253,
2443.694,481.88982,
2440.783,465.88851,
2437.872,451.96879,
2434.962,463.00345,
2432.051,469.45972,
2429.141,472.13809,
2426.230,490.77213,
2423.320,479.35056,
2420.409,465.20495,
2417.498,476.56179,
2414.588,488.46476,
2411.677,476.67828,
2408.767,477.27953,
2405.856,492.25472,
2402.946,499.38092,
2400.035,498.75,
2397.124,493.18851,
2394.214,485.506,
2391.303,477.14228,
2388.393,495.90586,
2385.482,453.99715,
2382.571,462.55985,
2379.661,476.95921,
2376.750,493.8534,
2373.840,490.33754,
2370.929,520.39262,
2368.019,527.70261,
2365.108,509.95942,
2362.197,521.88978,
2359.287,535.53997,
2356.376,524.77113,
2353.466,538.67649,
2350.555,522.73561,
2347.645,546.38179,
2344.734,549.47812,
2341.823,523.21433,
2338.913,528.46045,
2336.002,535.08729,
2333.092,544.69246,
2330.181,558.31263,
2327.270,531.51017,
2324.360,571.27124,
2321.449,558.84183,
2318.539,561.43198,
2315.628,554.40627,
2312.718,551.28304,
2309.807,564.29651,
2306.896,573.76565,
2303.986,569.74342,
2301.075,564.15423,
2298.165,555.18244,
2295.254,565.4484,
2292.344,566.80816,
2289.433,552.13228,
2286.522,578.09811,
2283.612,575.56886,
2280.701,578.27016,
2277.791,564.19082,
2274.880,584.59381,
2271.969,603.72942,
2269.059,589.59743,
2266.148,609.96369,
2263.238,610.15155,
2260.327,623.33615,
2257.417,618.46167,
2254.506,613.06336,
2251.595,607.45906,
2248.685,611.75,
2245.774,620.76083,
2242.864,614.30609,
2239.953,634.47418,
2237.043,632.59464,
2234.132,633.4903,
2231.221,625.3288,
2228.311,622.14047,
2225.400,630.35596,
2222.490,619.34941,
2219.579,643.05854,
2216.669,666.75,
2213.758,654.35652,
2210.847,655.81044,
2207.937,674.0578,
2205.026,655.08324,
2202.116,662.46974,
2199.205,676.57494,
2196.294,705.28792,
2193.384,728.171,
2190.473,703.86854,
2187.563,735.7935,
2184.652,745.35245,
2181.742,738.7033,
2178.831,745.52834,
2175.920,795.24181,
2173.010,812.17574,
2170.099,841.74703,
2167.189,901.8074,
2164.278,915.47262,
2161.368,963.60535,
2158.457,998.63186,
2155.546,1029.3847,
2152.636,1106.6169,
2149.725,1144.5621,
2146.815,1189.3151,
2143.904,1264.8429,
2140.993,1251.242,
2138.083,1270.4095,
2135.172,1280.7752,
2132.262,1274.6206,
2129.351,1273.5052,
2126.441,1249.0121,
2123.530,1210.0653,
2120.619,1143.42,
2117.709,1099.7947,
2114.798,1063.4997,
2111.888,986.85162,
2108.977,921.86919,
2106.067,881.99867,
2103.156,867.71132,
2100.245,835.73934,
2097.335,815.61912,
2094.424,789.15976,
2091.514,781.3253,
2088.603,768.28925,
2085.692,757.98042,
2082.782,742.42484,
2079.871,773.8235,
2076.961,752.81649,
2074.050,727.52576,
2071.140,742.58909,
2068.229,746.10416,
2065.318,747.03299,
2062.408,722.85591,
2059.497,728.97621,
2056.587,737.04071,
2053.676,732.66692,
2050.766,729.90396,
2047.855,730.46521,
2044.944,719.02084,
2042.034,708.93499,
2039.123,720.91162,
2036.213,738.5189,
2033.302,731.51101,
2030.391,740.49531,
2027.481,766.8596,
2024.570,749.99346,
2021.660,741.98652,
2018.749,741.04168,
2015.839,771.46325,
2012.928,747.55536,
2010.017,724.86618,
2007.107,753.47339,
2004.196,754.3928,
2001.286,748.81359,
1998.375,741.52854,
1995.465,737.32321,
1992.554,721.0972,
1989.643,719.71544,
1986.733,717.67982,
1983.822,701.28914,
1980.912,716.97774,
1978.001,722.7667,
1975.090,736.14084,
1972.180,734.92288,
1969.269,726.35344,
1966.359,721.15537,
1963.448,752.6232,
1960.538,733.10112,
1957.627,743.58283,
1954.716,760.3191,
1951.806,763.70032,
1948.895,761.09213,
1945.985,745.05229,
1943.074,727.31088,
1940.164,729.46155,
1937.253,737.63681,
1934.342,743.22006,
1931.432,708.5765,
1928.521,698.08852,
1925.611,702.58768,
1922.700,708.87293,
1919.790,740.03291,
1916.879,710.33073,
1913.968,701.75738,
1911.058,734.60886,
1908.147,741.56893,
1905.237,706.55882,
1902.326,691.99298,
1899.415,671.31099,
1896.505,668.69559,
1893.594,651.01832,
1890.684,694.86088,
1887.773,739.30143,
1884.863,730.52904,
1881.952,740.9773,
1879.041,755.80192,
1876.131,746.3487,
1873.220,725.44462,
1870.310,748.74098,
1867.399,738.94192,
1864.489,734.24373,
1861.578,719.88201,
1858.667,706.29787,
1855.757,730.15931,
1852.846,725.78075,
1849.936,755.84208,
1847.025,784.1028,
1844.114,771.06995,
1841.204,764.73251,
1838.293,777.25748,
1835.383,751.98302,
1832.472,756.69261,
1829.562,781.33203,
1826.651,787.43378,
1823.740,787.02203,
1820.830,782.12004,
1817.919,754.68995,
1815.009,804.40521,
1812.098,772.45869,
1809.188,789.32359,
1806.277,817.15244,
1803.366,806.18437,
1800.456,774.17889,
1797.545,797.36709,
1794.635,786.71705,
1791.724,798.00255,
1788.813,768.16851,
1785.903,818.48067,
1782.992,789.1166,
1780.082,736.09219,
1777.171,628.07226,
1774.261,609.38046,
1771.350,694.65702,
1768.439,771.98505,
1765.529,811.75565,
1762.618,839.53686,
1759.708,852.20674,
1756.797,834.5606,
1753.887,848.00947,
1750.976,874.31545,
1748.065,878.80991,
1745.155,848.7051,
1742.244,852.24905,
1739.334,862.69588,
1736.423,846.2061,
1733.512,847.02644,
1730.602,864.71034,
1727.691,865.9117,
1724.781,931.60901,
1721.870,930.4356,
1718.960,920.81661,
1716.049,919.75,
1713.138,892.39013,
1710.228,906.02624,
1707.317,968.01628,
1704.407,933.52533,
1701.496,937.86548,
1698.586,961.84961,
1695.675,968.42854,
1692.764,988.63116,
1689.854,969.65944,
1686.943,967.78373,
1684.033,999.9304,
1681.122,1040.0703,
1678.211,1026.8832,
1675.301,1009.8024,
1672.390,1075.8128,
1669.480,1096.7179,
1666.569,1092.8516,
1663.659,1101.9259,
1660.748,1173.2899,
1657.837,1200.4001,
1654.927,1185.2654,
1652.016,1207.1145,
1649.106,1222.1417,
1646.195,1237.0307,
1643.285,1209.0488,
1640.374,1265.8998,
1637.463,1320.6868,
1634.553,1372.9322,
1631.642,1451.8151,
1628.732,1457.9455,
1625.821,1490.8481,
1622.911,1639.9047,
1620.000,1664.4476,
1617.089,1810.7848,
1614.179,1968.266,
1611.268,2042.0732,
1608.358,2132.4423,
1605.447,2174.4646,
1602.536,2184.2051,
1599.626,2238.1061,
1596.715,2231.8588,
1593.805,2196.7654,
1590.894,2145.1938,
1587.984,2158.6701,
1585.073,2111.5518,
1582.162,2125.2919,
1579.252,2052.8297,
1576.341,2065.3893,
1573.431,2069.6173,
1570.520,2071.8075,
1567.610,2045.9261,
1564.699,2056.3258,
1561.788,2029.2433,
1558.878,1992.2188,
1555.967,1952.0201,
1553.057,1931.6466,
1550.146,1898.0228,
1547.235,1842.7401,
1544.325,1794.5632,
1541.414,1760.0082,
1538.504,1765.7883,
1535.593,1768.1949,
1532.683,1716.2954,
1529.772,1668.8501,
1526.861,1636.8173,
1523.951,1608.3408,
1521.040,1609.8709,
1518.130,1592.8805,
1515.219,1580.0706,
1512.309,1564.1915,
1509.398,1574.7273,
1506.487,1539.3958,
1503.577,1533.3055,
1500.666,1550.6841,
1497.756,1481.2673,
1494.845,1510.7094,
1491.934,1485.8287,
1489.024,1509.8911,
1486.113,1447.6993,
1483.203,1405.447,
1480.292,1397.356,
1477.382,1353.1046,
1474.471,1383.4211,
1471.560,1363.095,
1468.650,1312.4867,
1465.739,1327.415,
1462.829,1340.3786,
1459.918,1351.1148,
1457.008,1360.7192,
1454.097,1326.8611,
1451.186,1348.8022,
1448.276,1415.8843,
1445.365,1367.532,
1442.455,1326.0298,
1439.544,1332.2822,
1436.633,1319.9049,
1433.723,1303.6193,
1430.812,1316.0851,
1427.902,1309.0804,
1424.991,1364.9984,
1422.081,1286.012,
1419.170,1301.2156,
1416.259,1307.1802,
1413.349,1285.0928,
1410.438,1271.452,
1407.528,1295.7872,
1404.617,1280.8065,
1401.707,1248.6212,
1398.796,1277.4562,
1395.885,1308.7617,
1392.975,1306.9798,
1390.064,1331.5126,
1387.154,1307.1601,
1384.243,1267.2354,
1381.332,1337.9673,
1378.422,1346.8322,
1375.511,1329.0334,
1372.601,1423.6717,
1369.690,1400.89,
1366.780,1487.6261,
1363.869,1471.7938,
1360.958,1462.6919,
1358.048,1547.627,
1355.137,1579.0429,
1352.227,1578.7109,
1349.316,1651.4095,
1346.406,1717.7251,
1343.495,1714.4591,
1340.584,1752.7855,
1337.674,1769.8588,
1334.763,1795.8911,
1331.853,1799.6001,
1328.942,1838.8864,
1326.032,1834.7782,
1323.121,1849.7922,
1320.210,1882.3868,
1317.300,1916.9984,
1314.389,1943.0558,
1311.479,1982.1478,
1308.568,2045.3301,
1305.657,2116.0695,
1302.747,2159.777,
1299.836,2111.8607,
1296.926,2224.5784,
1294.015,2328.4619,
1291.105,2356.5246,
1288.194,2434.0331,
1285.283,2510.0302,
1282.373,2571.9842,
1279.462,2610.1223,
1276.552,2626.002,
1273.641,2644.175,
1270.731,2687.45,
1267.820,2707.9517,
1264.909,2608.1678,
1261.999,2628.6793,
1259.088,2708.946,
1256.178,2664.932,
1253.267,2630.6654,
1250.356,2557.0564,
1247.446,2478.8118,
1244.535,2374.3931,
1241.625,2269.4538,
1238.714,2195.2842,
1235.804,2132.818,
1232.893,2108.5158,
1229.982,2035.9527,
1227.072,2012.4146,
1224.161,1951.9147,
1221.251,1907.9916,
1218.340,1911.0019,
1215.430,1890.6727,
1212.519,1868.6555,
1209.608,1861.9537,
1206.698,1852.6012,
1203.787,1861.9208,
1200.877,1838.7589,
1197.966,1887.3135,
1195.055,1907.6682,
1192.145,1967.1008,
1189.234,2038.3022,
1186.324,2068.932,
1183.413,2079.1409,
1180.503,2088.401,
1177.592,2079.0125,
1174.681,2054.3425,
1171.771,2037.1524,
1168.860,2011.2528,
1165.950,1994.2368,
1163.039,1970.4963,
1160.129,1971.7775,
1157.218,1955.1939,
1154.307,1923.8136,
1151.397,1911.9252,
1148.486,1903.7529,
1145.576,1886.6729,
1142.665,1884.8971,
1139.754,1849.764,
1136.844,1848.753,
1133.933,1814.2136,
1131.023,1812.7711,
1128.112,1821.4671,
1125.202,1786.0254,
1122.291,1785.7554,
1119.380,1799.9319,
1116.470,1818.465,
1113.559,1813.0175,
1110.649,1810.0952,
1107.738,1812.4291,
1104.828,1818.4949,
1101.917,1821.9748,
1099.006,1816.6985,
1096.096,1811.965,
1093.185,1815.477,
1090.275,1792.2812,
1087.364,1791.5529,
1084.453,1815.1236,
1081.543,1830.4353,
1078.632,1822.7955,
1075.722,1808.4336,
1072.811,1800.2679,
1069.901,1765.3375,
1066.990,1812.0582,
1064.079,1857.0952,
1061.169,1889.319,
1058.258,1891.3159,
1055.348,1882.511,
1052.437,1901.0458,
1049.527,1913.2871,
1046.616,1927.1883,
1043.705,1964.2052,
1040.795,1977.9425,
1037.884,1975.1984,
1034.974,1979.6881,
1032.063,1992.6039,
1029.153,1988.6581,
1026.242,2012.8769,
1023.331,1992.918,
1020.421,2014.5428,
1017.510,2055.4446,
1014.600,2081.7105,
1011.689,2094.8722,
1008.778,2117.6034,
1005.868,2117.1361,
1002.957,2160.1538,
1000.047,2224.99,
997.136,2310.1812,
994.226,2372.1497,
991.315,2394.6634,
988.404,2382.4825,
985.494,2309.7665,
982.583,2355.164,
979.673,2332.4841,
976.762,2318.2274,
973.852,2335.6405,
970.941,2358.0826,
968.030,2349.7962,
965.120,2338.8359,
962.209,2359.2969,
959.299,2330.1705,
956.388,2337.4687,
953.477,2373.4793,
950.567,2400.4429,
947.656,2392.8506,
944.746,2363.1162,
941.835,2344.7439,
938.925,2366.414,
936.014,2373.1743,
933.103,2357.2165,
930.193,2332.5588,
927.282,2301.9627,
924.372,2268.984,
921.461,2247.0764,
918.551,2204.1512,
915.640,2165.8516,
912.729,2146.2614,
909.819,2134.6371,
906.908,2118.631,
903.998,2133.6573,
901.087,2161.9372,
898.176,2183.8623,
895.266,2198.7806,
892.355,2220.5453,
889.445,2267.5443,
886.534,2271.9244,
883.624,2324.5581,
880.713,2335.9704,
877.802,2308.5069,
874.892,2268.8807,
871.981,2208.6724,
869.071,2078.348,
866.160,2071.6191,
863.250,2154.2352,
860.339,2254.9677,
857.428,2309.1151,
854.518,2292.5705,
851.607,2251.7991,
848.697,2123.0064,
845.786,2085.3948,
842.875,2101.75,
839.965,2116.1193,
837.054,2182.4385,
834.144,2243.7661,
831.233,2247.7506,
828.323,2213.5811,
825.412,2178.2425,
822.501,2165.9201,
819.591,2150.2186,
816.680,2118.4999,
813.770,2099.473,
810.859,2079.664,
807.949,2053.0012,
805.038,2027.3385,
802.127,2048.7398,
799.217,2033.606,
796.306,2021.5067,
793.396,2026.4829,
790.485,2039.6442,
787.574,2031.6254,
784.664,2028.345,
781.753,2022.3821,
778.843,2035.9227,
775.932,2040.0959,
773.022,2019.865,
770.111,2072.1901,
767.200,2103.9186,
764.290,2088.4791,
761.379,2069.1745,
758.469,2058.7979,
755.558,2027.8747,
752.648,1998.549,
749.737,2005.153,
746.826,2006.6216,
743.916,1993.7694,
741.005,1971.6233,
738.095,1935.0888,
735.184,1846.373,
732.274,1793.2918,
729.363,1816.7701,
726.452,1910.7598,
723.542,1982.7958,
720.631,1989.8082,
717.721,2023.4022,
714.810,2044.3239,
711.899,2041.0074,
708.989,2050.6905,
706.078,2017.0953,
703.168,2024.5377,
700.257,2017.422,
697.347,1993.8368,
694.436,1997.1826,
691.525,1976.2837,
688.615,1965.4609,
685.704,1968.2254,
682.794,1973.9415,
679.883,1964.2093,
676.973,1952.1888,
674.062,1946.5596,
671.151,1951.325,
668.241,1965.7062,
665.330,1985.4685,
662.420,2000.6444,
659.509,1996.7658,
656.598,1989.7208,
653.688,1989.6607,
650.777,2001.9939,
647.867,1979.6968,
644.956,1947.5074,
642.046,1906.7033,
639.135,1887.6322,
636.224,1943.7977,
633.314,1953.325,
630.403,1973.4863,
627.493,1994.9678,
624.582,2017.8723,
621.672,2054.304,
618.761,2067.1491,
615.850,2076.2599,
612.940,2079.0423,
610.029,2071.4098,
607.119,2045.3519,
604.208,2081.0907,
601.297,2116.6907,
598.387,2127.2911,
595.476,2102.9329,
592.566,2094.2752,
589.655,2086.919,
586.745,2059.4478,
583.834,2029.7263,
580.923,2036.4372,
578.013,1984.6448,
575.102,1990.8256,
572.192,2019.6841,
569.281,2039.6884,
566.371,2011.5139,
563.460,2029.2086,
560.549,2044.0846,
557.639,2056.927,
554.728,2073.6515,
551.818,2072.0908,
548.907,2103.4395,
545.996,2119.4733,
543.086,2108.8915,
540.175,2090.9826,
537.265,2147.6923,
534.354,2149.6824,
531.444,2132.8152,
528.533,2142.6814,
525.622,2169.8395,
522.712,2193.9526,
519.801,2220.6433,
516.891,2247.7236,
513.980,2262.4352,
511.070,2255.2978,
508.159,2303.3272,
505.248,2360.5011,
502.338,2364.467,
499.427,2423.1262,
496.517,2467.5985,
493.606,2504.5556,
490.695,2534.8198,
487.785,2542.5178,
484.874,2534.7029,
481.964,2539.3014,
479.053,2548.3374,
476.143,2529.9063,
473.232,2454.6514,
470.321,2467.5956,
467.411,2503.8989,
464.500,2481.3318,
461.590,2504.304,
458.679,2504.1465,
455.769,2514.5032,
452.858,2551.7723,
449.947,2580.8017,
447.037,2594.0311,
444.126,2618.3439,
441.216,2645.1356,
438.305,2607.039,
435.395,2618.7966,
432.484,2626.9165,
429.573,2628.0575,
426.663,2637.9394,
423.752,2572.4952,
420.842,2366.0992,
417.931,2144.4075,
415.020,2108.0063,
412.110,2317.4546,
409.199,2508.6863,
406.289,2640.7869,
403.378,2680.5886,
400.468,2632.961,
397.557,2645.5141,
394.646,2680.3691,
391.736,2705.0055,
388.825,2744.2256,
385.915,2740.3164,
383.004,2731.0331,
380.094,2742.2874,
377.183,2752.8221,
374.272,2844.766,
371.362,2924.4592,
368.451,2935.6588,
365.541,2934.1577,
362.630,2938.6662,
359.719,2943.3419,
356.809,2944.8406,
353.898,2946.3382,
350.988,2989.064,
348.077,3020.6843,
345.167,3009.5012,
342.256,2984.848,
339.345,2963.9328,
336.435,2960.3554,
333.524,2981.0119,
330.614,2925.8704,
327.703,2947.2554,
324.793,2985.2967,
321.882,2989.7554,
318.971,2991.9857,
316.061,3029.8619,
313.150,3063.6691,
310.240,3047.3425,
307.329,3078.194,
304.418,3091.6619,
301.508,3085.07,
298.597,3056.1937,
295.687,3090.9982,
292.776,3127.0834,
289.866,3168.9418,
286.955,3245.7693,
284.044,3332.6499,
281.134,3411.9273,
278.223,3484.037,
275.313,3568.0385,
272.402,3575.8746,
269.492,3572.2354,
266.581,3578.0684,
263.670,3554.5426,
260.760,3585.3616,
257.849,3642.3332,
254.939,3706.9149,
252.028,3741.0469,
249.117,3742.7861,
246.207,3746.797,
243.296,3812.6803,
240.386,3789.0594,
237.475,3770.0607,
234.565,3757.4675,
231.654,3704.8799,
228.743,3629.8841,
225.833,3586.7137,
222.922,3595.2744,
220.012,3585.0746,
217.101,3589.6015,
214.191,3580.4837,
211.280,3523.0142,
208.369,3519.4228,
205.459,3518.153,
202.548,3527.7835,
199.638,3597.4458,
196.727,3561.6192,
193.816,3566.5922,
190.906,3663.5722,
187.995,3658.5041,
185.085,3657.2229,
182.174,3661.6677,
179.264,3676.123,
176.353,3689.9248,
173.442,3694.2121,
170.532,3690.9261,
167.621,3701.0198,
164.711,3664.3324,
161.800,3567.0631,
158.890,3386.4115,
155.979,3142.8938,
153.068,2896.7165,
150.158,2632.5313,
147.247,2278.5808,
144.337,1869.0699,
141.426,1467.1224,
138.516,1102.9417,
135.605,792.21094,
132.694,539.45307,
129.784,345.03273,
126.873,228.46657,
123.963,155.80997,
121.052,107.98501,
118.141,80.856734,
115.231,70.802015,
112.320,59.548189,
109.410,47.295605,
106.499,34.476811,
103.589,27.828219,
100.678,24.478378,
97.767,23.767441,
94.857,20.285055,
91.946,19.959333,
89.036,20.169429,
86.125,10.240555,
83.215,11.997363,
80.304,14.073971,
77.393,9.1167816,
74.483,18.577024,
71.572,20.488831,
68.662,14.47293,
65.751,11.647126,
62.840,15.56702,
59.930,18.502566,
57.019,10.041582,
54.109,10.541483,
51.198,12.051609,
48.288,12.7047,
45.377,7.0776759,
42.466,9.2844127,
39.556,15.404644,
36.645,13.298074,
33.735,8.5960123,
30.824,4.970887,
27.914,5.6720622,
25.003,13.22165,
22.092,17.427095,
19.182,16.933063,
16.271,22.528984,
13.361,117.0493,
10.450,283.05205,
7.539,511.40118,
4.629,538.73785,
1.718,398.4204,
-1.192,38.693815,
-4.103,-81.385677,
-7.013,-90.031114,
-9.924,-0.25,
