,PLBB80~1,
Wavenumbers [1/cm],Intensity,
3014.167,0.875,
3011.256,-2.0249785,
3008.346,67.898591,
3005.435,84.030479,
3002.525,83.157438,
2999.614,88.906218,
2996.704,98.113151,
2993.793,110.63652,
2990.882,105.26429,
2987.972,107.95067,
2985.061,129.0819,
2982.151,130.71029,
2979.240,127.65923,
2976.329,134.14548,
2973.419,140.29066,
2970.508,141.82493,
2967.598,127.44849,
2964.687,143.65081,
2961.777,146.15702,
2958.866,144.20784,
2955.955,157.01658,
2953.045,162.60878,
2950.134,161.02368,
2947.224,169.44438,
2944.313,187.07728,
2941.403,168.36268,
2938.492,176.89669,
2935.581,170.67626,
2932.671,187.31275,
2929.760,188.70579,
2926.850,192.29305,
2923.939,193.75349,
2921.028,195.02202,
2918.118,196.1546,
2915.207,191.10916,
2912.297,199.83269,
2909.386,202.85311,
2906.476,216.448,
2903.565,203.3424,
2900.654,201.53426,
2897.744,209.78699,
2894.833,197.10191,
2891.923,194.5513,
2889.012,193.75361,
2886.102,177.64663,
2883.191,163.88538,
2880.280,158.50659,
2877.370,140.47975,
2874.459,92.717508,
2871.549,118.90217,
2868.638,217.69764,
2865.727,191.33261,
2862.817,206.65977,
2859.906,226.4448,
2856.996,222.41349,
2854.085,230.59982,
2851.175,214.48953,
2848.264,207.57133,
2845.353,225.70246,
2842.443,220.27082,
2839.532,218.4422,
2836.622,204.33008,
2833.711,207.4009,
2830.801,227.65883,
2827.890,221.97814,
2824.979,232.92489,
2822.069,236.98872,
2819.158,234.33321,
2816.248,219.10474,
2813.337,239.26647,
2810.427,231.30199,
2807.516,238.14125,
2804.605,221.10096,
2801.695,228.70395,
2798.784,229.94892,
2795.874,223.71931,
2792.963,232.01777,
2790.052,243.872,
2787.142,223.54596,
2784.231,232.32529,
2781.321,241.62356,
2778.410,239.5349,
2775.500,238.04569,
2772.589,236.0669,
2769.678,228.94668,
2766.768,227.875,
2763.857,220.19099,
2760.947,223.88761,
2758.036,252.98344,
2755.126,231.58654,
2752.215,238.875,
2749.304,240.6196,
2746.394,261.21779,
2743.483,237.27503,
2740.573,249.61844,
2737.662,249.42826,
2734.751,256.24866,
2731.841,245.03617,
2728.930,254.52758,
2726.020,247.09433,
2723.109,233.34942,
2720.199,271.38774,
2717.288,254.27647,
2714.377,243.62122,
2711.467,266.0717,
2708.556,271.56637,
2705.646,269.11442,
2702.735,262.22553,
2699.825,269.58224,
2696.914,268.78001,
2694.003,257.05873,
2691.093,265.17826,
2688.182,259.92982,
2685.272,251.51227,
2682.361,264.39247,
2679.450,282.07661,
2676.540,249.52537,
2673.629,272.91092,
2670.719,269.07926,
2667.808,266.36136,
2664.898,287.09582,
2661.987,276.37483,
2659.076,294.31464,
2656.166,278.06974,
2653.255,279.3988,
2650.345,297.02019,
2647.434,297.58892,
2644.524,287.34984,
2641.613,284.64621,
2638.702,290.71719,
2635.792,297.18806,
2632.881,286.52392,
2629.971,294.96233,
2627.060,270.8725,
2624.149,287.20001,
2621.239,303.16502,
2618.328,302.79023,
2615.418,297.55681,
2612.507,300.18327,
2609.597,298.60953,
2606.686,302.53764,
2603.775,305.35913,
2600.865,302.82034,
2597.954,310.39586,
2595.044,303.51805,
2592.133,311.32088,
2589.223,305.74236,
2586.312,319.92523,
2583.401,324.93703,
2580.491,315.2452,
2577.580,307.86345,
2574.670,306.40974,
2571.759,330.23373,
2568.848,317.29478,
2565.938,320.6844,
2563.027,327.2637,
2560.117,322.22082,
2557.206,334.39529,
2554.296,312.10612,
2551.385,326.37904,
2548.474,340.02333,
2545.564,312.88798,
2542.653,337.64346,
2539.743,339.34419,
2536.832,344.14042,
2533.922,327.37962,
2531.011,354.75035,
2528.100,339.07708,
2525.190,347.52418,
2522.279,335.25018,
2519.369,343.17687,
2516.458,347.21069,
2513.548,337.73881,
2510.637,344.67428,
2507.726,355.31366,
2504.816,353.00014,
2501.905,340.07805,
2498.995,336.59163,
2496.084,348.48824,
2493.173,354.29619,
2490.263,344.3134,
2487.352,366.58287,
2484.442,363.29255,
2481.531,372.40159,
2478.621,369.8039,
2475.710,363.90567,
2472.799,370.58797,
2469.889,379.35977,
2466.978,377.71007,
2464.068,375.91732,
2461.157,366.25999,
2458.247,372.99271,
2455.336,379.21551,
2452.425,374.41745,
2449.515,380.94154,
2446.604,401.11234,
2443.694,397.29358,
2440.783,399.30405,
2437.872,372.75016,
2434.962,395.875,
2432.051,392.46136,
2429.141,394.56904,
2426.230,401.54904,
2423.320,411.8324,
2420.409,403.90058,
2417.498,401.0969,
2414.588,408.95479,
2411.677,398.3053,
2408.767,413.16338,
2405.856,418.65359,
2402.946,415.92862,
2400.035,404.28814,
2397.124,415.57017,
2394.214,427.46741,
2391.303,405.73137,
2388.393,415.0727,
2385.482,403.57999,
2382.571,415.90062,
2379.661,408.4796,
2376.750,419.24196,
2373.840,428.58123,
2370.929,434.82085,
2368.019,446.4532,
2365.108,440.96924,
2362.197,432.45858,
2359.287,454.03489,
2356.376,446.89613,
2353.466,445.14904,
2350.555,436.14537,
2347.645,461.93989,
2344.734,456.26668,
2341.823,457.79208,
2338.913,459.63171,
2336.002,453.875,
2333.092,468.51842,
2330.181,474.59368,
2327.270,478.54497,
2324.360,477.81603,
2321.449,480.6437,
2318.539,480.51416,
2315.628,475.71592,
2312.718,466.4587,
2309.807,497.64536,
2306.896,483.39457,
2303.986,491.31007,
2301.075,486.93885,
2298.165,474.2979,
2295.254,469.91809,
2292.344,516.62202,
2289.433,488.28819,
2286.522,502.20095,
2283.612,494.4949,
2280.701,499.93328,
2277.791,488.75665,
2274.880,516.72287,
2271.969,529.88323,
2269.059,514.2265,
2266.148,532.19553,
2263.238,522.58158,
2260.327,510.7027,
2257.417,526.38222,
2254.506,540.06588,
2251.595,534.30775,
2248.685,530.875,
2245.774,527.27067,
2242.864,521.81016,
2239.953,523.15082,
2237.043,537.10928,
2234.132,548.52694,
2231.221,547.74321,
2228.311,553.83375,
2225.400,536.63492,
2222.490,559.53291,
2219.579,553.0807,
2216.669,571.86069,
2213.758,574.875,
2210.847,566.00851,
2207.937,584.97921,
2205.026,573.20824,
2202.116,578.49708,
2199.205,582.9877,
2196.294,598.54494,
2193.384,593.27047,
2190.473,608.89848,
2187.563,632.7735,
2184.652,617.14642,
2181.742,638.30576,
2178.831,621.83222,
2175.920,653.6874,
2173.010,667.7996,
2170.099,709.20339,
2167.189,751.86065,
2164.278,753.10314,
2161.368,784.15923,
2158.457,823.77117,
2155.546,850.45003,
2152.636,868.84307,
2149.725,909.32463,
2146.815,956.50687,
2143.904,993.1724,
2140.993,996.65266,
2138.083,1022.3097,
2135.172,1024.2616,
2132.262,1042.882,
2129.351,1020.9542,
2126.441,986.37006,
2123.530,978.68419,
2120.619,953.06803,
2117.709,889.437,
2114.798,853.05563,
2111.888,816.47572,
2108.977,772.90147,
2106.067,757.63338,
2103.156,713.00341,
2100.245,719.8681,
2097.335,701.28863,
2094.424,647.7898,
2091.514,657.09277,
2088.603,649.58473,
2085.692,657.92691,
2082.782,661.15219,
2079.871,659.16088,
2076.961,654.26247,
2074.050,638.23258,
2071.140,661.33505,
2068.229,646.41275,
2065.318,662.76451,
2062.408,650.73054,
2059.497,639.50002,
2056.587,654.25862,
2053.676,654.42515,
2050.766,675.10445,
2047.855,623.30219,
2044.944,636.67789,
2042.034,629.34899,
2039.123,635.29587,
2036.213,638.12609,
2033.302,640.11399,
2030.391,649.80715,
2027.481,633.7654,
2024.570,649.78871,
2021.660,647.2889,
2018.749,641.48285,
2015.839,655.52985,
2012.928,645.4958,
2010.017,639.90106,
2007.107,646.66754,
2004.196,655.80356,
2001.286,655.29196,
1998.375,658.26673,
1995.465,665.16786,
1992.554,623.05185,
1989.643,646.80352,
1986.733,608.1057,
1983.822,628.46437,
1980.912,618.50855,
1978.001,621.08651,
1975.090,638.86737,
1972.180,644.28856,
1969.269,641.21406,
1966.359,632.98306,
1963.448,651.32943,
1960.538,641.02179,
1957.627,636.875,
1954.716,637.84627,
1951.806,660.12339,
1948.895,660.79409,
1945.985,635.32598,
1943.074,641.2293,
1940.164,628.31723,
1937.253,632.63564,
1934.342,628.21672,
1931.432,605.83399,
1928.521,614.56412,
1925.611,620.875,
1922.700,597.13191,
1919.790,633.9381,
1916.879,624.13049,
1913.968,635.85902,
1911.058,655.35547,
1908.147,632.54652,
1905.237,615.53671,
1902.326,591.36831,
1899.415,614.59451,
1896.505,601.60986,
1893.594,586.42376,
1890.684,608.78984,
1887.773,627.21143,
1884.863,611.3078,
1881.952,619.82486,
1879.041,658.40408,
1876.131,636.29985,
1873.220,632.36174,
1870.310,629.162,
1867.399,651.50715,
1864.489,650.99183,
1861.578,652.00701,
1858.667,632.70136,
1855.757,634.84278,
1852.846,664.59297,
1849.936,654.03715,
1847.025,685.57571,
1844.114,685.53845,
1841.204,649.9729,
1838.293,649.37417,
1835.383,647.689,
1832.472,671.96891,
1829.562,657.93489,
1826.651,659.70454,
1823.740,700.17774,
1820.830,677.92194,
1817.919,694.74942,
1815.009,681.18162,
1812.098,668.89863,
1809.188,714.77412,
1806.277,702.22911,
1803.366,681.55709,
1800.456,719.40193,
1797.545,678.90327,
1794.635,700.16502,
1791.724,703.09838,
1788.813,676.07783,
1785.903,683.93702,
1782.992,681.67977,
1780.082,682.36869,
1777.171,669.87018,
1774.261,649.31995,
1771.350,658.72626,
1768.439,664.9793,
1765.529,679.88159,
1762.618,726.22313,
1759.708,730.875,
1756.797,728.18561,
1753.887,768.18549,
1750.976,781.41624,
1748.065,766.03168,
1745.155,783.39745,
1742.244,775.33518,
1739.334,745.33383,
1736.423,735.875,
1733.512,759.88726,
1730.602,740.45036,
1727.691,766.95505,
1724.781,770.79581,
1721.870,793.018,
1718.960,797.23054,
1716.049,778.41756,
1713.138,789.40993,
1710.228,815.37302,
1707.317,867.52643,
1704.407,812.78399,
1701.496,805.875,
1698.586,792.01523,
1695.675,811.46059,
1692.764,870.62503,
1689.854,817.43009,
1686.943,815.84127,
1684.033,894.86326,
1681.122,829.04748,
1678.211,887.30396,
1675.301,854.97675,
1672.390,940.67163,
1669.480,873.30819,
1666.569,927.20509,
1663.659,952.72801,
1660.748,945.05119,
1657.837,1005.4217,
1654.927,1029.8281,
1652.016,1027.632,
1649.106,1018.1198,
1646.195,1026.4364,
1643.285,969.4017,
1640.374,1036.1712,
1637.463,1097.5596,
1634.553,1135.4218,
1631.642,1172.0922,
1628.732,1192.349,
1625.821,1271.9319,
1622.911,1358.3847,
1620.000,1392.4466,
1617.089,1502.6461,
1614.179,1587.4779,
1611.268,1685.1944,
1608.358,1742.2529,
1605.447,1825.9614,
1602.536,1865.3548,
1599.626,1854.9959,
1596.715,1881.103,
1593.805,1836.4754,
1590.894,1788.6028,
1587.984,1799.3307,
1585.073,1766.9915,
1582.162,1725.8098,
1579.252,1692.6894,
1576.341,1706.1005,
1573.431,1705.3928,
1570.520,1708.4613,
1567.610,1673.3646,
1564.699,1673.9255,
1561.788,1626.0586,
1558.878,1620.2613,
1555.967,1600.7877,
1553.057,1561.358,
1550.146,1529.6678,
1547.235,1513.5621,
1544.325,1498.5644,
1541.414,1453.6912,
1538.504,1448.5651,
1535.593,1441.7125,
1532.683,1401.9841,
1529.772,1377.919,
1526.861,1337.5632,
1523.951,1324.1565,
1521.040,1344.3939,
1518.130,1322.3463,
1515.219,1283.716,
1512.309,1267.2174,
1509.398,1307.4151,
1506.487,1265.4969,
1503.577,1280.1116,
1500.666,1266.5173,
1497.756,1238.7308,
1494.845,1225.9156,
1491.934,1250.8152,
1489.024,1232.5278,
1486.113,1207.7674,
1483.203,1153.4731,
1480.292,1153.6631,
1477.382,1111.2296,
1474.471,1176.0781,
1471.560,1142.273,
1468.650,1141.3732,
1465.739,1130.3793,
1462.829,1108.1323,
1459.918,1097.0076,
1457.008,1081.6902,
1454.097,1083.2776,
1451.186,1113.846,
1448.276,1104.9885,
1445.365,1081.5227,
1442.455,1134.9552,
1439.544,1120.0803,
1436.633,1108.6317,
1433.723,1085.6197,
1430.812,1098.3922,
1427.902,1105.7544,
1424.991,1142.7172,
1422.081,1064.972,
1419.170,1048.3703,
1416.259,1055.7857,
1413.349,1053.3436,
1410.438,1025.9832,
1407.528,1069.593,
1404.617,1050.5562,
1401.707,1056.6804,
1398.796,1085.3226,
1395.885,1054.1386,
1392.975,1040.6466,
1390.064,1063.9856,
1387.154,1054.6986,
1384.243,1105.5639,
1381.332,1080.5591,
1378.422,1047.0343,
1375.511,1069.5171,
1372.601,1192.4439,
1369.690,1131.7255,
1366.780,1218.0874,
1363.869,1205.3717,
1360.958,1263.4988,
1358.048,1320.4543,
1355.137,1329.6695,
1352.227,1349.2085,
1349.316,1402.1489,
1346.406,1432.615,
1343.495,1433.0545,
1340.584,1491.9109,
1337.674,1485.4478,
1334.763,1509.4508,
1331.853,1577.1387,
1328.942,1560.3068,
1326.032,1532.5908,
1323.121,1559.4774,
1320.210,1620.1531,
1317.300,1634.2508,
1314.389,1670.5564,
1311.479,1732.8457,
1308.568,1769.5732,
1305.657,1800.08,
1302.747,1827.8093,
1299.836,1815.1773,
1296.926,1900.0624,
1294.015,1990.1562,
1291.105,2020.2913,
1288.194,2067.8059,
1285.283,2121.8352,
1282.373,2161.0234,
1279.462,2204.0705,
1276.552,2264.6468,
1273.641,2301.3197,
1270.731,2304.1661,
1267.820,2325.9667,
1264.909,2310.5229,
1261.999,2280.1732,
1259.088,2315.7459,
1256.178,2304.1717,
1253.267,2239.7322,
1250.356,2178.208,
1247.446,2119.151,
1244.535,2064.1251,
1241.625,2006.8084,
1238.714,1948.6183,
1235.804,1917.4963,
1232.893,1907.7795,
1229.982,1775.0709,
1227.072,1810.3781,
1224.161,1817.0775,
1221.251,1756.8252,
1218.340,1718.3841,
1215.430,1726.4921,
1212.519,1725.4812,
1209.608,1701.9137,
1206.698,1696.7049,
1203.787,1704.6036,
1200.877,1688.881,
1197.966,1721.2507,
1195.055,1766.3907,
1192.145,1813.6962,
1189.234,1896.2958,
1186.324,1932.784,
1183.413,1926.1339,
1180.503,1920.224,
1177.592,1915.4405,
1174.681,1887.0736,
1171.771,1859.7005,
1168.860,1808.7944,
1165.950,1833.7077,
1163.039,1849.9542,
1160.129,1847.3866,
1157.218,1819.3189,
1154.307,1786.4545,
1151.397,1773.6143,
1148.486,1763.2842,
1145.576,1711.0337,
1142.665,1760.7568,
1139.754,1757.5523,
1136.844,1718.7589,
1133.933,1708.7401,
1131.023,1692.5749,
1128.112,1690.2292,
1125.202,1714.3147,
1122.291,1676.8804,
1119.380,1691.2388,
1116.470,1728.305,
1113.559,1734.4215,
1110.649,1721.7781,
1107.738,1716.4825,
1104.828,1712.8818,
1101.917,1711.4965,
1099.006,1724.3492,
1096.096,1722.1438,
1093.185,1726.5338,
1090.275,1727.6843,
1087.364,1749.8309,
1084.453,1764.3747,
1081.543,1766.1221,
1078.632,1752.9062,
1075.722,1732.072,
1072.811,1743.9514,
1069.901,1716.8803,
1066.990,1743.1666,
1064.079,1783.2202,
1061.169,1816.5486,
1058.258,1825.7932,
1055.348,1832.985,
1052.437,1864.0872,
1049.527,1849.7407,
1046.616,1846.2654,
1043.705,1861.2903,
1040.795,1893.9692,
1037.884,1904.3119,
1034.974,1916.0064,
1032.063,1939.629,
1029.153,1921.3171,
1026.242,1908.3427,
1023.331,1911.2081,
1020.421,1911.1779,
1017.510,1936.6477,
1014.600,1950.954,
1011.689,1959.124,
1008.778,2003.8335,
1005.868,2027.0449,
1002.957,2045.9727,
1000.047,2096.923,
997.136,2183.0048,
994.226,2230.875,
991.315,2227.2215,
988.404,2211.417,
985.494,2172.7216,
982.583,2165.8691,
979.673,2150.2421,
976.762,2167.1849,
973.852,2193.0412,
970.941,2193.7234,
968.030,2169.3837,
965.120,2194.8643,
962.209,2192.3066,
959.299,2157.879,
956.388,2172.9931,
953.477,2205.3286,
950.567,2214.9536,
947.656,2207.8858,
944.746,2238.4698,
941.835,2263.3596,
938.925,2235.9725,
936.014,2221.4041,
933.103,2218.5786,
930.193,2200.0857,
927.282,2163.0877,
924.372,2130.109,
921.461,2126.6114,
918.551,2093.1809,
915.640,2077.7988,
912.729,2077.799,
909.819,2048.9896,
906.908,2080.1593,
903.998,2056.4233,
901.087,2058.7861,
898.176,2083.9172,
895.266,2113.4926,
892.355,2134.7439,
889.445,2160.7611,
886.534,2194.2699,
883.624,2225.7698,
880.713,2232.7714,
877.802,2214.6741,
874.892,2186.5658,
871.981,2169.3104,
869.071,2060.7067,
866.160,2054.9842,
863.250,2101.2386,
860.339,2158.2795,
857.428,2191.8141,
854.518,2178.875,
851.607,2178.875,
848.697,2136.2303,
845.786,2108.5715,
842.875,2080.6012,
839.965,2061.1959,
837.054,2145.2285,
834.144,2176.7211,
831.233,2171.5425,
828.323,2154.4998,
825.412,2137.0797,
822.501,2125.4708,
819.591,2128.7764,
816.680,2117.657,
813.770,2050.3452,
810.859,2024.5097,
807.949,2035.4652,
805.038,2024.771,
802.127,2032.1792,
799.217,1982.1884,
796.306,2004.605,
793.396,2017.3557,
790.485,1996.1924,
787.574,2018.972,
784.664,1995.1888,
781.753,2026.4372,
778.843,2039.4643,
775.932,2029.6282,
773.022,2020.411,
770.111,2036.7625,
767.200,2073.6567,
764.290,2072.7396,
761.379,2060.3302,
758.469,2050.2711,
755.558,2033.1424,
752.648,2042.1031,
749.737,2028.8608,
746.826,2012.9492,
743.916,1990.4722,
741.005,1950.5561,
738.095,1903.4673,
735.184,1881.4286,
732.274,1833.3291,
729.363,1843.2835,
726.452,1945.6457,
723.542,1994.2093,
720.631,1983.8778,
717.721,1985.6035,
714.810,2002.4374,
711.899,2031.5285,
708.989,2068.647,
706.078,2057.6568,
703.168,2029.3717,
700.257,2008.3367,
697.347,1990.3545,
694.436,1949.5733,
691.525,1975.2951,
688.615,1984.0196,
685.704,1981.5581,
682.794,1981.96,
679.883,2000.7937,
676.973,1976.7526,
674.062,2014.6265,
671.151,2036.6833,
668.241,2039.593,
665.330,2055.9842,
662.420,2016.0476,
659.509,2002.7956,
656.598,1997.2785,
653.688,2010.8982,
650.777,2066.3089,
647.867,2020.1218,
644.956,1981.3941,
642.046,1948.1203,
639.135,1943.4822,
636.224,2009.8352,
633.314,2001.8958,
630.403,2025.2971,
627.493,2034.8094,
624.582,2026.2893,
621.672,2046.0891,
618.761,2032.4362,
615.850,2060.3833,
612.940,2093.3642,
610.029,2105.3489,
607.119,2102.1904,
604.208,2124.5954,
601.297,2119.418,
598.387,2110.0344,
595.476,2124.8063,
592.566,2145.27,
589.655,2115.8326,
586.745,2092.6674,
583.834,2079.7266,
580.923,2057.8608,
578.013,2055.5066,
575.102,2062.9052,
572.192,2092.0985,
569.281,2123.8924,
566.371,2068.3261,
563.460,2098.8539,
560.549,2110.9513,
557.639,2110.2921,
554.728,2116.6286,
551.818,2112.7271,
548.907,2128.9386,
545.996,2125.4898,
543.086,2116.9671,
540.175,2182.3733,
537.265,2157.1795,
534.354,2135.3395,
531.444,2121.8098,
528.533,2117.1308,
525.622,2162.9116,
522.712,2191.0776,
519.801,2198.6743,
516.891,2194.0661,
513.980,2204.9062,
511.070,2249.5445,
508.159,2278.859,
505.248,2294.8808,
502.338,2308.9761,
499.427,2380.7564,
496.517,2407.7942,
493.606,2417.5764,
490.695,2431.2941,
487.785,2477.4815,
484.874,2455.7949,
481.964,2434.8917,
479.053,2434.8616,
476.143,2464.0442,
473.232,2410.4809,
470.321,2394.2273,
467.411,2382.6533,
464.500,2334.338,
461.590,2431.587,
458.679,2439.0644,
455.769,2418.149,
452.858,2414.4764,
449.947,2477.8827,
447.037,2475.706,
444.126,2488.4265,
441.216,2528.5947,
438.305,2538.4999,
435.395,2555.6103,
432.484,2556.3735,
429.573,2546.585,
426.663,2549.6256,
423.752,2514.3066,
420.842,2386.5302,
417.931,2252.0131,
415.020,2248.9797,
412.110,2361.5434,
409.199,2458.1317,
406.289,2532.6016,
403.378,2583.8852,
400.468,2586.9092,
397.557,2591.474,
394.646,2580.869,
391.736,2545.0963,
388.825,2614.4856,
385.915,2644.9867,
383.004,2647.022,
380.094,2631.4873,
377.183,2663.0913,
374.272,2689.244,
371.362,2720.063,
368.451,2758.1911,
365.541,2746.9331,
362.630,2778.8344,
359.719,2816.1621,
356.809,2834.0173,
353.898,2803.3166,
350.988,2804.6398,
348.077,2805.3244,
345.167,2787.4048,
342.256,2797.8637,
339.345,2816.818,
336.435,2826.4335,
333.524,2814.4757,
330.614,2801.8081,
327.703,2796.8482,
324.793,2805.4133,
321.882,2832.8822,
318.971,2835.856,
316.061,2859.3374,
313.150,2877.7941,
310.240,2861.4675,
307.329,2881.5995,
304.418,2910.3929,
301.508,2924.2411,
298.597,2884.2586,
295.687,2894.4198,
292.776,2925.4585,
289.866,2964.7014,
286.955,2987.6019,
284.044,3052.2274,
281.134,3108.2408,
278.223,3154.4076,
275.313,3233.2511,
272.402,3266.1403,
269.492,3276.6076,
266.581,3273.9801,
263.670,3275.4505,
260.760,3307.7404,
257.849,3338.6714,
254.939,3343.8086,
252.028,3374.2765,
249.117,3397.7525,
246.207,3415.6632,
243.296,3430.304,
240.386,3382.9006,
237.475,3347.2703,
234.565,3339.5823,
231.654,3388.518,
228.743,3325.2279,
225.833,3272.3995,
222.922,3274.7199,
220.012,3249.949,
217.101,3227.6442,
214.191,3198.2315,
211.280,3149.4915,
208.369,3135.11,
205.459,3128.278,
202.548,3144.4266,
199.638,3251.8227,
196.727,3215.101,
193.816,3199.8701,
190.906,3260.9388,
187.995,3148.715,
185.085,3177.9662,
182.174,3259.3597,
179.264,3279.5972,
176.353,3242.7875,
173.442,3221.9627,
170.532,3224.127,
167.621,3226.2899,
164.711,3182.7273,
161.800,3080.9423,
158.890,2899.571,
155.979,2666.9742,
153.068,2470.6418,
150.158,2283.6496,
147.247,1994.3148,
144.337,1625.4039,
141.426,1259.3646,
138.516,934.61286,
135.605,670.35219,
132.694,462.85461,
129.784,304.99395,
126.873,192.71857,
123.963,129.47102,
121.052,85.560407,
118.141,52.007013,
115.231,51.16443,
112.320,47.485913,
109.410,41.375092,
106.499,33.541385,
103.589,25.712201,
100.678,20.875,
97.767,20.875,
94.857,15.331088,
91.946,12.875,
89.036,12.536306,
86.125,10.40869,
83.215,8.2822389,
80.304,6.6355673,
77.393,5.9273974,
74.483,16.357159,
71.572,18.613831,
68.662,12.182325,
65.751,5.1178142,
62.840,11.063934,
59.930,16.878421,
57.019,5.5971091,
54.109,9.2494476,
51.198,12.271781,
48.288,10.818376,
45.377,3.7845949,
42.466,1.6994387,
39.556,3.1052372,
36.645,4.5096176,
33.735,7.9904908,
30.824,8.4452433,
27.914,0.7323156,
25.003,6.7240122,
22.092,12.812427,
19.182,17.172477,
16.271,26.265849,
13.361,124.70304,
10.450,294.17705,
7.539,522.52618,
4.629,595.81577,
1.718,478.44659,
-1.192,53.188424,
-4.103,-70.399322,
-7.013,-79.858405,
-9.924,0.875,
