,PL6EEA~1,
Wavenumbers [1/cm],Intensity,
3014.167,-1.875,
3011.256,-1.0249248,
3008.346,59.855361,
3005.435,75.280479,
3002.525,68.067394,
2999.614,66.205563,
2996.704,88.717785,
2993.793,83.88652,
2990.882,89.247062,
2987.972,86.130045,
2985.061,100.42551,
2982.151,105.67625,
2979.240,93.794218,
2976.329,91.395476,
2973.419,102.3096,
2970.508,108.05831,
2967.598,112.73906,
2964.687,96.109374,
2961.777,117.18492,
2958.866,116.79365,
2955.955,113.36615,
2953.045,122.06014,
2950.134,129.66726,
2947.224,132.06806,
2944.313,133.72044,
2941.403,141.60128,
2938.492,150.97595,
2935.581,146.01212,
2932.671,159.31807,
2929.760,139.62887,
2926.850,139.85658,
2923.939,153.08764,
2921.028,158.76632,
2918.118,162.54187,
2915.207,154.78345,
2912.297,172.10384,
2909.386,170.92062,
2906.476,165.09411,
2903.565,169.22129,
2900.654,168.56081,
2897.744,162.96156,
2894.833,147.65082,
2891.923,168.45201,
2889.012,147.11922,
2886.102,154.64798,
2883.191,147.125,
2880.280,166.61783,
2877.370,189.25286,
2874.459,200.38256,
2871.549,155.21717,
2868.638,220.22186,
2865.727,182.50186,
2862.817,191.90977,
2859.906,175.35292,
2856.996,184.59103,
2854.085,177.16069,
2851.175,174.33886,
2848.264,188.17916,
2845.353,185.29754,
2842.443,189.13196,
2839.532,173.03551,
2836.622,168.06315,
2833.711,169.48765,
2830.801,166.23309,
2827.890,171.00265,
2824.979,180.27303,
2822.069,188.28421,
2819.158,196.42419,
2816.248,178.90684,
2813.337,192.35183,
2810.427,196.03684,
2807.516,188.02438,
2804.605,194.8774,
2801.695,190.65133,
2798.784,194.125,
2795.874,174.40996,
2792.963,177.69649,
2790.052,188.12307,
2787.142,177.79596,
2784.231,173.80201,
2781.321,182.7536,
2778.410,187.14531,
2775.500,180.125,
2772.589,186.39487,
2769.678,193.34003,
2766.768,186.87839,
2763.857,183.17702,
2760.947,177.1187,
2758.036,188.83208,
2755.126,179.06945,
2752.215,184.17026,
2749.304,184.95412,
2746.394,203.85485,
2743.483,202.97498,
2740.573,201.68914,
2737.662,195.25221,
2734.751,207.24149,
2731.841,202.77335,
2728.930,194.10386,
2726.020,189.34954,
2723.109,195.55792,
2720.199,198.84996,
2717.288,209.47537,
2714.377,190.48368,
2711.467,205.28874,
2708.556,215.68879,
2705.646,220.50529,
2702.735,206.80026,
2699.825,209.74498,
2696.914,220.31593,
2694.003,204.73964,
2691.093,198.5534,
2688.182,197.94352,
2685.272,207.32842,
2682.361,204.82478,
2679.450,208.75465,
2676.540,189.53148,
2673.629,205.80663,
2670.719,210.0446,
2667.808,204.70863,
2664.898,221.60555,
2661.987,225.79178,
2659.076,231.87069,
2656.166,226.46271,
2653.255,215.08759,
2650.345,231.02155,
2647.434,230.81005,
2644.524,211.5303,
2641.613,217.38207,
2638.702,227.93563,
2635.792,233.1569,
2632.881,235.63083,
2629.971,245.48744,
2627.060,213.29032,
2624.149,220.90938,
2621.239,232.15464,
2618.328,255.48919,
2615.418,234.48863,
2612.507,232.91547,
2609.597,242.84955,
2606.686,248.1511,
2603.775,241.24405,
2600.865,241.94754,
2597.954,229.31666,
2595.044,239.07186,
2592.133,253.57088,
2589.223,235.51025,
2586.312,256.7833,
2583.401,250.63593,
2580.491,258.91823,
2577.580,254.13325,
2574.670,256.63436,
2571.759,256.18065,
2568.848,242.1912,
2565.938,250.74393,
2563.027,258.80686,
2560.117,249.30258,
2557.206,258.35747,
2554.296,243.27374,
2551.385,264.62096,
2548.474,265.75474,
2545.564,261.34659,
2542.653,258.97735,
2539.743,266.60652,
2536.832,265.85958,
2533.922,255.67692,
2531.011,284.07551,
2528.100,267.5919,
2525.190,263.17213,
2522.279,274.125,
2519.369,275.03061,
2516.458,288.79993,
2513.548,276.27985,
2510.637,277.81759,
2507.726,271.25139,
2504.816,269.93785,
2501.905,264.82073,
2498.995,292.46809,
2496.084,280.89851,
2493.173,297.46772,
2490.263,294.77695,
2487.352,283.2502,
2484.442,285.55541,
2481.531,283.59841,
2478.621,273.14392,
2475.710,305.99465,
2472.799,287.6452,
2469.889,284.5793,
2466.978,296.228,
2464.068,301.08268,
2461.157,300.35502,
2458.247,294.56615,
2455.336,283.2111,
2452.425,300.52125,
2449.515,314.00234,
2446.604,309.95221,
2443.694,309.93916,
2440.783,318.98311,
2437.872,296.07309,
2434.962,315.08353,
2432.051,306.90294,
2429.141,321.10729,
2426.230,320.32057,
2423.320,310.18226,
2420.409,311.55436,
2417.498,329.30478,
2414.588,334.125,
2411.677,317.01743,
2408.767,318.17224,
2405.856,338.56781,
2402.946,337.8569,
2400.035,322.33626,
2397.124,327.45121,
2394.214,319.2054,
2391.303,312.05318,
2388.393,337.99948,
2385.482,332.78593,
2382.571,315.78313,
2379.661,325.07838,
2376.750,334.54619,
2373.840,340.39997,
2370.929,345.09251,
2368.019,338.77587,
2365.108,340.63547,
2362.197,352.72226,
2359.287,362.70495,
2356.376,349.15318,
2353.466,365.20213,
2350.555,347.49509,
2347.645,361.18989,
2344.734,374.42916,
2341.823,352.523,
2338.913,359.41455,
2336.002,358.34986,
2333.092,368.32029,
2330.181,370.86158,
2327.270,377.68496,
2324.360,374.10851,
2321.449,362.09439,
2318.539,365.65711,
2315.628,367.82244,
2312.718,380.49065,
2309.807,374.37355,
2306.896,367.40043,
2303.986,377.99514,
2301.075,369.86971,
2298.165,371.30783,
2295.254,386.8234,
2292.344,394.22871,
2289.433,396.43,
2286.522,383.47772,
2283.612,395.3763,
2280.701,390.14296,
2277.791,386.7662,
2274.880,405.76293,
2271.969,420.67233,
2269.059,419.21491,
2266.148,419.77275,
2263.238,403.13274,
2260.327,411.26295,
2257.417,416.20889,
2254.506,424.50676,
2251.595,418.69957,
2248.685,422.75382,
2245.774,410.70767,
2242.864,419.69859,
2239.953,402.31115,
2237.043,418.57999,
2234.132,424.37177,
2231.221,427.09918,
2228.311,418.68687,
2225.400,410.77234,
2222.490,432.01097,
2219.579,428.15071,
2216.669,433.60831,
2213.758,431.90669,
2210.847,450.88819,
2207.937,462.83997,
2205.026,453.79176,
2202.116,450.60058,
2199.205,445.00029,
2196.294,452.05096,
2193.384,467.09851,
2190.473,488.00059,
2187.563,466.36668,
2184.652,512.3597,
2181.742,491.125,
2178.831,506.07448,
2175.920,530.3709,
2173.010,545.72591,
2170.099,547.5253,
2167.189,582.1824,
2164.278,593.35314,
2161.368,625.83763,
2158.457,655.04148,
2155.546,666.62407,
2152.636,719.44936,
2149.725,732.79614,
2146.815,762.09056,
2143.904,813.21795,
2140.993,799.61702,
2138.083,809.3013,
2135.172,820.00744,
2132.262,837.88028,
2129.351,832.57323,
2126.441,800.96957,
2123.530,766.8444,
2120.619,738.27195,
2117.709,713.59762,
2114.798,696.58636,
2111.888,648.03856,
2108.977,604.78062,
2106.067,587.05798,
2103.156,552.5711,
2100.245,558.13127,
2097.335,565.35537,
2094.424,536.26907,
2091.514,505.62229,
2088.603,503.49826,
2085.692,514.99112,
2082.782,506.98854,
2079.871,506.87529,
2076.961,513.73753,
2074.050,490.04621,
2071.140,510.69951,
2068.229,520.31511,
2065.318,507.44575,
2062.408,502.63256,
2059.497,513.54764,
2056.587,494.88124,
2053.676,506.17365,
2050.766,496.35669,
2047.855,479.35283,
2044.944,485.12981,
2042.034,476.62795,
2039.123,499.62668,
2036.213,499.32048,
2033.302,484.10317,
2030.391,505.87031,
2027.481,502.47878,
2024.570,514.13886,
2021.660,495.48497,
2018.749,506.42892,
2015.839,508.6099,
2012.928,473.35487,
2010.017,482.24118,
2007.107,492.84461,
2004.196,497.94648,
2001.286,503.26989,
1998.375,502.3002,
1995.465,483.67322,
1992.554,474.61915,
1989.643,493.43373,
1986.733,476.28553,
1983.822,480.11244,
1980.912,478.3818,
1978.001,456.82816,
1975.090,463.93721,
1972.180,468.77924,
1969.269,483.08766,
1966.359,473.15186,
1963.448,484.38789,
1960.538,452.17254,
1957.627,498.40678,
1954.716,508.03882,
1951.806,502.62822,
1948.895,488.91656,
1945.985,465.23121,
1943.074,477.27273,
1940.164,447.51902,
1937.253,446.05075,
1934.342,471.6635,
1931.432,453.03351,
1928.521,454.95747,
1925.611,465.84577,
1922.700,437.63329,
1919.790,467.15926,
1916.879,474.9855,
1913.968,458.1459,
1911.058,450.7196,
1908.147,454.47532,
1905.237,427.50002,
1902.326,445.34425,
1899.415,460.07744,
1896.505,452.02845,
1893.594,411.9542,
1890.684,426.78489,
1887.773,465.168,
1884.863,463.66031,
1881.952,466.00745,
1879.041,478.71586,
1876.131,468.28056,
1873.220,438.97445,
1870.310,462.97248,
1867.399,473.98106,
1864.489,469.16394,
1861.578,471.05899,
1858.667,481.00523,
1855.757,482.73717,
1852.846,467.86859,
1849.936,469.86874,
1847.025,499.35369,
1844.114,509.40964,
1841.204,483.73339,
1838.293,477.64246,
1835.383,464.939,
1832.472,488.03283,
1829.562,494.90416,
1826.651,493.22766,
1823.740,499.49282,
1820.830,505.75496,
1817.919,495.72373,
1815.009,537.64916,
1812.098,498.44786,
1809.188,542.83806,
1806.277,523.63403,
1803.366,523.24145,
1800.456,529.02586,
1797.545,512.42985,
1794.635,534.73799,
1791.724,526.84352,
1788.813,503.52937,
1785.903,512.9041,
1782.992,506.6362,
1780.082,527.72752,
1777.171,531.45958,
1774.261,517.87463,
1771.350,490.47825,
1768.439,494.99704,
1765.529,511.2195,
1762.618,533.64187,
1759.708,548.96212,
1756.797,546.375,
1753.887,553.12646,
1750.976,565.99738,
1748.065,547.76402,
1745.155,536.20888,
1742.244,547.7056,
1739.334,540.43089,
1736.423,528.47267,
1733.512,536.31202,
1730.602,543.11707,
1727.691,567.92248,
1724.781,595.57599,
1721.870,593.07733,
1718.960,591.125,
1716.049,574.34551,
1713.138,562.57504,
1710.228,580.27153,
1707.317,608.77757,
1704.407,588.76667,
1701.496,625.32156,
1698.586,599.5575,
1695.675,617.71059,
1692.764,656.04715,
1689.854,616.03049,
1686.943,618.95637,
1684.033,653.25573,
1681.122,632.49883,
1678.211,649.95369,
1675.301,645.14042,
1672.390,676.07416,
1669.480,659.30148,
1666.569,681.35353,
1663.659,699.58231,
1660.748,727.39494,
1657.837,741.60613,
1654.927,762.3987,
1652.016,732.70818,
1649.106,756.66358,
1646.195,777.83728,
1643.285,766.67188,
1640.374,791.10757,
1637.463,837.10699,
1634.553,837.35156,
1631.642,919.51588,
1628.732,954.88798,
1625.821,915.16818,
1622.911,980.75308,
1620.000,1044.3187,
1617.089,1148.0354,
1614.179,1234.6715,
1611.268,1343.0354,
1608.358,1372.8608,
1605.447,1406.1824,
1602.536,1400.6699,
1599.626,1419.4436,
1596.715,1421.125,
1593.805,1417.5477,
1590.894,1387.1822,
1587.984,1400.4468,
1585.073,1337.6121,
1582.162,1371.2088,
1579.252,1331.0269,
1576.341,1319.3239,
1573.431,1290.1476,
1570.520,1336.3958,
1567.610,1297.2418,
1564.699,1275.2249,
1561.788,1256.5195,
1558.878,1254.5871,
1555.967,1246.5544,
1553.057,1209.2288,
1550.146,1167.7723,
1547.235,1144.2701,
1544.325,1116.0693,
1541.414,1106.6858,
1538.504,1088.4625,
1535.593,1092.3922,
1532.683,1091.2644,
1529.772,1068.1998,
1526.861,1047.1108,
1523.951,1003.3066,
1521.040,1002.5985,
1518.130,971.35674,
1515.219,979.24544,
1512.309,968.08898,
1509.398,972.60611,
1506.487,949.29013,
1503.577,967.97805,
1500.666,966.45345,
1497.756,957.38725,
1494.845,911.56469,
1491.934,898.22894,
1489.024,929.9912,
1486.113,924.63449,
1483.203,925.01317,
1480.292,852.15301,
1477.382,814.06931,
1474.471,844.95919,
1471.560,827.09836,
1468.650,844.13922,
1465.739,823.81951,
1462.829,794.38229,
1459.918,819.72197,
1457.008,850.18659,
1454.097,842.10889,
1451.186,833.53119,
1448.276,832.26974,
1445.365,817.76797,
1442.455,813.38529,
1439.544,799.47105,
1436.633,801.67813,
1433.723,790.24962,
1430.812,790.53394,
1427.902,784.47798,
1424.991,841.34373,
1422.081,768.80936,
1419.170,786.31869,
1416.259,743.14134,
1413.349,741.18789,
1410.438,714.03447,
1407.528,743.61195,
1404.617,731.89731,
1401.707,713.48429,
1398.796,757.35917,
1395.885,767.88063,
1392.975,741.60498,
1390.064,783.01118,
1387.154,796.65768,
1384.243,800.12593,
1381.332,818.0384,
1378.422,769.99449,
1375.511,786.85655,
1372.601,817.53682,
1369.690,806.40944,
1366.780,884.12055,
1363.869,862.98933,
1360.958,884.75733,
1358.048,936.75715,
1355.137,965.95889,
1352.227,988.13817,
1349.316,1039.7866,
1346.406,1078.6718,
1343.495,1052.8724,
1340.584,1076.0164,
1337.674,1170.1954,
1334.763,1155.5364,
1331.853,1192.6257,
1328.942,1195.0145,
1326.032,1197.5719,
1323.121,1223.3178,
1320.210,1247.4412,
1317.300,1261.0273,
1314.389,1279.5142,
1311.479,1293.125,
1308.568,1331.5584,
1305.657,1401.2488,
1302.747,1388.152,
1299.836,1342.447,
1296.926,1467.706,
1294.015,1501.7209,
1291.105,1556.838,
1288.194,1593.6785,
1285.283,1649.8132,
1282.373,1719.117,
1279.462,1745.38,
1276.552,1769.6054,
1273.641,1808.4763,
1270.731,1840.0608,
1267.820,1868.1678,
1264.909,1808.1027,
1261.999,1786.3247,
1259.088,1791.7975,
1256.178,1790.4121,
1253.267,1734.8869,
1250.356,1704.5799,
1247.446,1650.0134,
1244.535,1598.2858,
1241.625,1554.6917,
1238.714,1517.125,
1235.804,1498.1203,
1232.893,1423.635,
1229.982,1379.2596,
1227.072,1412.7561,
1224.161,1376.4618,
1221.251,1354.2348,
1218.340,1327.7472,
1215.430,1317.7766,
1212.519,1311.8808,
1209.608,1300.9987,
1206.698,1297.3803,
1203.787,1294.8536,
1200.877,1277.515,
1197.966,1283.8092,
1195.055,1349.8251,
1192.145,1383.6653,
1189.234,1436.5405,
1186.324,1479.1267,
1183.413,1481.3179,
1180.503,1463.1015,
1177.592,1460.7513,
1174.681,1462.8305,
1171.771,1440.6607,
1168.860,1463.8811,
1165.950,1404.0407,
1163.039,1365.3793,
1160.129,1375.1801,
1157.218,1381.914,
1154.307,1374.125,
1151.397,1369.4328,
1148.486,1354.7763,
1145.576,1348.2429,
1142.665,1373.9924,
1139.754,1347.648,
1136.844,1343.2259,
1133.933,1316.5592,
1131.023,1295.7087,
1128.112,1294.8392,
1125.202,1291.0526,
1122.291,1276.253,
1119.380,1284.2376,
1116.470,1295.7105,
1113.559,1322.6422,
1110.649,1312.4442,
1107.738,1308.4832,
1104.828,1291.4878,
1101.917,1277.3979,
1099.006,1325.0629,
1096.096,1364.9749,
1093.185,1329.8548,
1090.275,1295.5635,
1087.364,1284.0083,
1084.453,1300.6863,
1081.543,1311.181,
1078.632,1307.692,
1075.722,1312.8175,
1072.811,1320.6214,
1069.901,1327.6075,
1066.990,1362.8833,
1064.079,1377.2496,
1061.169,1379.0204,
1058.258,1394.6409,
1055.348,1413.5975,
1052.437,1403.3211,
1049.527,1393.7893,
1046.616,1385.101,
1043.705,1421.8925,
1040.795,1435.0405,
1037.884,1440.1709,
1034.974,1450.8286,
1032.063,1465.9403,
1029.153,1475.113,
1026.242,1450.0293,
1023.331,1469.957,
1020.421,1493.6438,
1017.510,1502.125,
1014.600,1485.2078,
1011.689,1481.5098,
1008.778,1534.9632,
1005.868,1563.403,
1002.957,1594.3758,
1000.047,1607.861,
997.136,1674.5562,
994.226,1703.956,
991.315,1697.9121,
988.404,1721.9368,
985.494,1695.3552,
982.583,1705.6338,
979.673,1666.1528,
976.762,1674.6091,
973.852,1702.6173,
970.941,1716.8286,
968.030,1705.7549,
965.120,1647.2288,
962.209,1671.9525,
959.299,1692.4147,
956.388,1686.8058,
953.477,1700.9646,
950.567,1733.8179,
947.656,1727.7854,
944.746,1709.9447,
941.835,1711.5544,
938.925,1712.7831,
936.014,1713.6308,
933.103,1707.7693,
930.193,1685.5379,
927.282,1645.0498,
924.372,1680.5653,
921.461,1685.8614,
918.551,1635.0029,
915.640,1600.6747,
912.729,1599.8313,
909.819,1586.0121,
906.908,1570.006,
903.998,1569.125,
901.087,1597.7678,
898.176,1618.4198,
895.266,1630.4252,
892.355,1648.4809,
889.445,1661.0699,
886.534,1651.9414,
883.624,1683.7666,
880.713,1692.98,
877.802,1697.5889,
874.892,1715.0804,
871.981,1696.1583,
869.071,1655.2231,
866.160,1634.3258,
863.250,1635.988,
860.339,1661.7397,
857.428,1686.8987,
854.518,1652.3898,
851.607,1661.5426,
848.697,1642.4905,
845.786,1634.6819,
842.875,1612.7053,
839.965,1577.9262,
837.054,1618.6274,
834.144,1663.38,
831.233,1663.459,
828.323,1639.3421,
825.412,1624.5984,
822.501,1633.4441,
819.591,1618.5689,
816.680,1602.0993,
813.770,1579.3299,
810.859,1563.6126,
807.949,1563.9128,
805.038,1577.1338,
802.127,1560.6713,
799.217,1521.1101,
796.306,1498.4763,
793.396,1517.9879,
790.485,1554.4393,
787.574,1532.7825,
784.664,1523.7613,
781.753,1539.5706,
778.843,1550.0853,
775.932,1549.3473,
773.022,1545.5342,
770.111,1561.0681,
767.200,1581.9191,
764.290,1565.5878,
761.379,1546.3679,
758.469,1541.9157,
755.558,1540.6874,
752.648,1526.0245,
749.737,1517.9027,
746.826,1512.3277,
743.916,1518.6186,
741.005,1537.8978,
738.095,1491.6208,
735.184,1454.6624,
732.274,1386.3799,
729.363,1356.6351,
726.452,1412.6198,
723.542,1498.4155,
720.631,1514.5931,
717.721,1547.3401,
714.810,1560.7501,
711.899,1548.2537,
708.989,1553.0953,
706.078,1541.9068,
703.168,1556.1272,
700.257,1542.3707,
697.347,1509.7334,
694.436,1519.4742,
691.525,1532.335,
688.615,1520.0311,
685.704,1500.7644,
682.794,1497.1887,
679.883,1530.2331,
676.973,1532.6372,
674.062,1536.9535,
671.151,1532.9884,
668.241,1519.407,
665.330,1503.1671,
662.420,1546.2986,
659.509,1537.3469,
656.598,1530.587,
653.688,1533.9748,
650.777,1529.2609,
647.867,1503.7784,
644.956,1509.8889,
642.046,1501.7849,
639.135,1491.2343,
636.224,1532.9022,
633.314,1488.4416,
630.403,1531.5164,
627.493,1568.3569,
624.582,1570.1267,
621.672,1583.5906,
618.761,1552.2075,
615.850,1561.9606,
612.940,1579.1496,
610.029,1582.8348,
607.119,1593.1,
604.208,1613.2954,
601.297,1629.5998,
598.387,1626.9463,
595.476,1598.605,
592.566,1593.0956,
589.655,1581.7588,
586.745,1563.1059,
583.834,1543.9292,
580.923,1536.144,
578.013,1539.2829,
575.102,1526.9325,
572.192,1532.8455,
569.281,1558.5942,
566.371,1544.507,
563.460,1576.9875,
560.549,1580.8921,
557.639,1571.1993,
554.728,1575.948,
551.818,1604.8197,
548.907,1606.8591,
545.996,1603.3474,
543.086,1601.1184,
540.175,1596.4465,
537.265,1614.232,
534.354,1623.1318,
531.444,1629.3049,
528.533,1642.2219,
525.622,1671.7079,
522.712,1659.9224,
519.801,1659.5814,
516.891,1678.751,
513.980,1681.8482,
511.070,1727.2032,
508.159,1770.0033,
505.248,1782.8558,
502.338,1744.6838,
499.427,1797.9403,
496.517,1818.3472,
493.606,1831.5373,
490.695,1848.6599,
487.785,1852.5089,
484.874,1882.2051,
481.964,1884.8361,
479.053,1863.7348,
476.143,1853.7513,
473.232,1840.8951,
470.321,1832.719,
467.411,1821.5272,
464.500,1799.6098,
461.590,1818.7533,
458.679,1841.7344,
455.769,1861.166,
452.858,1873.7952,
449.947,1889.8378,
447.037,1911.3278,
444.126,1919.7977,
441.216,1915.051,
438.305,1920.3845,
435.395,1915.8799,
432.484,1929.3783,
429.573,1958.3376,
426.663,1984.9425,
423.752,1990.6121,
420.842,1936.4093,
417.931,1853.9648,
415.020,1797.088,
412.110,1798.0515,
409.199,1865.1396,
406.289,1956.7551,
403.378,2026.0328,
400.468,1998.817,
397.557,1972.1298,
394.646,1962.936,
391.736,1984.6803,
388.825,2002.0277,
385.915,1989.5626,
383.004,1975.5527,
380.094,1980.8525,
377.183,2014.7139,
374.272,2049.6357,
371.362,2082.8981,
368.451,2111.8545,
365.541,2123.863,
362.630,2124.94,
359.719,2132.596,
356.809,2154.6719,
353.898,2147.1839,
350.988,2163.0271,
348.077,2176.673,
345.167,2173.5034,
342.256,2180.9741,
339.345,2151.7705,
336.435,2130.232,
333.524,2145.3264,
330.614,2119.9911,
327.703,2141.9025,
324.793,2167.2893,
321.882,2159.1593,
318.971,2173.2847,
316.061,2188.3796,
313.150,2193.1203,
310.240,2173.8252,
307.329,2184.5592,
304.418,2200.0679,
301.508,2199.3403,
298.597,2147.5112,
295.687,2179.0187,
292.776,2219.0418,
289.866,2259.8437,
286.955,2301.2123,
284.044,2344.4425,
281.134,2405.7458,
278.223,2476.8973,
275.313,2502.6873,
272.402,2493.6024,
269.492,2494.2148,
266.581,2518.1776,
263.670,2518.9127,
260.760,2551.5128,
257.849,2578.5587,
254.939,2571.2199,
252.028,2618.8988,
249.117,2632.0999,
246.207,2623.2838,
243.296,2612.3033,
240.386,2582.3934,
237.475,2571.3511,
234.565,2573.7537,
231.654,2545.9991,
228.743,2532.6452,
225.833,2493.5864,
222.922,2417.5327,
220.012,2426.2753,
217.101,2431.0879,
214.191,2423.9455,
211.280,2393.392,
208.369,2382.3784,
205.459,2381.7183,
202.548,2397.5289,
199.638,2457.7578,
196.727,2425.7564,
193.816,2392.523,
190.906,2391.4297,
187.995,2400.118,
185.085,2442.372,
182.174,2483.3826,
179.264,2473.2639,
176.353,2504.8047,
173.442,2511.5231,
170.532,2485.8326,
167.621,2440.4111,
164.711,2386.0796,
161.800,2315.6841,
158.890,2220.68,
155.979,2046.3165,
153.068,1892.2469,
150.158,1738.2284,
147.247,1491.9708,
144.337,1206.82,
141.426,925.45119,
138.516,668.08723,
135.605,492.38705,
132.694,343.56682,
129.784,221.26126,
126.873,134.73055,
123.963,97.207545,
121.052,70.793431,
118.141,42.237351,
115.231,40.703859,
112.320,39.701364,
109.410,37.352382,
106.499,28.094364,
103.589,19.962201,
100.678,14.310135,
97.767,12.177322,
94.857,16.282934,
91.946,15.303224,
89.036,9.883123,
86.125,2.081865,
83.215,2.7796018,
80.304,4.4067019,
77.393,2.2821921,
74.483,14.572564,
71.572,16.414423,
68.662,8.40207,
65.751,11.227874,
62.840,13.088404,
59.930,12.252138,
57.019,5.2013182,
54.109,4.7221608,
51.198,4.5217814,
48.288,3.0910253,
45.377,-1.1292431,
42.466,1.2471934,
39.556,6.6645257,
36.645,3.8557648,
33.735,4.6827454,
30.824,6.7876609,
27.914,8.8911867,
25.003,6.6344501,
22.092,7.0624273,
19.182,11.719954,
16.271,29.906698,
13.361,144.17533,
10.450,328.74439,
7.539,547.3171,
4.629,553.52515,
1.718,362.65375,
-1.192,-105.13023,
-4.103,-198.29682,
-7.013,-152.38203,
-9.924,2.125,
