,PL33C7~1,
Wavenumbers [1/cm],Intensity,
3014.167,-1.25,
3011.256,-2.8499141,
3008.346,51.187132,
3005.435,61.559189,
3002.525,43.389821,
2999.614,53.265609,
2996.704,57.528354,
2993.793,83.529952,
2990.882,72.04765,
2987.972,74.69955,
2985.061,76.720459,
2982.151,85.585289,
2979.240,87.066539,
2976.329,93.760921,
2973.419,86.965147,
2970.508,94.283347,
2967.598,90.75,
2964.687,96.480978,
2961.777,89.160118,
2958.866,91.75,
2955.955,94.785394,
2953.045,104.48378,
2950.134,102.89868,
2947.224,109.46531,
2944.313,107.39031,
2941.403,109.79745,
2938.492,126.04811,
2935.581,113.43838,
2932.671,127.18775,
2929.760,118.42308,
2926.850,118.85451,
2923.939,127.94623,
2921.028,136.12642,
2918.118,128.68828,
2915.207,127.11091,
2912.297,135.75,
2909.386,125.34124,
2906.476,135.45504,
2903.565,114.99073,
2900.654,133.52654,
2897.744,141.81286,
2894.833,127.78128,
2891.923,114.53531,
2889.012,105.87717,
2886.102,101.16621,
2883.191,96.755664,
2880.280,81.549035,
2877.370,50.052375,
2874.459,29.108416,
2871.549,42.776638,
2868.638,130.52932,
2865.727,127.30765,
2862.817,133.54947,
2859.906,131.34544,
2856.996,133.29755,
2854.085,144.75634,
2851.175,129.8675,
2848.264,138.44633,
2845.353,135.0088,
2842.443,149.94443,
2839.532,142.33217,
2836.622,138.83984,
2833.711,136.90542,
2830.801,156.83603,
2827.890,156.75,
2824.979,150.97204,
2822.069,157.68177,
2819.158,150.98989,
2816.248,154.23263,
2813.337,154.70855,
2810.427,148.30922,
2807.516,159.59172,
2804.605,148.15865,
2801.695,155.40791,
2798.784,148.63708,
2795.874,144.89512,
2792.963,149.8216,
2790.052,154.74979,
2787.142,150.26312,
2784.231,148.58851,
2781.321,151.93858,
2778.410,153.92005,
2775.500,150.45241,
2772.589,143.90443,
2769.678,149.96503,
2766.768,151.61991,
2763.857,143.22399,
2760.947,148.26576,
2758.036,163.45708,
2755.126,148.03205,
2752.215,151.3681,
2749.304,161.45142,
2746.394,170.36294,
2743.483,162.69998,
2740.573,156.99111,
2737.662,158.76035,
2734.751,168.54122,
2731.841,167.18223,
2728.930,157.95343,
2726.020,154.53067,
2723.109,163.84267,
2720.199,157.49363,
2717.288,172.57482,
2714.377,151.59196,
2711.467,164.12693,
2708.556,168.70747,
2705.646,171.13029,
2702.735,157.93816,
2699.825,175.81544,
2696.914,190.56002,
2694.003,166.26382,
2691.093,170.6429,
2688.182,169.45889,
2685.272,166.14829,
2682.361,168.77948,
2679.450,169.9969,
2676.540,180.46546,
2673.629,167.08184,
2670.719,178.02727,
2667.808,171.38226,
2664.898,184.49027,
2661.987,178.6499,
2659.076,173.87716,
2656.166,171.05731,
2653.255,175.97449,
2650.345,183.86252,
2647.434,184.97835,
2644.524,179.06656,
2641.613,180.00707,
2638.702,192.52907,
2635.792,187.40802,
2632.881,182.98794,
2629.971,199.34737,
2627.060,187.58157,
2624.149,194.40001,
2621.239,191.01038,
2618.328,205.11419,
2615.418,185.4409,
2612.507,189.02267,
2609.597,198.65818,
2606.686,206.24396,
2603.775,199.43254,
2600.865,188.63731,
2597.954,205.03129,
2595.044,199.33991,
2592.133,208.80088,
2589.223,193.05104,
2586.312,207.21233,
2583.401,208.27923,
2580.491,208.58657,
2577.580,209.77971,
2574.670,223.3222,
2571.759,217.80565,
2568.848,207.93224,
2565.938,209.32139,
2563.027,216.21363,
2560.117,219.38552,
2557.206,210.70941,
2554.296,208.35412,
2551.385,223.12197,
2548.474,219.04628,
2545.564,211.97159,
2542.653,222.35068,
2539.743,207.25616,
2536.832,223.36309,
2533.922,214.75,
2531.011,217.22479,
2528.100,217.35277,
2525.190,227.56147,
2522.279,203.35967,
2519.369,218.76869,
2516.458,224.6381,
2513.548,220.51368,
2510.637,221.56555,
2507.726,223.7463,
2504.816,231.93715,
2501.905,213.51829,
2498.995,235.63056,
2496.084,233.75,
2493.173,235.9606,
2490.263,222.59291,
2487.352,260.6232,
2484.442,237.02837,
2481.531,241.17023,
2478.621,240.51778,
2475.710,239.80367,
2472.799,246.99663,
2469.889,239.02422,
2466.978,233.35821,
2464.068,263.48026,
2461.157,232.40741,
2458.247,245.19115,
2455.336,232.51711,
2452.425,236.6651,
2449.515,251.44856,
2446.604,268.98734,
2443.694,266.33142,
2440.783,267.55968,
2437.872,259.89586,
2434.962,257.70853,
2432.051,246.60196,
2429.141,247.76771,
2426.230,261.64175,
2423.320,268.96439,
2420.409,262.48081,
2417.498,261.14326,
2414.588,243.13031,
2411.677,271.03283,
2408.767,257.06201,
2405.856,274.62618,
2402.946,274.69638,
2400.035,272.85094,
2397.124,279.51471,
2394.214,266.8304,
2391.303,267.18089,
2388.393,271.25697,
2385.482,265.01437,
2382.571,271.43375,
2379.661,269.95921,
2376.750,263.70083,
2373.840,270.79054,
2370.929,276.73917,
2368.019,298.40087,
2365.108,292.75,
2362.197,298.12537,
2359.287,285.78342,
2356.376,306.70597,
2353.466,293.46415,
2350.555,280.3406,
2347.645,292.1328,
2344.734,305.60259,
2341.823,310.76658,
2338.913,302.92761,
2336.002,297.81704,
2333.092,296.76134,
2330.181,313.55816,
2327.270,317.69499,
2324.360,308.01886,
2321.449,310.07313,
2318.539,309.21789,
2315.628,307.75,
2312.718,310.39978,
2309.807,310.91133,
2306.896,326.75,
2303.986,327.18507,
2301.075,317.87769,
2298.165,305.36527,
2295.254,318.42685,
2292.344,326.27698,
2289.433,320.055,
2286.522,322.50438,
2283.612,333.82016,
2280.701,333.01906,
2277.791,313.51329,
2274.880,352.96805,
2271.969,342.36317,
2269.059,335.60558,
2266.148,337.31594,
2263.238,340.64961,
2260.327,343.81897,
2257.417,341.90334,
2254.506,344.48224,
2251.595,355.47004,
2248.685,353.69614,
2245.774,343.03592,
2242.864,364.77745,
2239.953,352.57066,
2237.043,354.07429,
2234.132,347.30065,
2231.221,347.75,
2228.311,359.92782,
2225.400,350.49669,
2222.490,346.20612,
2219.579,366.0919,
2216.669,370.23331,
2213.758,360.70423,
2210.847,377.93133,
2207.937,377.03503,
2205.026,378.1949,
2202.116,369.42091,
2199.205,371.50059,
2196.294,376.04795,
2193.384,392.30251,
2190.473,383.45422,
2187.563,398.808,
2184.652,412.40673,
2181.742,416.13567,
2178.831,415.94072,
2175.920,433.33288,
2173.010,450.4263,
2170.099,454.1503,
2167.189,496.82176,
2164.278,510.71181,
2161.368,534.32136,
2158.457,546.7643,
2155.546,572.40098,
2152.636,595.38294,
2149.725,626.71642,
2146.815,635.61652,
2143.904,663.83924,
2140.993,643.57003,
2138.083,667.49162,
2135.172,684.67443,
2132.262,687.4912,
2129.351,676.19823,
2126.441,671.983,
2123.530,637.26737,
2120.619,594.61239,
2117.709,588.47625,
2114.798,565.98068,
2111.888,542.98797,
2108.977,516.22019,
2106.067,496.13271,
2103.156,485.71132,
2100.245,451.75439,
2097.335,455.98037,
2094.424,439.57959,
2091.514,445.31446,
2088.603,426.15556,
2085.692,423.66075,
2082.782,419.26812,
2079.871,435.46528,
2076.961,433.20205,
2074.050,414.04091,
2071.140,420.23272,
2068.229,423.83854,
2065.318,421.00874,
2062.408,420.61383,
2059.497,432.75596,
2056.587,421.98276,
2053.676,409.40045,
2050.766,404.05792,
2047.855,398.75,
2044.944,396.35578,
2042.034,385.96394,
2039.123,400.36953,
2036.213,400.17224,
2033.302,420.96716,
2030.391,424.08925,
2027.481,419.4939,
2024.570,423.12134,
2021.660,428.45435,
2018.749,440.56005,
2015.839,429.96587,
2012.928,392.97987,
2010.017,400.5676,
2007.107,413.49392,
2004.196,412.26191,
2001.286,422.41783,
1998.375,403.00294,
1995.465,420.85446,
1992.554,395.44441,
1989.643,409.09329,
1986.733,387.60614,
1983.822,400.21086,
1980.912,381.33388,
1978.001,378.52923,
1975.090,396.15611,
1972.180,404.36966,
1969.269,399.89937,
1966.359,398.12851,
1963.448,414.70773,
1960.538,434.16868,
1957.627,417.24224,
1954.716,394.35326,
1951.806,422.25322,
1948.895,408.28651,
1945.985,378.77124,
1943.074,386.11526,
1940.164,388.70179,
1937.253,376.0283,
1934.342,379.29706,
1931.432,367.43139,
1928.521,377.47885,
1925.611,380.37997,
1922.700,366.46133,
1919.790,392.17164,
1916.879,398.6105,
1913.968,349.81025,
1911.058,410.71095,
1908.147,367.4843,
1905.237,367.93384,
1902.326,374.64037,
1899.415,364.81341,
1896.505,339.91245,
1893.594,327.83237,
1890.684,364.88712,
1887.773,390.10329,
1884.863,378.16686,
1881.952,378.5149,
1879.041,420.57452,
1876.131,387.95917,
1873.220,351.59945,
1870.310,383.02348,
1867.399,431.9983,
1864.489,388.67211,
1861.578,387.217,
1858.667,389.40271,
1855.757,377.34427,
1852.846,380.73462,
1849.936,385.95819,
1847.025,421.21958,
1844.114,413.27702,
1841.204,404.67308,
1838.293,404.76996,
1835.383,394.3895,
1832.472,414.72739,
1829.562,414.97396,
1826.651,398.86089,
1823.740,431.87651,
1820.830,428.00181,
1817.919,408.9056,
1815.009,448.5617,
1812.098,410.86814,
1809.188,450.77315,
1806.277,437.12624,
1803.366,434.86645,
1800.456,441.53017,
1797.545,436.09051,
1794.635,423.74906,
1791.724,448.93449,
1788.813,437.74743,
1785.903,426.93607,
1782.992,423.11514,
1780.082,425.39824,
1777.171,402.4197,
1774.261,399.14971,
1771.350,396.30776,
1768.439,431.60118,
1765.529,457.30007,
1762.618,468.39121,
1759.708,471.73936,
1756.797,480.30303,
1753.887,486.23834,
1750.976,479.70158,
1748.065,468.20776,
1745.155,469.75,
1742.244,465.77718,
1739.334,474.70529,
1736.423,469.15188,
1733.512,464.02236,
1730.602,445.04958,
1727.691,461.01216,
1724.781,492.13387,
1721.870,477.82607,
1718.960,508.92821,
1716.049,510.0382,
1713.138,477.97015,
1710.228,479.71238,
1707.317,508.17171,
1704.407,496.47725,
1701.496,471.04976,
1698.586,514.94922,
1695.675,515.00717,
1692.764,509.06967,
1689.854,514.49016,
1686.943,508.95235,
1684.033,546.78139,
1681.122,537.91992,
1678.211,546.66434,
1675.301,505.87642,
1672.390,578.68719,
1669.480,557.68582,
1666.569,550.39749,
1663.659,601.01132,
1660.748,617.30917,
1657.837,645.0283,
1654.927,612.53914,
1652.016,604.57617,
1649.106,638.68028,
1646.195,674.91083,
1643.285,640.54492,
1640.374,632.89982,
1637.463,687.03823,
1634.553,703.97656,
1631.642,785.84772,
1628.732,794.73815,
1625.821,792.77682,
1622.911,833.51896,
1620.000,882.13266,
1617.089,973.89925,
1614.179,1019.481,
1611.268,1097.7758,
1608.358,1142.6898,
1605.447,1176.8074,
1602.536,1175.0225,
1599.626,1187.6291,
1596.715,1216.8856,
1593.805,1185.7654,
1590.894,1157.9719,
1587.984,1146.9552,
1585.073,1122.7779,
1582.162,1122.9244,
1579.252,1111.4755,
1576.341,1087.9224,
1573.431,1107.8116,
1570.520,1104.0487,
1567.610,1068.7103,
1564.699,1059.9251,
1561.788,1033.9897,
1558.878,1040.5018,
1555.967,1019.6808,
1553.057,1010.4913,
1550.146,973.19009,
1547.235,964.86947,
1544.325,937.7283,
1541.414,936.91309,
1538.504,931.43565,
1535.593,906.1584,
1532.683,901.02151,
1529.772,898.51238,
1526.861,861.67756,
1523.951,813.36779,
1521.040,846.32429,
1518.130,833.82985,
1515.219,811.79067,
1512.309,797.4212,
1509.398,822.46105,
1506.487,802.17603,
1503.577,740.12633,
1500.666,786.9592,
1497.756,775.72495,
1494.845,811.26974,
1491.934,799.61142,
1489.024,757.26173,
1486.113,730.71518,
1483.203,734.07901,
1480.292,717.77977,
1477.382,655.74788,
1474.471,704.67508,
1471.560,701.98002,
1468.650,694.43327,
1465.739,690.90706,
1462.829,667.86139,
1459.918,670.32473,
1457.008,680.70381,
1454.097,682.83374,
1451.186,686.25484,
1448.276,682.38103,
1445.365,695.57385,
1442.455,711.63066,
1439.544,669.57104,
1436.633,646.84732,
1433.723,661.85953,
1430.812,693.76034,
1427.902,644.33629,
1424.991,668.97812,
1422.081,655.98784,
1419.170,665.11872,
1416.259,648.92861,
1413.349,650.79193,
1410.438,652.05022,
1407.528,630.50652,
1404.617,605.24605,
1401.707,603.69911,
1398.796,644.2639,
1395.885,654.46631,
1392.975,643.37615,
1390.064,681.97763,
1387.154,653.04902,
1384.243,647.64598,
1381.332,628.98738,
1378.422,600.44068,
1375.511,633.22801,
1372.601,686.27951,
1369.690,700.17945,
1366.780,753.23229,
1363.869,718.07604,
1360.958,734.74146,
1358.048,804.36813,
1355.137,814.51717,
1352.227,806.39061,
1349.316,858.74461,
1346.406,897.7844,
1343.495,876.70474,
1340.584,925.7493,
1337.674,972.50041,
1334.763,978.67943,
1331.853,976.82497,
1328.942,977.63946,
1326.032,957.35948,
1323.121,994.98497,
1320.210,1030.3935,
1317.300,1041.3402,
1314.389,1046.889,
1311.479,1085.8274,
1308.568,1132.9827,
1305.657,1155.6075,
1302.747,1178.531,
1299.836,1116.3177,
1296.926,1243.7583,
1294.015,1286.9665,
1291.105,1276.4224,
1288.194,1335.4545,
1285.283,1381.5381,
1282.373,1428.5546,
1279.462,1472.9064,
1276.552,1493.2146,
1273.641,1493.75,
1270.731,1512.5679,
1267.820,1551.1023,
1264.909,1524.7829,
1261.999,1518.0496,
1259.088,1526.2587,
1256.178,1518.1854,
1253.267,1489.131,
1250.356,1441.4693,
1247.446,1403.388,
1244.535,1375.875,
1241.625,1334.2982,
1238.714,1290.6364,
1235.804,1270.6433,
1232.893,1219.7562,
1229.982,1191.3514,
1227.072,1179.5823,
1224.161,1136.7248,
1221.251,1133.2171,
1218.340,1118.5547,
1215.430,1092.1329,
1212.519,1095.8604,
1209.608,1112.08,
1206.698,1103.7926,
1203.787,1107.2575,
1200.877,1094.8644,
1197.966,1112.8476,
1195.055,1157.2657,
1192.145,1181.2796,
1189.234,1222.4336,
1186.324,1263.0248,
1183.413,1258.2271,
1180.503,1249.9853,
1177.592,1276.9719,
1174.681,1234.8767,
1171.771,1235.2143,
1168.860,1211.9939,
1165.950,1191.2053,
1163.039,1205.6069,
1160.129,1219.6486,
1157.218,1205.9628,
1154.307,1191.9444,
1151.397,1192.669,
1148.486,1159.4099,
1145.576,1102.8316,
1142.665,1150.7789,
1139.754,1151.4955,
1136.844,1150.75,
1133.933,1139.0199,
1131.023,1116.5871,
1128.112,1098.9645,
1125.202,1096.7162,
1122.291,1098.7473,
1119.380,1091.8453,
1116.470,1101.5531,
1113.559,1105.0697,
1110.649,1129.9793,
1107.738,1141.6784,
1104.828,1140.75,
1101.917,1140.1583,
1099.006,1141.5541,
1096.096,1154.2125,
1093.185,1145.4324,
1090.275,1129.3739,
1087.364,1123.6916,
1084.453,1130.062,
1081.543,1147.1437,
1078.632,1148.5874,
1075.722,1123.1351,
1072.811,1138.3705,
1069.901,1147.1031,
1066.990,1159.0666,
1064.079,1150.1813,
1061.169,1163.5282,
1058.258,1182.5614,
1055.348,1187.1621,
1052.437,1187.2259,
1049.527,1195.3206,
1046.616,1210.0907,
1043.705,1228.7068,
1040.795,1222.8954,
1037.884,1239.5082,
1034.974,1262.1224,
1032.063,1255.8349,
1029.153,1234.9963,
1026.242,1245.3758,
1023.331,1250.7497,
1020.421,1259.4181,
1017.510,1296.3666,
1014.600,1301.1806,
1011.689,1284.5782,
1008.778,1322.6144,
1005.868,1356.7732,
1002.957,1359.3542,
1000.047,1376.494,
997.136,1413.2909,
994.226,1455.7189,
991.315,1486.0124,
988.404,1491.3725,
985.494,1468.6157,
982.583,1462.6198,
979.673,1453.7019,
976.762,1452.5113,
973.852,1460.3802,
970.941,1471.7138,
968.030,1473.6401,
965.120,1444.8216,
962.209,1461.8724,
959.299,1462.6253,
956.388,1457.8303,
953.477,1458.8603,
950.567,1471.2856,
947.656,1490.0842,
944.746,1492.6329,
941.835,1504.8972,
938.925,1478.1377,
936.014,1481.4656,
933.103,1484.92,
930.193,1452.7561,
927.282,1432.2001,
924.372,1422.0528,
921.461,1378.0388,
918.551,1392.3776,
915.640,1398.877,
912.729,1372.5778,
909.819,1356.0836,
906.908,1358.6109,
903.998,1370.6805,
901.087,1351.4723,
898.176,1362.1326,
895.266,1396.0024,
892.355,1414.8494,
889.445,1420.7243,
886.534,1431.6033,
883.624,1443.8425,
880.713,1455.895,
877.802,1459.2761,
874.892,1454.9562,
871.981,1461.7711,
869.071,1335.6237,
866.160,1357.9074,
863.250,1407.6296,
860.339,1451.5748,
857.428,1474.6716,
854.518,1444.5093,
851.607,1436.1886,
848.697,1394.1688,
845.786,1370.5603,
842.875,1360.5068,
839.965,1357.0366,
837.054,1386.3919,
834.144,1443.5759,
831.233,1447.4172,
828.323,1442.7609,
825.412,1432.735,
822.501,1407.6435,
819.591,1373.7611,
816.680,1387.9744,
813.770,1364.8104,
810.859,1337.0177,
807.949,1324.6793,
805.038,1327.8584,
802.127,1312.219,
799.217,1304.7869,
796.306,1326.0204,
793.396,1319.6123,
790.485,1296.4906,
787.574,1351.5632,
784.664,1346.6425,
781.753,1347.092,
778.843,1372.7442,
775.932,1381.4663,
773.022,1343.384,
770.111,1347.4719,
767.200,1351.5566,
764.290,1352.1721,
761.379,1346.2359,
758.469,1336.4944,
755.558,1330.9234,
752.648,1303.2268,
749.737,1342.1397,
746.826,1338.243,
743.916,1302.2824,
741.005,1284.3307,
738.095,1227.4993,
735.184,1185.7121,
732.274,1132.8336,
729.363,1140.115,
726.452,1227.843,
723.542,1250.506,
720.631,1270.8635,
717.721,1315.7035,
714.810,1343.608,
711.899,1337.6114,
708.989,1319.859,
706.078,1311.737,
703.168,1332.2172,
700.257,1323.2334,
697.347,1295.8363,
694.436,1318.732,
691.525,1354.9032,
688.615,1333.8201,
685.704,1327.974,
682.794,1335.4948,
679.883,1312.2907,
676.973,1324.3112,
674.062,1336.3212,
671.151,1331.6684,
668.241,1324.468,
665.330,1343.2416,
662.420,1353.6251,
659.509,1357.6548,
656.598,1363.943,
653.688,1356.4874,
650.777,1309.182,
647.867,1321.9233,
644.956,1324.1308,
642.046,1290.1675,
639.135,1259.0995,
636.224,1320.742,
633.314,1319.1542,
630.403,1346.5369,
627.493,1371.127,
624.582,1380.4563,
621.672,1383.6243,
618.761,1357.9121,
615.850,1376.7484,
612.940,1399.0915,
610.029,1392.5163,
607.119,1349.0866,
604.208,1369.6005,
601.297,1384.7352,
598.387,1388.6035,
595.476,1388.7212,
592.566,1420.2039,
589.655,1397.8907,
586.745,1368.863,
583.834,1347.2367,
580.923,1334.6789,
578.013,1322.9079,
575.102,1339.252,
572.192,1370.1851,
569.281,1393.423,
566.371,1358.2049,
563.460,1361.8047,
560.549,1381.3175,
557.639,1398.4814,
554.728,1395.6806,
551.818,1362.9073,
548.907,1367.9383,
545.996,1382.3594,
543.086,1396.273,
540.175,1412.6246,
537.265,1457.2068,
534.354,1465.7229,
531.444,1456.0781,
528.533,1451.4741,
525.622,1447.5944,
522.712,1460.7053,
519.801,1468.6044,
516.891,1465.6545,
513.980,1460.2344,
511.070,1487.9239,
508.159,1528.8816,
505.248,1560.2493,
502.338,1558.863,
499.427,1562.7221,
496.517,1588.6389,
493.606,1608.0865,
490.695,1609.9268,
487.785,1618.3945,
484.874,1631.382,
481.964,1641.9028,
479.053,1651.9787,
476.143,1669.6419,
473.232,1616.7947,
470.321,1616.6728,
467.411,1624.5674,
464.500,1583.4482,
461.590,1611.0148,
458.679,1607.1938,
455.769,1600.9006,
452.858,1611.4881,
449.947,1647.3929,
447.037,1648.6824,
444.126,1654.3621,
441.216,1669.824,
438.305,1664.4905,
435.395,1676.8627,
432.484,1696.2526,
429.573,1718.8976,
426.663,1740.9416,
423.752,1677.1926,
420.842,1565.6332,
417.931,1462.2252,
415.020,1446.2996,
412.110,1515.2532,
409.199,1577.9138,
406.289,1629.7869,
403.378,1669.832,
400.468,1694.0238,
397.557,1670.901,
394.646,1660.6042,
391.736,1711.3637,
388.825,1699.296,
385.915,1715.9734,
383.004,1719.4728,
380.094,1686.7827,
377.183,1746.2284,
374.272,1793.6885,
371.362,1825.3422,
368.451,1836.8352,
365.541,1805.3127,
362.630,1821.8771,
359.719,1841.8621,
356.809,1841.1093,
353.898,1863.5732,
350.988,1871.3775,
348.077,1863.7473,
345.167,1843.2637,
342.256,1873.1464,
339.345,1883.3443,
336.435,1883.0844,
333.524,1879.0319,
330.614,1887.9737,
327.703,1867.1334,
324.793,1848.1013,
321.882,1857.8167,
318.971,1885.3241,
316.061,1890.3552,
313.150,1893.8333,
310.240,1919.8074,
307.329,1921.4646,
304.418,1909.8952,
301.508,1884.9192,
298.597,1844.1963,
295.687,1890.8658,
292.776,1927.2501,
289.866,1940.235,
286.955,1918.8119,
284.044,1985.9574,
281.134,2050.0781,
278.223,2092.7679,
275.313,2113.3998,
272.402,2165.965,
269.492,2184.2737,
266.581,2149.223,
263.670,2155.8396,
260.760,2184.3915,
257.849,2205.1572,
254.939,2194.8829,
252.028,2199.0931,
249.117,2225.4187,
246.207,2253.9924,
243.296,2251.0642,
240.386,2258.5859,
237.475,2238.162,
234.565,2197.5997,
231.654,2190.2958,
228.743,2133.5147,
225.833,2106.1654,
222.922,2134.5077,
220.012,2086.4231,
217.101,2109.0258,
214.191,2133.4508,
211.280,2082.5284,
208.369,2077.4044,
205.459,2067.5672,
202.548,2061.3963,
199.638,2105.6609,
196.727,2055.976,
193.816,2043.4543,
190.906,2113.785,
187.995,2086.2721,
185.085,2068.2386,
182.174,2060.513,
179.264,2067.0178,
176.353,2049.1674,
173.442,2058.3281,
170.532,2094.5982,
167.621,2110.4596,
164.711,2082.1648,
161.800,2010.7243,
158.890,1887.6508,
155.979,1737.2758,
153.068,1621.1064,
150.158,1509.5178,
147.247,1284.7988,
144.337,1074.7075,
141.426,857.87163,
138.516,623.44819,
135.605,452.25971,
132.694,306.46326,
129.784,190.7642,
126.873,129.26304,
123.963,85.451143,
121.052,54.667769,
118.141,36.820219,
115.231,31.776008,
112.320,30.173636,
109.410,29.659158,
106.499,23.961916,
103.589,16.587201,
100.678,15.00946,
97.767,23.540711,
94.857,18.899077,
91.946,12.718891,
89.036,6.1855105,
86.125,2.6394841,
83.215,4.9355221,
80.304,5.5951058,
77.393,-0.7784236,
74.483,11.852699,
71.572,16.213535,
68.662,11.75,
65.751,11.75,
62.840,10.786596,
59.930,8.0644242,
57.019,1.7186863,
54.109,3.7358042,
51.198,6.3532186,
48.288,7.699038,
45.377,1.3686354,
42.466,3.2844127,
39.556,9.1744071,
36.645,5.663456,
33.735,3.1922546,
30.824,1.3082261,
27.914,-0.094124437,
25.003,7.2216497,
22.092,9.4896681,
19.182,5.0474772,
16.271,14.140849,
13.361,61.58163,
10.450,134.85068,
7.539,210.96706,
4.629,175.50323,
1.718,60.673967,
-1.192,-144.98367,
-4.103,-122.63644,
-7.013,-62.975919,
-9.924,1.75,
