,PL586C~1,
Wavenumbers [1/cm],Intensity,
3014.167,3,
3011.256,-0.79995705,
3008.346,61.730361,
3005.435,67.69258,
3002.525,53.942394,
2999.614,78.703927,
2996.704,71.105164,
2993.793,92.66532,
2990.882,77.81671,
2987.972,83.984865,
2985.061,87.206905,
2982.151,92.357981,
2979.240,94.618835,
2976.329,97.275936,
2973.419,101.8154,
2970.508,99.15001,
2967.598,98.047791,
2964.687,99.477581,
2961.777,102.71798,
2958.866,98.328384,
2955.955,103.4823,
2953.045,112.20135,
2950.134,116.54226,
2947.224,124.62991,
2944.313,116.04487,
2941.403,132.2979,
2938.492,128.88348,
2935.581,126.91414,
2932.671,133.39913,
2929.760,132.74231,
2926.850,134.10451,
2923.939,141.43925,
2921.028,141.68821,
2918.118,139.37909,
2915.207,130.23416,
2912.297,148.91537,
2909.386,141.59854,
2906.476,148.25561,
2903.565,135.77333,
2900.654,142.04754,
2897.744,139.81142,
2894.833,127.47418,
2891.923,154.51611,
2889.012,130.57804,
2886.102,126.25408,
2883.191,118.99339,
2880.280,124.27752,
2877.370,93.971056,
2874.459,111.86112,
2871.549,62.645177,
2868.638,145.36903,
2865.727,143.37686,
2862.817,150.59895,
2859.906,157.59544,
2856.996,154.57019,
2854.085,161.8866,
2851.175,144.5934,
2848.264,156.19149,
2845.353,156.97843,
2842.443,154.80209,
2839.532,151.44777,
2836.622,145.60677,
2833.711,145.84458,
2830.801,142.10074,
2827.890,167.01922,
2824.979,160.28399,
2822.069,160.0796,
2819.158,165.85984,
2816.248,162.50579,
2813.337,176.75244,
2810.427,169.38981,
2807.516,165.26625,
2804.605,162.2476,
2801.695,159.1184,
2798.784,166.66938,
2795.874,159.43008,
2792.963,163.78585,
2790.052,170.99914,
2787.142,151.27611,
2784.231,149.86954,
2781.321,156.12572,
2778.410,165.8845,
2775.500,158.61932,
2772.589,153.19342,
2769.678,165.35838,
2766.768,158.3767,
2763.857,166.21002,
2760.947,168.03783,
2758.036,174.84714,
2755.126,157.28205,
2752.215,167,
2749.304,182.70142,
2746.394,171.45971,
2743.483,174.64995,
2740.573,185.88717,
2737.662,167.09616,
2734.751,164.81542,
2731.841,177.24359,
2728.930,167,
2726.020,167.55613,
2723.109,144.94884,
2720.199,185.21562,
2717.288,173.49269,
2714.377,160.38754,
2711.467,173.14726,
2708.556,188.08505,
2705.646,177.32391,
2702.735,177.17784,
2699.825,188.97819,
2696.914,198.90501,
2694.003,189.61464,
2691.093,184.3213,
2688.182,181.7637,
2685.272,184.92034,
2682.361,184,
2679.450,187.53908,
2676.540,179.12194,
2673.629,183.67265,
2670.719,184.21165,
2667.808,191.70819,
2664.898,188.92218,
2661.987,192.63352,
2659.076,196.50862,
2656.166,195.46754,
2653.255,190.59354,
2650.345,209.16879,
2647.434,211.85653,
2644.524,191.70265,
2641.613,193.25707,
2638.702,199.87375,
2635.792,203.31306,
2632.881,203.0416,
2629.971,221.70479,
2627.060,204.83219,
2624.149,207.56876,
2621.239,209.76927,
2618.328,219.06748,
2615.418,200.98637,
2612.507,199.55339,
2609.597,204.08184,
2606.686,224.66264,
2603.775,210.67857,
2600.865,206.76451,
2597.954,209.42503,
2595.044,208.24181,
2592.133,229.61147,
2589.223,216.6263,
2586.312,221.44216,
2583.401,235.81749,
2580.491,223.3702,
2577.580,231.97689,
2574.670,218,
2571.759,223.50513,
2568.848,232.11604,
2565.938,206.5237,
2563.027,217.70684,
2560.117,224.07479,
2557.206,226.47971,
2554.296,225.02975,
2551.385,230.87601,
2548.474,229.88885,
2545.564,235.77841,
2542.653,240.53691,
2539.743,227.64171,
2536.832,237.89907,
2533.922,220.28385,
2531.011,234.97526,
2528.100,223.80138,
2525.190,224.95287,
2522.279,230.60967,
2519.369,244.20747,
2516.458,246.44405,
2513.548,226.58209,
2510.637,234.35262,
2507.726,250.62824,
2504.816,247.18828,
2501.905,243.07256,
2498.995,235.59719,
2496.084,246.22649,
2493.173,247.34205,
2490.263,243.60678,
2487.352,253.04173,
2484.442,257.13275,
2481.531,261.31387,
2478.621,260.30333,
2475.710,254.04601,
2472.799,259.01346,
2469.889,263.27148,
2466.978,254.40222,
2464.068,268.11118,
2461.157,262.03752,
2458.247,260.13238,
2455.336,258.38356,
2452.425,261.34906,
2449.515,277.71726,
2446.604,281.53923,
2443.694,272.97699,
2440.783,278.80968,
2437.872,275.81768,
2434.962,271.78802,
2432.051,274,
2429.141,275.42351,
2426.230,256.36901,
2423.320,283.52863,
2420.409,281.3782,
2417.498,278.41011,
2414.588,284.17487,
2411.677,305.35455,
2408.767,289.26476,
2405.856,295.81427,
2402.946,297.63092,
2400.035,297,
2397.124,303.34759,
2394.214,308.48521,
2391.303,299.14363,
2388.393,288.30927,
2385.482,272.52874,
2382.571,300.17734,
2379.661,308.27885,
2376.750,313.95083,
2373.840,306.92186,
2370.929,300.08664,
2368.019,328.02528,
2365.108,303,
2362.197,305.38905,
2359.287,312.5883,
2356.376,303.01937,
2353.466,313.72958,
2350.555,295.01054,
2347.645,320.36821,
2344.734,321.21198,
2341.823,321,
2338.913,312.5791,
2336.002,303.77514,
2333.092,324.78117,
2330.181,332.6829,
2327.270,320.49505,
2324.360,309.22638,
2321.449,322.89114,
2318.539,319.2355,
2315.628,332.78977,
2312.718,336.64978,
2309.807,357.36048,
2306.896,335.75587,
2303.986,331.90904,
2301.075,319.68087,
2298.165,327.37519,
2295.254,366.20291,
2292.344,341.94604,
2289.433,343.97682,
2286.522,347.75438,
2283.612,345.95917,
2280.701,350.52016,
2277.791,338.1603,
2274.880,345.85193,
2271.969,356.13169,
2269.059,365.64035,
2266.148,364.13857,
2263.238,346.40541,
2260.327,380,
2257.417,378.81389,
2254.506,373.78632,
2251.595,371.42909,
2248.685,368.79039,
2245.774,389.626,
2242.864,395.83294,
2239.953,381.04824,
2237.043,382.54501,
2234.132,367.39224,
2231.221,384.73913,
2228.311,388.78093,
2225.400,389.02815,
2222.490,392.41373,
2219.579,406.41904,
2216.669,409.01908,
2213.758,397.82483,
2210.847,394.80604,
2207.937,396.91856,
2205.026,395.77755,
2202.116,405.67091,
2199.205,416,
2196.294,427.23997,
2193.384,418.23747,
2190.473,422.15376,
2187.563,429.0145,
2184.652,434.25918,
2181.742,443.7496,
2178.831,452.26855,
2175.920,477.08015,
2173.010,481.45011,
2170.099,481.13343,
2167.189,509.92824,
2164.278,507.18995,
2161.368,559.85583,
2158.457,578.52746,
2155.546,586.05965,
2152.636,624.69142,
2149.725,637.49664,
2146.815,682.46503,
2143.904,692.10408,
2140.993,703.39681,
2138.083,712.37688,
2135.172,709.58817,
2132.262,712.14349,
2129.351,713.20341,
2126.441,703.04852,
2123.530,659.7643,
2120.619,640.5137,
2117.709,644.46256,
2114.798,614.2383,
2111.888,572.03833,
2108.977,543.19205,
2106.067,524.86596,
2103.156,515.72099,
2100.245,502.01819,
2097.335,523.53404,
2094.424,473.30829,
2091.514,483.06717,
2088.603,475.0507,
2085.692,482.86612,
2082.782,476.98401,
2079.871,481.85764,
2076.961,452.19565,
2074.050,441.98788,
2071.140,478.90821,
2068.229,470.99348,
2065.318,480.14825,
2062.408,460.82528,
2059.497,457.03574,
2056.587,473.96504,
2053.676,466.2006,
2050.766,459.3849,
2047.855,487.65825,
2044.944,473.07373,
2042.034,458.97695,
2039.123,474.65993,
2036.213,471.78888,
2033.302,470.08694,
2030.391,478.08455,
2027.481,476.04884,
2024.570,474.84283,
2021.660,463.70955,
2018.749,514.54411,
2015.839,497.21587,
2012.928,460.22987,
2010.017,471.38872,
2007.107,493,
2004.196,491.97619,
2001.286,494.62544,
1998.375,485.17027,
1995.465,495.73214,
1992.554,466.69441,
1989.643,476.48154,
1986.733,471.91316,
1983.822,444.16913,
1980.912,488.61294,
1978.001,465.36365,
1975.090,489.03816,
1972.180,489.44679,
1969.269,494.67812,
1966.359,490.5406,
1963.448,508.34082,
1960.538,492.90075,
1957.627,505.83283,
1954.716,506.05745,
1951.806,529.75805,
1948.895,501.79156,
1945.985,483.62092,
1943.074,515.18466,
1940.164,487.15378,
1937.253,495.3432,
1934.342,494.34172,
1931.432,469.64984,
1928.521,482.53368,
1925.611,485.51305,
1922.700,481.41713,
1919.790,518.03426,
1916.879,545.39576,
1913.968,493.0664,
1911.058,520.66066,
1908.147,524.55324,
1905.237,493.96327,
1902.326,506.35261,
1899.415,486.64025,
1896.505,497.43985,
1893.594,504.4573,
1890.684,515.52277,
1887.773,521.18128,
1884.863,512.72437,
1881.952,511.30251,
1879.041,519.32139,
1876.131,513.04183,
1873.220,502.28315,
1870.310,547.41247,
1867.399,554.93603,
1864.489,545.1043,
1861.578,522.06601,
1858.667,512.85329,
1855.757,520.17064,
1852.846,543.70259,
1849.936,535.04502,
1847.025,573.35524,
1844.114,563.40235,
1841.204,578.43356,
1838.293,576.53243,
1835.383,552.0815,
1832.472,555.70957,
1829.562,558.44479,
1826.651,547.42712,
1823.740,555.3755,
1820.830,553.05506,
1817.919,578.6888,
1815.009,600.41221,
1812.098,541.06303,
1809.188,598.72078,
1806.277,591.26558,
1803.366,568.31609,
1800.456,586.50539,
1797.545,577.53903,
1794.635,571.19397,
1791.724,560.81551,
1788.813,577.81003,
1785.903,597.97876,
1782.992,575.68112,
1780.082,605.46844,
1777.171,592.33566,
1774.261,578.73455,
1771.350,546.332,
1768.439,563.23505,
1765.529,570.72684,
1762.618,582.9769,
1759.708,608.19574,
1756.797,598.71212,
1753.887,621.92565,
1750.976,648.46204,
1748.065,628.7957,
1745.155,625.02576,
1742.244,612.44658,
1739.334,603.31529,
1736.423,629.14202,
1733.512,639.27236,
1730.602,603.8432,
1727.691,650.3422,
1724.781,650.69532,
1721.870,646.80477,
1718.960,670.84473,
1716.049,645.79691,
1713.138,646.83997,
1710.228,644.51881,
1707.317,666.99886,
1704.407,658.32084,
1701.496,671.58476,
1698.586,665.60812,
1695.675,699.62122,
1692.764,730.40165,
1689.854,691.81887,
1686.943,721.88705,
1684.033,751.27975,
1681.122,722.50977,
1678.211,753.69544,
1675.301,728.08017,
1672.390,748.94018,
1669.480,729.27275,
1666.569,762.96191,
1663.659,761.04527,
1660.748,823.98072,
1657.837,823.59048,
1654.927,849.97657,
1652.016,849.0243,
1649.106,849.65727,
1646.195,835.90409,
1643.285,832.04557,
1640.374,835.54703,
1637.463,908.45036,
1634.553,933.22167,
1631.642,948.51032,
1628.732,995.13036,
1625.821,1017.0255,
1622.911,1055.7802,
1620.000,1092.5338,
1617.089,1199.8308,
1614.179,1249.6182,
1611.268,1272.1821,
1608.358,1356.8796,
1605.447,1386.4573,
1602.536,1374.9536,
1599.626,1427.3561,
1596.715,1432,
1593.805,1427.5283,
1590.894,1402.3412,
1587.984,1398.1339,
1585.073,1363.9673,
1582.162,1370.5233,
1579.252,1332.0849,
1576.341,1300.5702,
1573.431,1317.7121,
1570.520,1321.7069,
1567.610,1301.6272,
1564.699,1301.5253,
1561.788,1275.8313,
1558.878,1260.5862,
1555.967,1255.036,
1553.057,1245.3449,
1550.146,1186.9201,
1547.235,1170.1195,
1544.325,1152.5923,
1541.414,1151.0622,
1538.504,1181.3313,
1535.593,1163.2982,
1532.683,1135.2158,
1529.772,1144.1749,
1526.861,1116.8021,
1523.951,1067.1182,
1521.040,1067.6297,
1518.130,1065.3116,
1515.219,1071.5996,
1512.309,1090.4595,
1509.398,1093.2587,
1506.487,1057.984,
1503.577,1077.3226,
1500.666,1077.8368,
1497.756,1025.348,
1494.845,1076.9594,
1491.934,1052.0472,
1489.024,1066.4846,
1486.113,1033.6202,
1483.203,1007.0195,
1480.292,967.51401,
1477.382,976.35672,
1474.471,1015.2994,
1471.560,1023.0973,
1468.650,968.02138,
1465.739,954.52882,
1462.829,965.77454,
1459.918,989.44216,
1457.008,1007.0154,
1454.097,979.80836,
1451.186,966.12959,
1448.276,988.57237,
1445.365,988.39415,
1442.455,1000.7202,
1439.544,998.05725,
1436.633,1012.8828,
1433.723,988.48642,
1430.812,1017.1925,
1427.902,983.82653,
1424.991,1060.5953,
1422.081,993.27174,
1419.170,978.3594,
1416.259,973.75975,
1413.349,995.65723,
1410.438,963.11256,
1407.528,1005.2242,
1404.617,992.204,
1401.707,998.15571,
1398.796,1012.1749,
1395.885,988.34644,
1392.975,1012.9178,
1390.064,1044.9301,
1387.154,1014.2811,
1384.243,1028.1687,
1381.332,933.44266,
1378.422,939.60847,
1375.511,990.19464,
1372.601,1078.5492,
1369.690,1037.1383,
1366.780,1088.4026,
1363.869,1075.6674,
1360.958,1106.5936,
1358.048,1178.4315,
1355.137,1199.3322,
1352.227,1200.2681,
1349.316,1231.5532,
1346.406,1237.4799,
1343.495,1200.4913,
1340.584,1221.749,
1337.674,1284.2496,
1334.763,1277.6119,
1331.853,1267.4123,
1328.942,1263.4421,
1326.032,1258.9219,
1323.121,1255.7771,
1320.210,1266.3207,
1317.300,1284.9851,
1314.389,1310.4448,
1311.479,1316.3884,
1308.568,1332.7353,
1305.657,1387.0905,
1302.747,1379.8357,
1299.836,1327.4939,
1296.926,1386.5548,
1294.015,1506.0668,
1291.105,1471.3756,
1288.194,1535.4906,
1285.283,1564.456,
1282.373,1604.4374,
1279.462,1632.1371,
1276.552,1650.0788,
1273.641,1687.156,
1270.731,1731.1746,
1267.820,1733.7434,
1264.909,1679.7465,
1261.999,1628.3981,
1259.088,1666.7072,
1256.178,1664.7177,
1253.267,1618.7355,
1250.356,1575.2008,
1247.446,1546.3318,
1244.535,1506.2679,
1241.625,1462.6778,
1238.714,1437.0841,
1235.804,1413.5146,
1232.893,1369.3852,
1229.982,1323.3373,
1227.072,1333.2957,
1224.161,1313.8279,
1221.251,1295.8543,
1218.340,1256.666,
1215.430,1236.3484,
1212.519,1239.0748,
1209.608,1248.2525,
1206.698,1261.6172,
1203.787,1270.3668,
1200.877,1230.2259,
1197.966,1250.0074,
1195.055,1270.6247,
1192.145,1289.7782,
1189.234,1344.957,
1186.324,1386.7287,
1183.413,1385.3096,
1180.503,1371.0353,
1177.592,1372.1211,
1174.681,1348.524,
1171.771,1297.7006,
1168.860,1328.0656,
1165.950,1324.5497,
1163.039,1303.4447,
1160.129,1320.3638,
1157.218,1338.9615,
1154.307,1315.5123,
1151.397,1275.8248,
1148.486,1275.4553,
1145.576,1244.6553,
1142.665,1259.7498,
1139.754,1246.3547,
1136.844,1251.4036,
1133.933,1239.1643,
1131.023,1231.7768,
1128.112,1228.8582,
1125.202,1212.6184,
1122.291,1202.1253,
1119.380,1203.2512,
1116.470,1228.8445,
1113.559,1214.9885,
1110.649,1202.1419,
1107.738,1207.1089,
1104.828,1229.5635,
1101.917,1247.0413,
1099.006,1236.3197,
1096.096,1218.355,
1093.185,1207.8189,
1090.275,1232.8966,
1087.364,1238.3139,
1084.453,1234.6252,
1081.543,1220.6063,
1078.632,1204.433,
1075.722,1203.8209,
1072.811,1215.1313,
1069.901,1202.9056,
1066.990,1243.2249,
1064.079,1248.9169,
1061.169,1249.2092,
1058.258,1248.0356,
1055.348,1258.11,
1052.437,1291.0161,
1049.527,1286.6713,
1046.616,1304.0479,
1043.705,1315.2492,
1040.795,1318.6385,
1037.884,1310.4025,
1034.974,1311.3106,
1032.063,1329.623,
1029.153,1334.7803,
1026.242,1307.9666,
1023.331,1344.4976,
1020.421,1339.4522,
1017.510,1341.2836,
1014.600,1355.0357,
1011.689,1387.3803,
1008.778,1440.7068,
1005.868,1439.1313,
1002.957,1453.7573,
1000.047,1461.824,
997.136,1491.6043,
994.226,1523.4921,
991.315,1541.4356,
988.404,1540.3527,
985.494,1506.4028,
982.583,1524.3905,
979.673,1495.5392,
976.762,1513.9422,
973.852,1522.1817,
970.941,1500.6651,
968.030,1494.3122,
965.120,1529.9499,
962.209,1518.0143,
959.299,1509.6258,
956.388,1505.8801,
953.477,1523.0852,
950.567,1548.7386,
947.656,1548.5571,
944.746,1552.8048,
941.835,1520.6075,
938.925,1518.9225,
936.014,1532.1165,
933.103,1525.0515,
930.193,1494.799,
927.282,1496.6251,
924.372,1471.2569,
921.461,1459.8996,
918.551,1422.144,
915.640,1419.0971,
912.729,1441.7544,
909.819,1419.6647,
906.908,1401.9738,
903.998,1424.8609,
901.087,1444.3666,
898.176,1439.1157,
895.266,1446.9005,
892.355,1494.4712,
889.445,1496.989,
886.534,1548.7621,
883.624,1523.3399,
880.713,1517.7382,
877.802,1530.0422,
874.892,1535.8608,
871.981,1551.9347,
869.071,1506.8224,
866.160,1500.3799,
863.250,1496.2822,
860.339,1513.8364,
857.428,1546.1129,
854.518,1517.1926,
851.607,1523.8491,
848.697,1502.9899,
845.786,1491.4431,
842.875,1471.1244,
839.965,1438.335,
837.054,1449.6698,
834.144,1509.34,
831.233,1520.3334,
828.323,1520,
825.412,1509.0533,
822.501,1482.4254,
819.591,1462.5919,
816.680,1446.7756,
813.770,1432.3495,
810.859,1419.2314,
807.949,1408.5195,
805.038,1399.8097,
802.127,1381.7009,
799.217,1397.8894,
796.306,1396.6216,
793.396,1381.2671,
790.485,1366,
787.574,1366.685,
784.664,1384.7275,
781.753,1397.3938,
778.843,1418.6628,
775.932,1422.1113,
773.022,1396.3255,
770.111,1430.6638,
767.200,1414.7285,
764.290,1409.5779,
761.379,1398.184,
758.469,1384.1853,
755.558,1399.1734,
752.648,1371.4768,
749.737,1377.0974,
746.826,1375.5405,
743.916,1373.1429,
741.005,1376.6198,
738.095,1267.0165,
735.184,1208.2362,
732.274,1160.5497,
729.363,1174.6839,
726.452,1271.8104,
723.542,1364.8907,
720.631,1369.2355,
717.721,1399.9337,
714.810,1407.0115,
711.899,1385.5149,
708.989,1404.8811,
706.078,1412.2117,
703.168,1409.1422,
700.257,1395.6857,
697.347,1387.7384,
694.436,1411.6727,
691.525,1399.6156,
688.615,1385.0507,
685.704,1375.8415,
682.794,1375.8085,
679.883,1383.9187,
676.973,1359.8776,
674.062,1401.58,
671.151,1395.1252,
668.241,1363.7212,
665.330,1398.5672,
662.420,1410.5482,
659.509,1413,
656.598,1409.9708,
653.688,1400.709,
650.777,1382.838,
647.867,1378.06,
644.956,1385.6681,
642.046,1394.3168,
639.135,1401.5153,
636.224,1410.8249,
633.314,1375.8916,
630.403,1404.2463,
627.493,1426.9274,
624.582,1423.4126,
621.672,1429.7485,
618.761,1412.5214,
615.850,1433.9984,
612.940,1464.5384,
610.029,1480.2109,
607.119,1475.4731,
604.208,1453.6996,
601.297,1451.9792,
598.387,1454.1273,
595.476,1443.0399,
592.566,1454.0589,
589.655,1432.0281,
586.745,1430.7172,
583.834,1448.1958,
580.923,1455.782,
578.013,1419.6842,
575.102,1404.2641,
572.192,1411.0758,
569.281,1428.891,
566.371,1417.1516,
563.460,1435.0476,
560.549,1466.8767,
557.639,1491.4629,
554.728,1489.7536,
551.818,1485.8521,
548.907,1499.0165,
545.996,1482.3399,
543.086,1447.0329,
540.175,1470.3923,
537.265,1479.2428,
534.354,1495.5456,
531.444,1509,
528.533,1508.9448,
525.622,1508.1689,
522.712,1529.2364,
519.801,1525.0516,
516.891,1503.9818,
513.980,1543.4708,
511.070,1569.5391,
508.159,1598.5802,
505.248,1626.5094,
502.338,1646.2033,
499.427,1653.1498,
496.517,1670.8384,
493.606,1683.3365,
490.695,1684.4279,
487.785,1687.5071,
484.874,1726.7734,
481.964,1718.9305,
479.053,1691.2378,
476.143,1746.5311,
473.232,1704.6776,
470.321,1695.2718,
467.411,1678.9272,
464.500,1606.3963,
461.590,1661.5296,
458.679,1675.8994,
455.769,1679.0958,
452.858,1688.4772,
449.947,1693.0608,
447.037,1729.1921,
444.126,1743.8667,
441.216,1729.7354,
438.305,1728.2116,
435.395,1741.1127,
432.484,1758.8356,
429.573,1782.8751,
426.663,1820.8821,
423.752,1834.4613,
420.842,1771.4105,
417.931,1691.6464,
415.020,1693.9215,
412.110,1674.2464,
409.199,1683.6259,
406.289,1727.0738,
403.378,1806.9795,
400.468,1800.9316,
397.557,1772.7784,
394.646,1751.5015,
391.736,1760.7103,
388.825,1751.6595,
385.915,1760.7083,
383.004,1760.7204,
380.094,1739.3764,
377.183,1825.1587,
374.272,1851.7139,
371.362,1854.883,
368.451,1857.1824,
365.541,1860.1845,
362.630,1886.6733,
359.719,1905.0403,
356.809,1900.5373,
353.898,1942.47,
350.988,1920.3658,
348.077,1907.9725,
345.167,1948.1352,
342.256,1970.5473,
339.345,1931.8282,
336.435,1895.6087,
333.524,1905.5402,
330.614,1922.6788,
327.703,1927.4866,
324.793,1927.5156,
321.882,1929.0469,
318.971,1948.3764,
316.061,1954.0234,
313.150,1953,
310.240,1953,
307.329,1939.4219,
304.418,1935.3679,
301.508,1941.3323,
298.597,1957.6215,
295.687,1956.9683,
292.776,1946.4166,
289.866,1950.593,
286.955,2034.069,
284.044,2041.5725,
281.134,2084.5454,
278.223,2165.449,
275.313,2189.0284,
272.402,2216.0743,
269.492,2215.8405,
266.581,2183.102,
263.670,2212.5092,
260.760,2236.1491,
257.849,2262.5747,
254.939,2298.535,
252.028,2309.8577,
249.117,2313.0863,
246.207,2319.7658,
243.296,2349.7794,
240.386,2289.0068,
237.475,2251.1581,
234.565,2242.5843,
231.654,2227.2462,
228.743,2217.0956,
225.833,2191.267,
222.922,2145.8346,
220.012,2185.1766,
217.101,2196.5279,
214.191,2185.3833,
211.280,2153.375,
208.369,2169.166,
205.459,2143.6645,
202.548,2105.287,
199.638,2182.2058,
196.727,2159.9697,
193.816,2145.546,
190.906,2175.8826,
187.995,2144.0255,
185.085,2150.4957,
182.174,2171.763,
179.264,2178.2678,
176.353,2196.9418,
173.442,2188.8721,
170.532,2155.0678,
167.621,2138.4854,
164.711,2108.2472,
161.800,2054.5252,
158.890,1965.279,
155.979,1767.9113,
153.068,1610.7905,
150.158,1470.6685,
147.247,1239.4879,
144.337,1041.3409,
141.426,838.14506,
138.516,611.60743,
135.605,419.27143,
132.694,278.27535,
129.784,181.57168,
126.873,122.93103,
123.963,84.253704,
121.052,57.484348,
118.141,41.064602,
115.231,37.447148,
112.320,33.88182,
109.410,29.091026,
106.499,19.120853,
103.589,11.95771,
100.678,10.444595,
97.767,16.843034,
94.857,11.456088,
91.946,9,
89.036,8.6613063,
86.125,6.5336905,
83.215,7.0618407,
80.304,6.8028366,
77.393,3.2619869,
74.483,10.861619,
71.572,12.101183,
68.662,7.138535,
65.751,8.5514372,
62.840,9.481702,
59.930,9.063569,
57.019,5.5381591,
54.109,6.7914825,
51.198,7.0951722,
48.288,4.9207258,
45.377,-4.9265671,
42.466,-0.75561321,
39.556,9.3883399,
36.645,-0.4423231,
33.735,0.63473926,
30.824,3.779113,
27.914,3.0779378,
25.003,7.3584623,
22.092,12.906141,
19.182,19.503423,
16.271,34.892206,
13.361,149.73616,
10.450,351.88349,
7.539,659.14225,
4.629,674.45938,
1.718,464.96951,
-1.192,-20.940235,
-4.103,-114.59881,
-7.013,-94.565025,
-9.924,-2,
