,PLFBF1~1,
Wavenumbers [1/cm],Intensity,
3014.167,-1.125,
3011.256,-0.22502147,
3008.346,58.413099,
3005.435,66.108219,
3002.525,64.402405,
2999.614,70.637336,
2996.704,71.237886,
2993.793,77.122696,
2990.882,85.65359,
2987.972,85.839685,
2985.061,81.978452,
2982.151,80.590962,
2979.240,65.205782,
2976.329,84.134556,
2973.419,76.828529,
2970.508,80.62505,
2967.598,80.970582,
2964.687,94.336956,
2961.777,85.131189,
2958.866,93.867576,
2955.955,94.768817,
2953.045,102.22399,
2950.134,96.694246,
2947.224,101.78959,
2944.313,103.3693,
2941.403,114.08942,
2938.492,103.44953,
2935.581,97.83207,
2932.671,102.63465,
2929.760,105.15193,
2926.850,104.13628,
2923.939,104.16008,
2921.028,97.663344,
2918.118,122.71379,
2915.207,111.10916,
2912.297,96.930007,
2909.386,120.09397,
2906.476,108.52671,
2903.565,112.56908,
2900.654,91.028711,
2897.744,90.950433,
2894.833,95.225546,
2891.923,91.253199,
2889.012,94.169797,
2886.102,71.189878,
2883.191,45.891048,
2880.280,9.7888634,
2877.370,-125.79326,
2874.459,-214.56487,
2871.549,-75.308273,
2868.638,40.153303,
2865.727,73.58653,
2862.817,76.875,
2859.906,93.926276,
2856.996,109.875,
2854.085,108.99475,
2851.175,105.77863,
2848.264,103.728,
2845.353,137.42209,
2842.443,112.08336,
2839.532,102.54666,
2836.622,114.08854,
2833.711,115.61597,
2830.801,123.46471,
2827.890,118.35226,
2824.979,119.78893,
2822.069,127.9546,
2819.158,127.65397,
2816.248,133.05842,
2813.337,112.93718,
2810.427,132.09539,
2807.516,134.45047,
2804.605,124.24038,
2801.695,126.36186,
2798.784,118.98385,
2795.874,132.02541,
2792.963,128.08936,
2790.052,128.87521,
2787.142,115.45392,
2784.231,124.22902,
2781.321,132.37212,
2778.410,121.55521,
2775.500,119.17259,
2772.589,114.33829,
2769.678,133.91258,
2766.768,125.06335,
2763.857,125.50699,
2760.947,135.41598,
2758.036,124.93222,
2755.126,134.96688,
2752.215,139.6204,
2749.304,139.3642,
2746.394,136.72176,
2743.483,134.37502,
2740.573,149.39278,
2737.662,129.22559,
2734.751,134.17607,
2731.841,144.92995,
2728.930,126.42586,
2726.020,130.43634,
2723.109,134.875,
2720.199,144.15004,
2717.288,130.26186,
2714.377,143.03304,
2711.467,144.28489,
2708.556,146.56637,
2705.646,151.72007,
2702.735,145.86984,
2699.825,146.25502,
2696.914,145.39863,
2694.003,151.71891,
2691.093,134.49956,
2688.182,135.09426,
2685.272,140.71568,
2682.361,145.18068,
2679.450,152.04374,
2676.540,150.77338,
2673.629,143.88398,
2670.719,159.14488,
2667.808,143.2368,
2664.898,136.36818,
2661.987,144.10812,
2659.076,147.22197,
2656.166,160.85774,
2653.255,152.65051,
2650.345,169.85141,
2647.434,158.96074,
2644.524,158.33063,
2641.613,166.84672,
2638.702,163.01703,
2635.792,153.99963,
2632.881,157.45237,
2629.971,162.23744,
2627.060,171.5425,
2624.149,167.17187,
2621.239,170.62648,
2618.328,150.95977,
2615.418,155.52955,
2612.507,163.3572,
2609.597,166.69137,
2606.686,159.06978,
2603.775,162.2758,
2600.865,177.87163,
2597.954,175.49788,
2595.044,182.5889,
2592.133,179.21265,
2589.223,182.09184,
2586.312,159.24182,
2583.401,171.71079,
2580.491,177.42308,
2577.580,151.92946,
2574.670,187.36564,
2571.759,181.21319,
2568.848,185.69276,
2565.938,168.77977,
2563.027,172.63179,
2560.117,179.60397,
2557.206,177.97094,
2554.296,180.38987,
2551.385,186.37904,
2548.474,200.02333,
2545.564,185.47646,
2542.653,190.33809,
2539.743,189.89965,
2536.832,198.44697,
2533.922,193.85923,
2531.011,189.3003,
2528.100,178.80879,
2525.190,182.61844,
2522.279,208.56186,
2519.369,180.06379,
2516.458,193.10942,
2513.548,178.55722,
2510.637,203.07572,
2507.726,193.99768,
2504.816,191.3113,
2501.905,185.49817,
2498.995,215.6209,
2496.084,200.16771,
2493.173,208.21705,
2490.263,203.68403,
2487.352,212.70807,
2484.442,205.17266,
2481.531,205.35363,
2478.621,207.7328,
2475.710,212.82133,
2472.799,209.32788,
2469.889,219.875,
2466.978,218.43171,
2464.068,209.25592,
2461.157,204.41496,
2458.247,218.55156,
2455.336,208.43075,
2452.425,213.03068,
2449.515,221.875,
2446.604,225.75285,
2443.694,224.73518,
2440.783,202.68131,
2437.872,218.23965,
2434.962,223.40957,
2432.051,221.60359,
2429.141,243.55133,
2426.230,221.70035,
2423.320,223.03212,
2420.409,227.65698,
2417.498,226.0969,
2414.588,225.77992,
2411.677,242.76743,
2408.767,240.12795,
2405.856,230.08696,
2402.946,238.41119,
2400.035,233.49001,
2397.124,229.01937,
2394.214,245.44061,
2391.303,239.66497,
2388.393,249.12849,
2385.482,238.35968,
2382.571,193.9883,
2379.661,220.45629,
2376.750,242.60891,
2373.840,251.875,
2370.929,253.85334,
2368.019,255.36947,
2365.108,249.61846,
2362.197,259.86131,
2359.287,249.10174,
2356.376,276.82041,
2353.466,257.43489,
2350.555,272.61517,
2347.645,266.84985,
2344.734,264.17916,
2341.823,278.65942,
2338.913,260.58545,
2336.002,266.84148,
2333.092,273.56463,
2330.181,274.875,
2327.270,269.20503,
2324.360,268.62262,
2321.449,278.90561,
2318.539,275.34289,
2315.628,267.59802,
2312.718,278.12391,
2309.807,266.96801,
2306.896,283.13478,
2303.986,291.22569,
2301.075,301.81115,
2298.165,282.52843,
2295.254,293.50877,
2292.344,281.76708,
2289.433,283.47727,
2286.522,273.03566,
2283.612,277.4949,
2280.701,303.70454,
2277.791,277.99522,
2274.880,284.94092,
2271.969,297.94084,
2269.059,301.57801,
2266.148,303.9568,
2263.238,300.17616,
2260.327,316.01295,
2257.417,317.40056,
2254.506,312.23396,
2251.595,310.87134,
2248.685,310.19232,
2245.774,307.97392,
2242.864,317.3937,
2239.953,325.33016,
2237.043,317.91323,
2234.132,309.38147,
2231.221,320.98098,
2228.311,319.52578,
2225.400,319.875,
2222.490,322.84575,
2219.579,333.13977,
2216.669,330.36308,
2213.758,334.83187,
2210.847,345.54753,
2207.937,341.16003,
2205.026,355.7648,
2202.116,334.02149,
2199.205,346.17477,
2196.294,353.68499,
2193.384,344.50698,
2190.473,338.15904,
2187.563,351.79766,
2184.652,342.05009,
2181.742,377.46598,
2178.831,380.63376,
2175.920,377.6291,
2173.010,386.92602,
2170.099,405.74008,
2167.189,420.92523,
2164.278,435.50515,
2161.368,469.59053,
2158.457,452.34754,
2155.546,476.76829,
2152.636,494.53987,
2149.725,514.51928,
2146.815,543.00741,
2143.904,536.08688,
2140.993,559.52057,
2138.083,550.62875,
2135.172,566.8666,
2132.262,572.25616,
2129.351,560.52664,
2126.441,550.57401,
2123.530,565.47094,
2120.619,527.26043,
2117.709,506.91969,
2114.798,485.77489,
2111.888,478.58712,
2108.977,460.80876,
2106.067,442.08311,
2103.156,439.11533,
2100.245,432.87625,
2097.335,433.06872,
2094.424,423.22589,
2091.514,427.79699,
2088.603,414.97639,
2085.692,410.5107,
2082.782,412.40911,
2079.871,413.05353,
2076.961,410.06873,
2074.050,430.61439,
2071.140,409.09314,
2068.229,426.14713,
2065.318,426.49225,
2062.408,409.62464,
2059.497,407.30359,
2056.587,409.78209,
2053.676,431.3735,
2050.766,407.33838,
2047.855,414.59021,
2044.944,405.27404,
2042.034,411.90396,
2039.123,425.21507,
2036.213,428.08612,
2033.302,425.98377,
2030.391,450.21321,
2027.481,459.17994,
2024.570,421.47593,
2021.660,440.27851,
2018.749,442.60907,
2015.839,438.02723,
2012.928,452.79446,
2010.017,457.82288,
2007.107,456.01331,
2004.196,447.875,
2001.286,457.54283,
1998.375,468.74607,
1995.465,473.23482,
1992.554,486.14548,
1989.643,478.22064,
1986.733,471.17939,
1983.822,459.43925,
1980.912,461.28081,
1978.001,464.65423,
1975.090,477.49942,
1972.180,482.35636,
1969.269,495.04453,
1966.359,482.49649,
1963.448,481.25809,
1960.538,485.30953,
1957.627,489.44157,
1954.716,519.01319,
1951.806,512.12339,
1948.895,517.38511,
1945.985,518.42402,
1943.074,506.63149,
1940.164,510.48098,
1937.253,524.86202,
1934.342,527.93489,
1931.432,524.48383,
1928.521,514.92681,
1925.611,518.9204,
1922.700,520.875,
1919.790,532.93267,
1916.879,544.17751,
1913.968,517.9082,
1911.058,529.61073,
1908.147,531.45461,
1905.237,561.91908,
1902.326,531.80983,
1899.415,527.99697,
1896.505,531.38074,
1893.594,503.50613,
1890.684,541.75717,
1887.773,563.832,
1884.863,557.04812,
1881.952,547.90007,
1879.041,551.68341,
1876.131,555.50376,
1873.220,578.53881,
1870.310,603.22474,
1867.399,587.16288,
1864.489,581.92782,
1861.578,537.61098,
1858.667,577.98276,
1855.757,602.87142,
1852.846,602.60322,
1849.936,583.82896,
1847.025,573.75577,
1844.114,581.27735,
1841.204,579.16871,
1838.293,581.36585,
1835.383,580.31701,
1832.472,600.37587,
1829.562,617.2362,
1826.651,603.19945,
1823.740,610.70644,
1820.830,615.875,
1817.919,616.68938,
1815.009,605.74396,
1812.098,602.07973,
1809.188,621.57263,
1806.277,606.25124,
1803.366,617.89164,
1800.456,618.21551,
1797.545,606.96719,
1794.635,607.35899,
1791.724,602.22454,
1788.813,590.07011,
1785.903,587.06871,
1782.992,601.65883,
1780.082,513.89546,
1777.171,454.86696,
1774.261,446.04543,
1771.350,522.45002,
1768.439,596.91952,
1765.529,630.42319,
1762.618,655.12189,
1759.708,651.63576,
1756.797,641.95076,
1753.887,652.46538,
1750.976,651.03011,
1748.065,633.81509,
1745.155,628.79112,
1742.244,658.34687,
1739.334,652.33383,
1736.423,652.06003,
1733.512,682.0702,
1730.602,685.14285,
1727.691,679.80436,
1724.781,695.39311,
1721.870,719.99417,
1718.960,720.76384,
1716.049,706.4514,
1713.138,716.69994,
1710.228,710.17203,
1707.317,711.52871,
1704.407,710.07821,
1701.496,730.8406,
1698.586,764.29047,
1695.675,746.28941,
1692.764,761.91599,
1689.854,790.61911,
1686.943,763.85304,
1684.033,819.4345,
1681.122,804.16387,
1678.211,799.91307,
1675.301,834.76708,
1672.390,794.01557,
1669.480,840.58621,
1666.569,805.56058,
1663.659,859.25064,
1660.748,881.56649,
1657.837,866.50922,
1654.927,894.99215,
1652.016,900.36098,
1649.106,920.48703,
1646.195,945.18669,
1643.285,957.32812,
1640.374,933.83319,
1637.463,933.26212,
1634.553,1008.8307,
1631.642,1006.0922,
1628.732,1025.9165,
1625.821,1032.9129,
1622.911,1090.5482,
1620.000,1128.3962,
1617.089,1118.0939,
1614.179,1175.2111,
1611.268,1238.4956,
1608.358,1316.176,
1605.447,1304.7892,
1602.536,1344.878,
1599.626,1378.2328,
1596.715,1335.4949,
1593.805,1323.7203,
1590.894,1336.0851,
1587.984,1301.4991,
1585.073,1292.4717,
1582.162,1285.1959,
1579.252,1276.5103,
1576.341,1272.4718,
1573.431,1278.1404,
1570.520,1290.5763,
1567.610,1280.463,
1564.699,1260.6494,
1561.788,1242.9033,
1558.878,1265.8683,
1555.967,1249.8058,
1553.057,1261.6678,
1550.146,1232.6278,
1547.235,1196.6104,
1544.325,1182.392,
1541.414,1187.7563,
1538.504,1186.0575,
1535.593,1170.0059,
1532.683,1173.1441,
1529.772,1175.5439,
1526.861,1151.3912,
1523.951,1118.6934,
1521.040,1114.9481,
1518.130,1136.7085,
1515.219,1126.7546,
1512.309,1141.875,
1509.398,1138.8674,
1506.487,1129.867,
1503.577,1133.2908,
1500.666,1104.5685,
1497.756,1133.9513,
1494.845,1135.2752,
1491.934,1144.8498,
1489.024,1137.1499,
1486.113,1074.7516,
1483.203,1136.4876,
1480.292,1090.5703,
1477.382,1118.0544,
1474.471,1093.8777,
1471.560,1089.6803,
1468.650,1123.3056,
1465.739,1145.5609,
1462.829,1092.5805,
1459.918,1063.2673,
1457.008,1087.1214,
1454.097,1106.1101,
1451.186,1106.1323,
1448.276,1121.1683,
1445.365,1157.4824,
1442.455,1161.1483,
1439.544,1157.1638,
1436.633,1143.3219,
1433.723,1159.7353,
1430.812,1194.0228,
1427.902,1194.1387,
1424.991,1121.161,
1422.081,1183.0984,
1419.170,1173.3219,
1416.259,1168.4448,
1413.349,1159.5673,
1410.438,1207.9589,
1407.528,1199.6191,
1404.617,1205.773,
1401.707,1224.5247,
1398.796,1240.5638,
1395.885,1255.0482,
1392.975,1253.1666,
1390.064,1251.5807,
1387.154,1243.3979,
1384.243,1223.8759,
1381.332,1240.3498,
1378.422,1182.7733,
1375.511,1238.9802,
1372.601,1289.6398,
1369.690,1269.0155,
1366.780,1311.6051,
1363.869,1323.1485,
1360.958,1326.1761,
1358.048,1349.8275,
1355.137,1375.3887,
1352.227,1393.1103,
1349.316,1375.2681,
1346.406,1332.1943,
1343.495,1340.598,
1340.584,1363.875,
1337.674,1369.4494,
1334.763,1413.405,
1331.853,1348.4989,
1328.942,1434.8214,
1326.032,1353.7099,
1323.121,1328.4292,
1320.210,1359.5051,
1317.300,1312.7202,
1314.389,1309.473,
1311.479,1343.5061,
1308.568,1342.1853,
1305.657,1346.2226,
1302.747,1335.0553,
1299.836,1330.5777,
1296.926,1350.1314,
1294.015,1355.6473,
1291.105,1392.8578,
1288.194,1393.0825,
1285.283,1416.9351,
1282.373,1437.6328,
1279.462,1457.6002,
1276.552,1474.9144,
1273.641,1478.0789,
1270.731,1461.5839,
1267.820,1437.9137,
1264.909,1445.1391,
1261.999,1468.2758,
1259.088,1451.8576,
1256.178,1469.717,
1253.267,1459.8327,
1250.356,1422.6896,
1247.446,1396.3139,
1244.535,1374.009,
1241.625,1360.0861,
1238.714,1346.3069,
1235.804,1301.3896,
1232.893,1262.5021,
1229.982,1252.967,
1227.072,1255.6829,
1224.161,1250.832,
1221.251,1206.6935,
1218.340,1200.2966,
1215.430,1180.6514,
1212.519,1152.7253,
1209.608,1146.0644,
1206.698,1150.8537,
1203.787,1139.9303,
1200.877,1100.2183,
1197.966,1154.1678,
1195.055,1166.2607,
1192.145,1209.1989,
1189.234,1227.4165,
1186.324,1248.4222,
1183.413,1232.5196,
1180.503,1211.0868,
1177.592,1245.2487,
1174.681,1237.5942,
1171.771,1221.4011,
1168.860,1200.86,
1165.950,1162.592,
1163.039,1153.1766,
1160.129,1134.5895,
1157.218,1114.664,
1154.307,1130.2496,
1151.397,1155.5377,
1148.486,1113.9759,
1145.576,1109.299,
1142.665,1119.0661,
1139.754,1099.5343,
1136.844,1108.8811,
1133.933,1094.9338,
1131.023,1092.6774,
1128.112,1096.9477,
1125.202,1075.8026,
1122.291,1065.6405,
1119.380,1105.6585,
1116.470,1083.5953,
1113.559,1086.2877,
1110.649,1099.0074,
1107.738,1095.2303,
1104.828,1091.8682,
1101.917,1103.3131,
1099.006,1114.9265,
1096.096,1116.7035,
1093.185,1064.9014,
1090.275,1059.2565,
1087.364,1085.6338,
1084.453,1080.4386,
1081.543,1071.2572,
1078.632,1069.3535,
1075.722,1060.9616,
1072.811,1096.4955,
1069.901,1105.2281,
1066.990,1094.5584,
1064.079,1102.7632,
1061.169,1095.7244,
1058.258,1087.5689,
1055.348,1109.8642,
1052.437,1150.4955,
1049.527,1113.9491,
1046.616,1141.7517,
1043.705,1133.3135,
1040.795,1126.6825,
1037.884,1128.9209,
1034.974,1138.8338,
1032.063,1152.6903,
1029.153,1163.0055,
1026.242,1147.4363,
1023.331,1156.0411,
1020.421,1169.0286,
1017.510,1180.5983,
1014.600,1190.1043,
1011.689,1181.9066,
1008.778,1135.5859,
1005.868,1070.3538,
1002.957,1123.6957,
1000.047,1179.195,
997.136,1239.7498,
994.226,1293.5208,
991.315,1312.828,
988.404,1291.172,
985.494,1297.0886,
982.583,1261.9698,
979.673,1253.2168,
976.762,1246.004,
973.852,1239.6649,
970.941,1248.4338,
968.030,1274.0715,
965.120,1263.8571,
962.209,1259.5944,
959.299,1285.0802,
956.388,1282.4359,
953.477,1279.6845,
950.567,1290.875,
947.656,1291.3206,
944.746,1294.7189,
941.835,1301.3535,
938.925,1325.2487,
936.014,1327.7701,
933.103,1317.8157,
930.193,1311.6801,
927.282,1293.271,
924.372,1263.6748,
921.461,1261.3478,
918.551,1243.8661,
915.640,1220.2514,
912.729,1213.1206,
909.819,1230.8733,
906.908,1215.7097,
903.998,1234.7591,
901.087,1241.148,
898.176,1244.261,
895.266,1251.3186,
892.355,1264.3303,
889.445,1282.7942,
886.534,1291.2237,
883.624,1294.8935,
880.713,1286.6886,
877.802,1259.4632,
874.892,1207.5934,
871.981,1128.5865,
869.071,1031.6787,
866.160,1052.1328,
863.250,1154.8443,
860.339,1236.8127,
857.428,1252.8665,
854.518,1289.7196,
851.607,1249.7802,
848.697,1172.0298,
845.786,1128.4577,
842.875,1129.4101,
839.965,1173.3271,
837.054,1275.9308,
834.144,1280.9033,
831.233,1295.874,
828.323,1287.5433,
825.412,1277.6703,
822.501,1283.4706,
819.591,1247.9354,
816.680,1243.6699,
813.770,1243.5015,
810.859,1230.789,
807.949,1218.1823,
805.038,1228.5675,
802.127,1242.5606,
799.217,1228.2218,
796.306,1233.6589,
793.396,1251.2186,
790.485,1260.3999,
787.574,1240.4355,
784.664,1255.1975,
781.753,1251.8361,
778.843,1254.756,
775.932,1260.2577,
773.022,1258.6214,
770.111,1256.9862,
767.200,1285.8049,
764.290,1294.2971,
761.379,1282.8467,
758.469,1259.8063,
755.558,1236.9479,
752.648,1239.3917,
749.737,1235.3055,
746.826,1234.2737,
743.916,1237.8296,
741.005,1240.9492,
738.095,1223.8998,
735.184,1166.8154,
732.274,1084.9227,
729.363,1052.73,
726.452,1118.5325,
723.542,1243.9885,
720.631,1255.4622,
717.721,1248.2823,
714.810,1255.9601,
711.899,1275.8651,
708.989,1262.9543,
706.078,1265.2789,
703.168,1263.4461,
700.257,1260.6373,
697.347,1258.2229,
694.436,1256.5078,
691.525,1279.8182,
688.615,1242.7379,
685.704,1237.7329,
682.794,1256.6198,
679.883,1233.6319,
676.973,1250.4607,
674.062,1273.6555,
671.151,1280.93,
668.241,1274.4455,
665.330,1270.1775,
662.420,1276.5674,
659.509,1279.1449,
656.598,1270.3545,
653.688,1259.0252,
650.777,1262.47,
647.867,1250.525,
644.956,1227.443,
642.046,1208.656,
639.135,1190.0234,
636.224,1153.1456,
633.314,1207.1334,
630.403,1252.2092,
627.493,1270.4183,
624.582,1272.4676,
621.672,1306.5233,
618.761,1297.9958,
615.850,1309.2007,
612.940,1320.5335,
610.029,1325.0044,
607.119,1355.8,
604.208,1353.1949,
601.297,1356.3587,
598.387,1364.4547,
595.476,1369.538,
592.566,1355.3707,
589.655,1358.0581,
586.745,1348.7239,
583.834,1329.1421,
580.923,1315.8703,
578.013,1315.0855,
575.102,1332.0826,
572.192,1342.7313,
569.281,1341.5464,
566.371,1356.4162,
563.460,1349.4094,
560.549,1336.1294,
557.639,1341.1831,
554.728,1379.968,
551.818,1333.9293,
548.907,1358.0021,
545.996,1363.9346,
543.086,1339.5461,
540.175,1342.6606,
537.265,1337.0808,
534.354,1359.9595,
531.444,1376.5153,
528.533,1354.9854,
525.622,1356.5373,
522.712,1361.1223,
519.801,1376.0952,
516.891,1400.4136,
513.980,1422.8682,
511.070,1438.9619,
508.159,1459.202,
505.248,1477.629,
502.338,1486.2139,
499.427,1497.7914,
496.517,1511.6225,
493.606,1520.548,
490.695,1519.0934,
487.785,1499.0788,
484.874,1521.0777,
481.964,1534.875,
479.053,1529.5431,
476.143,1507.2722,
473.232,1502.278,
470.321,1500.3884,
467.411,1506.4598,
464.500,1526.8835,
461.590,1566.7019,
458.679,1572.3721,
455.769,1552.7519,
452.858,1522.4201,
449.947,1546.8659,
447.037,1554.9088,
444.126,1571.6629,
441.216,1588.6731,
438.305,1541.4334,
435.395,1530.2855,
432.484,1544.5451,
429.573,1563.4374,
426.663,1544.4339,
423.752,1390.1402,
420.842,1206.05,
417.931,1040.2342,
415.020,949.9896,
412.110,1197.0867,
409.199,1382.7624,
406.289,1478.1692,
403.378,1469.7316,
400.468,1427.3959,
397.557,1465.29,
394.646,1516.5685,
391.736,1524.5269,
388.825,1544.8912,
385.915,1544.4887,
383.004,1558.5775,
380.094,1608.3357,
377.183,1617.3654,
374.272,1629.645,
371.362,1658.1836,
368.451,1705.3705,
365.541,1680.6028,
362.630,1690.8085,
359.719,1700.4355,
356.809,1689.7844,
353.898,1688.2868,
350.988,1680.2802,
348.077,1677.0695,
345.167,1685.1399,
342.256,1690.3694,
339.345,1678.0578,
336.435,1675.5907,
333.524,1701.1099,
330.614,1708.5614,
327.703,1716.0091,
324.793,1716.4925,
321.882,1703.8389,
318.971,1688.9701,
316.061,1693.153,
313.150,1697.7941,
310.240,1681.4675,
307.329,1750.9094,
304.418,1746.0464,
301.508,1713.3735,
298.597,1737.8072,
295.687,1720.9123,
292.776,1730.6251,
289.866,1766.2164,
286.955,1810.54,
284.044,1828.26,
281.134,1847.4648,
278.223,1875.6652,
275.313,1922.0871,
272.402,1977.1854,
269.492,1972.1695,
266.581,1890.2969,
263.670,1882.21,
260.760,1885.6212,
257.849,1927.0594,
254.939,2030.5369,
252.028,2007.9881,
249.117,1983.3429,
246.207,1994.8019,
243.296,2110.4637,
240.386,2079.1246,
237.475,2082.3839,
234.565,2117.0527,
231.654,2067.3866,
228.743,2077.0129,
225.833,2089.4358,
222.922,2083.841,
220.012,2083.1125,
217.101,2055.3949,
214.191,2031.6833,
211.280,2047.6875,
208.369,2063.0041,
205.459,2087.8413,
202.548,2114.7497,
199.638,2114.024,
196.727,2117.9085,
193.816,2125.3903,
190.906,2136.4591,
187.995,2153.1116,
185.085,2149.4179,
182.174,2142.205,
179.264,2154.492,
176.353,2163.5643,
173.442,2159.5362,
170.532,2133.45,
167.621,2035.3974,
164.711,1994.1591,
161.800,1937.8662,
158.890,1811.9139,
155.979,1684.681,
153.068,1538.8707,
150.158,1373.8724,
147.247,1185.7689,
144.337,992.75475,
141.426,799.76293,
138.516,609.06986,
135.605,423.51792,
132.694,277.52168,
129.784,171.56164,
126.873,118.64203,
123.963,83.974054,
121.052,57.376323,
118.141,35.959263,
115.231,22.374163,
112.320,18.99318,
109.410,19.829671,
106.499,9.1473427,
103.589,10.796781,
100.678,13.331757,
97.767,11.909881,
94.857,9.7960329,
91.946,6.4563348,
89.036,2.9878979,
86.125,3.6971032,
83.215,2.2822389,
80.304,0.15670195,
77.393,-1.9678079,
74.483,-4.7455398,
71.572,-1.7767746,
68.662,5.9442675,
65.751,6.6507186,
62.840,6.875,
59.930,5.7512828,
57.019,1.5207909,
54.109,0.27783915,
51.198,0.47821855,
48.288,1.8976498,
45.377,4.711162,
42.466,7.111658,
39.556,6.5726284,
36.645,-7.4711759,
33.735,-2.2977761,
30.824,2.5616954,
27.914,-7.9559333,
25.003,-4.1439002,
22.092,-1.4479046,
19.182,-1.9419371,
16.271,3.653984,
13.361,26.947899,
10.450,46.13963,
7.539,-10.423915,
4.629,-257.98756,
1.718,-551.17479,
-1.192,-795.87252,
-4.103,-622.34038,
-7.013,-340.85002,
-9.924,0.875,
