,PL6A3E~1,
Wavenumbers [1/cm],Intensity,
3014.167,1.625,
3011.256,-3.2749785,
3008.346,41.475672,
3005.435,50.200971,
3002.525,38.49245,
2999.614,52.575654,
2996.704,46.084797,
2993.793,59.643432,
2990.882,73.869125,
2987.972,54.650225,
2985.061,63.615153,
2982.151,73.909038,
2979.240,71.14307,
2976.329,70.387286,
2973.419,62.055293,
2970.508,76.691693,
2967.598,71.621385,
2964.687,64.997282,
2961.777,76.001032,
2958.866,69.292162,
2955.955,72.419243,
2953.045,76.54223,
2950.134,73.954432,
2947.224,91.254905,
2944.313,87.613605,
2941.403,89.065238,
2938.492,100.49764,
2935.581,80.861865,
2932.671,88.942575,
2929.760,91.059638,
2926.850,88.461091,
2923.939,94.94274,
2921.028,101.8544,
2918.118,95.705606,
2915.207,91.795777,
2912.297,104.54461,
2909.386,96.997271,
2906.476,92.880608,
2903.565,87.446473,
2900.654,98.895991,
2897.744,86.650144,
2894.833,76.666459,
2891.923,86.384711,
2889.012,72.503612,
2886.102,47.335825,
2883.191,31.631608,
2880.280,-42.255411,
2877.370,-188.06658,
2874.459,-242.78384,
2871.549,-149.79482,
2868.638,26.86203,
2865.727,40.136447,
2862.817,73.981955,
2859.906,96.915604,
2856.996,87.10915,
2854.085,89.744746,
2851.175,93.362954,
2848.264,92.625,
2845.353,116.34463,
2842.443,107.21873,
2839.532,107.1922,
2836.622,89.169922,
2833.711,95.565357,
2830.801,113.51691,
2827.890,118.5603,
2824.979,108.267,
2822.069,119.67049,
2819.158,119.4444,
2816.248,118.60184,
2813.337,125.92379,
2810.427,119.31645,
2807.516,109.79063,
2804.605,103.42067,
2801.695,114.5066,
2798.784,116.21638,
2795.874,103.34004,
2792.963,116.12532,
2790.052,126.62436,
2787.142,110.26973,
2784.231,111.75388,
2781.321,108.68786,
2778.410,115.43463,
2775.500,122.85914,
2772.589,117.54854,
2769.678,122.30419,
2766.768,110.69683,
2763.857,117.09899,
2760.947,117.10924,
2758.036,130.72064,
2755.126,109.37928,
2752.215,120.58398,
2749.304,114.3696,
2746.394,125.14316,
2743.483,122.92499,
2740.573,126.51217,
2737.662,120.51849,
2734.751,129.76568,
2731.841,120.35393,
2728.930,122.88788,
2726.020,117.4213,
2723.109,113.00675,
2720.199,127.76252,
2717.288,128.43157,
2714.377,111.59614,
2711.467,128.19863,
2708.556,130.97616,
2705.646,133.54051,
2702.735,124.47295,
2699.825,133.24498,
2696.914,138.1491,
2694.003,112.68028,
2691.093,117.69601,
2688.182,125.71759,
2685.272,130.43012,
2682.361,122.93068,
2679.450,137.57971,
2676.540,124.68597,
2673.629,122.97929,
2670.719,136.10653,
2667.808,134.35453,
2664.898,146.50827,
2661.987,137.05832,
2659.076,136.625,
2656.166,135.81974,
2653.255,143.40561,
2650.345,153.65767,
2647.434,144.28204,
2644.524,137.53626,
2641.613,131.25354,
2638.702,129.64078,
2635.792,150.7207,
2632.881,139.08923,
2629.971,152.96735,
2627.060,140.45781,
2624.149,140.03126,
2621.239,140.63686,
2618.328,161.07397,
2615.418,146.30227,
2612.507,147.20996,
2609.597,154.25773,
2606.686,161.6772,
2603.775,151.70436,
2600.865,148.86049,
2597.954,164.05003,
2595.044,161.54529,
2592.133,169.84146,
2589.223,159.1671,
2586.312,158.99182,
2583.401,166.52281,
2580.491,163.26924,
2577.580,162.61675,
2574.670,157.90174,
2571.759,169.08475,
2568.848,156.22157,
2565.938,145.24393,
2563.027,161.35681,
2560.117,160.71845,
2557.206,159.625,
2554.296,150.88587,
2551.385,162.68296,
2548.474,166.77333,
2545.564,149.32142,
2542.653,172.99413,
2539.743,153.67429,
2536.832,161.70725,
2533.922,155.01923,
2531.011,179.07505,
2528.100,171.22777,
2525.190,172.74016,
2522.279,164.625,
2519.369,166.73808,
2516.458,169.4012,
2513.548,167.625,
2510.637,173.54724,
2507.726,182.31644,
2504.816,171.18757,
2501.905,167.56707,
2498.995,179.14725,
2496.084,176.83757,
2493.173,178.67732,
2490.263,182.59112,
2487.352,170.79353,
2484.442,201.32734,
2481.531,188.5082,
2478.621,181.67718,
2475.710,195.55599,
2472.799,186.625,
2469.889,185.65547,
2466.978,182.46007,
2464.068,199.82083,
2461.157,172.70492,
2458.247,188.61033,
2455.336,181.41364,
2452.425,189.88917,
2449.515,195.93687,
2446.604,213.27942,
2443.694,199.88075,
2440.783,201.86374,
2437.872,208.26035,
2434.962,198.09966,
2432.051,197.11266,
2429.141,194.77798,
2426.230,204.84271,
2423.320,200.78212,
2420.409,203.89419,
2417.498,204.63342,
2414.588,199.35505,
2411.677,208.80026,
2408.767,196.49015,
2405.856,219.52741,
2402.946,217.41678,
2400.035,203.44189,
2397.124,201.75868,
2394.214,217.9762,
2391.303,206.97866,
2388.393,205.34362,
2385.482,190.41811,
2382.571,191.48609,
2379.661,190.29924,
2376.750,213.57077,
2373.840,224.1156,
2370.929,220.67915,
2368.019,231.58866,
2365.108,232.85798,
2362.197,225.63869,
2359.287,234.8016,
2356.376,236.62676,
2353.466,229.27745,
2350.555,226.6854,
2347.645,249.54552,
2344.734,244.16876,
2341.823,230.80742,
2338.913,234.60558,
2336.002,223.59148,
2333.092,243.26842,
2330.181,253.11605,
2327.270,244.12005,
2324.360,250.95284,
2321.449,246.625,
2318.539,247.64641,
2315.628,250.01988,
2312.718,247.09196,
2309.807,258.10319,
2306.896,259.58587,
2303.986,246.36528,
2301.075,235.6676,
2298.165,232.41355,
2295.254,252.21568,
2292.344,263.30965,
2289.433,253.89909,
2286.522,255.05344,
2283.612,266.48469,
2280.701,262.02859,
2277.791,231.18792,
2274.880,272.47693,
2271.969,278.11471,
2269.059,276.91384,
2266.148,266.19762,
2263.238,275.71765,
2260.327,275.0732,
2257.417,268.57389,
2254.506,267.98396,
2251.595,263.76681,
2248.685,271.99036,
2245.774,277.32825,
2242.864,265.94918,
2239.953,273.35598,
2237.043,281.06643,
2234.132,280.82759,
2231.221,287.59918,
2228.311,287.01547,
2225.400,284.39984,
2222.490,276.99634,
2219.579,287.1726,
2216.669,303.12738,
2213.758,290.88381,
2210.847,290.26731,
2207.937,312.72921,
2205.026,298.84774,
2202.116,291.18019,
2199.205,300.96311,
2196.294,309.41894,
2193.384,325.625,
2190.473,312.75528,
2187.563,328.654,
2184.652,333.87194,
2181.742,324.01067,
2178.831,327.33324,
2175.920,352.12227,
2173.010,363.32568,
2170.099,370.09127,
2167.189,380.78286,
2164.278,405.11947,
2161.368,425.05292,
2158.457,444.97941,
2155.546,457.54905,
2152.636,476.65155,
2149.725,481.12836,
2146.815,527.98992,
2143.904,514.82203,
2140.993,516.00585,
2138.083,538.51864,
2135.172,538.05363,
2132.262,544.74736,
2129.351,536.82841,
2126.441,538.15899,
2123.530,517.0189,
2120.619,465.55152,
2117.709,476.04287,
2114.798,458.02869,
2111.888,420.7382,
2108.977,404.98924,
2106.067,394.76609,
2103.156,381.06698,
2100.245,381.62939,
2097.335,383.80825,
2094.424,349.34305,
2091.514,352.34006,
2088.603,344.6066,
2085.692,347.03757,
2082.782,349.26359,
2079.871,353.19676,
2076.961,349.94789,
2074.050,324.69167,
2071.140,344.17684,
2068.229,340.70702,
2065.318,356.60076,
2062.408,350.83681,
2059.497,345.64287,
2056.587,346.65996,
2053.676,343.80838,
2050.766,333.47179,
2047.855,338.42565,
2044.944,328.56571,
2042.034,320.71187,
2039.123,353.50379,
2036.213,354.00728,
2033.302,359.29907,
2030.391,346.11665,
2027.481,348.08837,
2024.570,347.93933,
2021.660,363.6198,
2018.749,352.43505,
2015.839,349.77723,
2012.928,356.49916,
2010.017,338.46865,
2007.107,353.55585,
2004.196,365.8155,
2001.286,368.18685,
1998.375,353.49114,
1995.465,331.31964,
1992.554,342.40133,
1989.643,356.21024,
1986.733,336.67851,
1983.822,341.99797,
1980.912,362.93147,
1978.001,345.50626,
1975.090,350.82042,
1972.180,355.03856,
1969.269,356.49281,
1966.359,337.4626,
1963.448,361.95923,
1960.538,354.33726,
1957.627,366.56619,
1954.716,362.79736,
1951.806,351.41985,
1948.895,367.77276,
1945.985,374.80801,
1943.074,364.3336,
1940.164,349.53855,
1937.253,355.76415,
1934.342,357.65067,
1931.432,355.42942,
1928.521,343.18286,
1925.611,341.50809,
1922.700,362.41091,
1919.790,371.93131,
1916.879,371.69475,
1913.968,359.63975,
1911.058,374.16254,
1908.147,362.17824,
1905.237,328.41178,
1902.326,333.77908,
1899.415,329.2811,
1896.505,329.05872,
1893.594,317.99387,
1890.684,332.92549,
1887.773,356.04743,
1884.863,363.91657,
1881.952,369.32249,
1879.041,396.85865,
1876.131,395.85245,
1873.220,337.83716,
1870.310,375.10922,
1867.399,407.16119,
1864.489,386.58606,
1861.578,382.91642,
1858.667,359.2657,
1855.757,373.03073,
1852.846,366.37372,
1849.936,381.9493,
1847.025,422.09458,
1844.114,395.24136,
1841.204,382.90471,
1838.293,408.15244,
1835.383,388.8925,
1832.472,400.85804,
1829.562,419.56823,
1826.651,394.53879,
1823.740,393.72847,
1820.830,377.79017,
1817.919,410.71507,
1815.009,448.73695,
1812.098,391.68803,
1809.188,444.65587,
1806.277,417.33322,
1803.366,412.74145,
1800.456,418.69073,
1797.545,403.63913,
1794.635,414.01201,
1791.724,413.48912,
1788.813,395.22191,
1785.903,379.76264,
1782.992,361.16151,
1780.082,354.79218,
1777.171,309.27702,
1774.261,246.95985,
1771.350,283.48952,
1768.439,374.94629,
1765.529,404.71762,
1762.618,426.7369,
1759.708,448.84249,
1756.797,446.79167,
1753.887,463.13957,
1750.976,461.21794,
1748.065,440.09505,
1745.155,434.07018,
1742.244,426.66577,
1739.334,415.40853,
1736.423,442.00627,
1733.512,464.81202,
1730.602,429.72812,
1727.691,452.70505,
1724.781,480.14311,
1721.870,470.94397,
1718.960,491.46973,
1716.049,447.12549,
1713.138,473.53482,
1710.228,477.01411,
1707.317,486.35529,
1704.407,482.23462,
1701.496,480.71345,
1698.586,500.95266,
1695.675,484.84654,
1692.764,513.9201,
1689.854,495.53444,
1686.943,500.42265,
1684.033,559.13483,
1681.122,513.44064,
1678.211,531.44417,
1675.301,508.69592,
1672.390,542.67584,
1669.480,559.64907,
1666.569,562.05368,
1663.659,518.32729,
1660.748,561.64693,
1657.837,613.25321,
1654.927,596.60157,
1652.016,596.32967,
1649.106,623.86609,
1646.195,592.92968,
1643.285,565.83269,
1640.374,617.89678,
1637.463,631.20147,
1634.553,663.27523,
1631.642,706.93988,
1628.732,735.50649,
1625.821,715.67865,
1622.911,797.16292,
1620.000,822.31003,
1617.089,900.05286,
1614.179,892.87881,
1611.268,988.90721,
1608.358,999.29724,
1605.447,1033.5681,
1602.536,1047.7395,
1599.626,1051.3848,
1596.715,1061.6086,
1593.805,1037.5837,
1590.894,1024.9376,
1587.984,997.64224,
1585.073,1016.5971,
1582.162,1004.7622,
1579.252,972.16616,
1576.341,1001.6729,
1573.431,975.38216,
1570.520,977.85503,
1567.610,951.82062,
1564.699,956.1256,
1561.788,951.06172,
1558.878,956.86645,
1555.967,943.12639,
1553.057,920.86651,
1550.146,897.03231,
1547.235,883.67337,
1544.325,874.27309,
1541.414,859.98408,
1538.504,850.05599,
1535.593,836.91288,
1532.683,829.30015,
1529.772,831.03754,
1526.861,809.92254,
1523.951,786.60676,
1521.040,783.4033,
1518.130,781.958,
1515.219,800.18601,
1512.309,775.53494,
1509.398,792.73548,
1506.487,751.96324,
1503.577,784.15188,
1500.666,796.45449,
1497.756,734.29482,
1494.845,767.06524,
1491.934,777.52736,
1489.024,747.69008,
1486.113,754.04272,
1483.203,712.88112,
1480.292,678.77561,
1477.382,684.13223,
1474.471,722.69181,
1471.560,703.87269,
1468.650,672.81006,
1465.739,684.12068,
1462.829,691.44728,
1459.918,675.91771,
1457.008,681.36366,
1454.097,704.01953,
1451.186,703.89193,
1448.276,687.56634,
1445.365,693.80588,
1442.455,728.18467,
1439.544,726.10721,
1436.633,661.07187,
1433.723,678.48227,
1430.812,719.625,
1427.902,720.36914,
1424.991,751.6453,
1422.081,706.75115,
1419.170,710.40154,
1416.259,701.90424,
1413.349,722.28223,
1410.438,720.52786,
1407.528,716.625,
1404.617,664.37059,
1401.707,668.96036,
1398.796,736.30674,
1395.885,733.41996,
1392.975,713.20969,
1390.064,747.60872,
1387.154,696.97143,
1384.243,726.93522,
1381.332,722.85034,
1378.422,714.78941,
1375.511,679.19173,
1372.601,740.37021,
1369.690,742.19611,
1366.780,799.44357,
1363.869,781.20706,
1360.958,783.80997,
1358.048,831.9702,
1355.137,849.11132,
1352.227,835.96485,
1349.316,852.62176,
1346.406,888.49881,
1343.495,883.91242,
1340.584,864.48124,
1337.674,923.3034,
1334.763,920.48386,
1331.853,916.77493,
1328.942,948.64571,
1326.032,924.07828,
1323.121,965.04672,
1320.210,936.34239,
1317.300,936.05382,
1314.389,965.50027,
1311.479,964.20763,
1308.568,962.14779,
1305.657,1000.6156,
1302.747,1013.1111,
1299.836,977.64472,
1296.926,1023.5306,
1294.015,1086.0446,
1291.105,1092.1472,
1288.194,1130.9647,
1285.283,1143.489,
1282.373,1185.1249,
1279.462,1210.821,
1276.552,1230.7432,
1273.641,1245.9309,
1270.731,1240.7414,
1267.820,1237.122,
1264.909,1184.1743,
1261.999,1176.5543,
1259.088,1256.821,
1256.178,1201.6731,
1253.267,1195.461,
1250.356,1183.7572,
1247.446,1127.1665,
1244.535,1081.2188,
1241.625,1061.7435,
1238.714,1043.6432,
1235.804,1030.659,
1232.893,1019.3816,
1229.982,989.53301,
1227.072,986.81707,
1224.161,979.06047,
1221.251,948.58914,
1218.340,943.8075,
1215.430,921.85091,
1212.519,900.26672,
1209.608,895.78999,
1206.698,894.96553,
1203.787,904.35364,
1200.877,886.73644,
1197.966,888.53476,
1195.055,921.04845,
1192.145,946.15993,
1189.234,994.7965,
1186.324,1023.0801,
1183.413,1024.5336,
1180.503,1028.3819,
1177.592,1032.4732,
1174.681,996.13185,
1171.771,999.37774,
1168.860,988.66066,
1165.950,969.88663,
1163.039,952.35535,
1160.129,961.37138,
1157.218,964.8947,
1154.307,961.70628,
1151.397,952.72359,
1148.486,905.22729,
1145.576,893.47528,
1142.665,936.0951,
1139.754,926.60694,
1136.844,920.12349,
1133.933,910.41391,
1131.023,910.76225,
1128.112,900.84172,
1125.202,875.4559,
1122.291,890.49966,
1119.380,889.55571,
1116.470,882.49548,
1113.559,881.625,
1110.649,890.13799,
1107.738,903.19809,
1104.828,915.61819,
1101.917,911.38192,
1099.006,886.02703,
1096.096,892.57125,
1093.185,891.69324,
1090.275,918.33092,
1087.364,909.5303,
1084.453,909.93704,
1081.543,910.80457,
1078.632,903.68482,
1075.722,902.37724,
1072.811,903.70138,
1069.901,876.63029,
1066.990,898.06661,
1064.079,902.94449,
1061.169,921.95554,
1058.258,933.39014,
1055.348,933.50417,
1052.437,946.64107,
1049.527,941.5243,
1046.616,938.91781,
1043.705,959.43566,
1040.795,955.40893,
1037.884,949.11926,
1034.974,954.58376,
1032.063,968.6787,
1029.153,981.625,
1026.242,981.625,
1023.331,1006.6234,
1020.421,990.01485,
1017.510,986.22776,
1014.600,986.81863,
1011.689,982.76528,
1008.778,985.625,
1005.868,985.6945,
1002.957,993.43769,
1000.047,1031.025,
997.136,1088.0871,
994.226,1114.6097,
991.315,1126.0656,
988.404,1152.9244,
985.494,1097.8935,
982.583,1109.8853,
979.673,1108.6984,
976.762,1105.2766,
973.852,1108.9291,
970.941,1115.0322,
968.030,1112.2724,
965.120,1104.5892,
962.209,1096.0638,
959.299,1122.2467,
956.388,1116.2661,
953.477,1102.625,
950.567,1119.3561,
947.656,1164.5082,
944.746,1148.3666,
941.835,1140.3367,
938.925,1144.5475,
936.014,1159.7648,
933.103,1161.7384,
930.193,1137.033,
927.282,1110.1209,
924.372,1100.8192,
921.461,1079.7422,
918.551,1056.9398,
915.640,1039.6758,
912.729,1032.4301,
909.819,1034.1802,
906.908,1030.8105,
903.998,1045.7369,
901.087,1062.9916,
898.176,1062.9899,
895.266,1075.2559,
892.355,1116.6409,
889.445,1100.6948,
886.534,1126.506,
883.624,1129.6065,
880.713,1120.9697,
877.802,1105.9824,
874.892,1082.6165,
871.981,1040.3168,
869.071,942.57352,
866.160,912.51577,
863.250,981.586,
860.339,1071.8194,
857.428,1107.4162,
854.518,1088.5177,
851.607,1050.2425,
848.697,974.84329,
845.786,953.48536,
842.875,966.47003,
839.965,984.22238,
837.054,1032.9599,
834.144,1062.795,
831.233,1094.6231,
828.323,1105.1521,
825.412,1095.2199,
822.501,1075.1568,
819.591,1050.3648,
816.680,1054.4327,
813.770,1033.6974,
810.859,1008.8927,
807.949,1000.1372,
805.038,1017.5122,
802.127,1041.3829,
799.217,1012.3186,
796.306,1019.2197,
793.396,1018.2203,
790.485,998.15197,
787.574,1007.0645,
784.664,992.3025,
781.753,1017.1353,
778.843,1032.0952,
775.932,1032.3905,
773.022,1031.4002,
770.111,1042.8463,
767.200,1041.3411,
764.290,1047.5595,
761.379,1050.2618,
758.469,1042.8582,
755.558,1028.8195,
752.648,1035.3363,
749.737,1030.0971,
746.826,1012.6384,
743.916,997.46267,
741.005,995.8651,
738.095,962.57815,
735.184,905.71058,
732.274,846.76039,
729.363,839.52344,
726.452,906.9504,
723.542,986.27095,
720.631,989.86046,
717.721,1006.2375,
714.810,1031.1874,
711.899,1045.9814,
708.989,1021.7737,
706.078,1016.0159,
703.168,1014.625,
700.257,1003.4856,
697.347,990.01605,
694.436,999.14873,
691.525,1018.4401,
688.615,998.09746,
685.704,994.84903,
682.794,1011.0292,
679.883,1016.454,
676.973,1034.8855,
674.062,1045.0058,
671.151,1031.0918,
668.241,1008.8632,
665.330,1010.7973,
662.420,1035.558,
659.509,1027.9264,
656.598,1021.4905,
653.688,1019.8645,
650.777,1010.328,
647.867,1001.5684,
644.956,1004.5782,
642.046,974.87175,
639.135,938.68624,
636.224,976.63296,
633.314,978.22083,
630.403,1021.7834,
627.493,1053.9294,
624.582,1052.1513,
621.672,1027.5995,
618.761,1044.1036,
615.850,1065.0527,
612.940,1084.1142,
610.029,1091.4956,
607.119,1060.7,
604.208,1036.3246,
601.297,1035.1028,
598.387,1044.3448,
595.476,1050.9277,
592.566,1075.3268,
589.655,1069.9066,
586.745,1066.7948,
583.834,1062.5983,
580.923,1037.6203,
578.013,1036.8355,
575.102,1026.3004,
572.192,1020.4114,
569.281,1025.734,
566.371,1037.4734,
563.460,1044.9742,
560.549,1080.7599,
557.639,1097.3627,
554.728,1047.2308,
551.818,1040.9883,
548.907,1085.331,
545.996,1095.5743,
543.086,1069.148,
540.175,1085.4996,
537.265,1096.0406,
534.354,1096.6149,
531.444,1081.9214,
528.533,1054.66,
525.622,1097.3371,
522.712,1107.8385,
519.801,1116.6445,
516.891,1131.5031,
513.980,1140.7946,
511.070,1147.9641,
508.159,1160.6539,
505.248,1187.3978,
502.338,1234.2861,
499.427,1222.7086,
496.517,1236.029,
493.606,1254.0089,
490.695,1262.9132,
487.785,1250.5966,
484.874,1261.5495,
481.964,1266.9639,
479.053,1265.3604,
476.143,1268.4323,
473.232,1247.0429,
470.321,1242.5176,
467.411,1232.9489,
464.500,1193.1874,
461.590,1215.3939,
458.679,1219.9741,
455.769,1215.4744,
452.858,1213.4766,
449.947,1260.0764,
447.037,1286.0075,
444.126,1278.5099,
441.216,1251.5937,
438.305,1274.4516,
435.395,1311.7181,
432.484,1305.0366,
429.573,1273.6425,
426.663,1286.5649,
423.752,1241.5953,
420.842,1037.1239,
417.931,806.42062,
415.020,766.986,
412.110,941.94377,
409.199,1086.8205,
406.289,1193.7471,
403.378,1264.2715,
400.468,1159.9443,
397.557,1165.1862,
394.646,1219.4018,
391.736,1268.1562,
388.825,1284.7493,
385.915,1305.0586,
383.004,1313.4852,
380.094,1301.5463,
377.183,1319.6058,
374.272,1337.6517,
371.362,1369.5222,
368.451,1416.7072,
365.541,1368.6729,
362.630,1378.0209,
359.719,1400.4726,
356.809,1409.8969,
353.898,1414.3896,
350.988,1437.3245,
348.077,1446.9127,
345.167,1425.5872,
342.256,1424.8401,
339.345,1414.5278,
336.435,1410.3441,
333.524,1422.3197,
330.614,1412.6326,
327.703,1412.192,
324.793,1413.0783,
321.882,1408.7007,
318.971,1439.9253,
316.061,1432.5574,
313.150,1423.5559,
310.240,1455.4669,
307.329,1448.0494,
304.418,1461.0393,
301.508,1471.9604,
298.597,1439.382,
295.687,1447.4608,
292.776,1454.7083,
289.866,1460.7388,
286.955,1475.5133,
284.044,1506.72,
281.134,1544.3611,
278.223,1588.1397,
275.313,1646.3513,
272.402,1656.3014,
269.492,1634.9801,
266.581,1590.523,
263.670,1561.1158,
260.760,1599.6395,
257.849,1651.607,
254.939,1677.2928,
252.028,1690.6542,
249.117,1717.5527,
246.207,1748.5497,
243.296,1767.5826,
240.386,1765.707,
237.475,1739.037,
234.565,1701.0054,
231.654,1709.77,
228.743,1705.296,
225.833,1687.8194,
222.922,1660.1538,
220.012,1692.9388,
217.101,1692.8293,
214.191,1684.9034,
211.280,1695.8153,
208.369,1664.33,
205.459,1618.6812,
202.548,1590.4217,
199.638,1687.6587,
196.727,1667.8661,
193.816,1656.6864,
190.906,1697.4314,
187.995,1663.4023,
185.085,1691.8177,
182.174,1728.0061,
179.264,1696.2044,
176.353,1712.4891,
173.442,1711.6606,
170.532,1692.9772,
167.621,1713.1645,
164.711,1691.2955,
161.800,1628.5315,
158.890,1516.9737,
155.979,1368.5202,
153.068,1260.2463,
150.158,1174.9056,
147.247,1041.3665,
144.337,859.94711,
141.426,675.30837,
138.516,507.55582,
135.605,371.11594,
132.694,251.62891,
129.784,154.86912,
126.873,104.81003,
123.963,73.000335,
121.052,48.126323,
118.141,26.709263,
115.231,22.361578,
112.320,24.437723,
109.410,27.716026,
106.499,17.745853,
103.589,10.022455,
100.678,7.5263519,
97.767,12.502915,
94.857,9.1600548,
91.946,7.625,
89.036,6.7218167,
86.125,1.0481746,
83.215,1.7486814,
80.304,2.9067019,
77.393,0.78219213,
74.483,5.8660797,
71.572,7.5379437,
68.662,5.8328025,
65.751,7.9521557,
62.840,8.625,
59.930,8.2504276,
57.019,6.8402636,
54.109,7.2221608,
51.198,6.1169536,
48.288,2.5966878,
45.377,-0.92020254,
42.466,1.3349741,
39.556,6.1645257,
36.645,3.3557648,
33.735,4.1827454,
30.824,5.1832261,
27.914,3.7808756,
25.003,7.9834623,
22.092,14.822759,
19.182,23.808063,
16.271,29.403984,
13.361,158.90531,
10.450,391.55646,
7.539,728.14447,
4.629,828.0168,
1.718,702.9959,
-1.192,257.52054,
-4.103,71.799069,
-7.013,-6.8146644,
-9.924,3.625,
