,PL7E8B~1,
Wavenumbers [1/cm],Intensity,
3014.167,2.625,
3011.256,-1.9250107,
3008.346,40.879541,
3005.435,67.97129,
3002.525,53.567394,
2999.614,54.328927,
2996.704,62.403354,
2993.793,75.643432,
2990.882,72.357767,
2987.972,73.559415,
2985.061,72.152108,
2982.151,88.386346,
2979.240,76.423469,
2976.329,84.625,
2973.419,81.071213,
2970.508,80.47499,
2967.598,81.672791,
2964.687,87.878396,
2961.777,98.154961,
2958.866,95.954869,
2955.955,99.107303,
2953.045,113.05675,
2950.134,103.44425,
2947.224,110.79581,
2944.313,117.07443,
2941.403,120.23221,
2938.492,134.49764,
2935.581,124.01767,
2932.671,121.53911,
2929.760,109.80195,
2926.850,118.99079,
2923.939,126.46142,
2921.028,141.70738,
2918.118,135.76227,
2915.207,124.80868,
2912.297,141.58692,
2909.386,132.22354,
2906.476,128.40029,
2903.565,116.05832,
2900.654,146.11945,
2897.744,115.75072,
2894.833,117.79009,
2891.923,128.51931,
2889.012,104.20881,
2886.102,96.584466,
2883.191,68.647656,
2880.280,4.4910028,
2877.370,-106.45621,
2874.459,-157.31837,
2871.549,-68.637123,
2868.638,93.952753,
2865.727,96.948019,
2862.817,110.42447,
2859.906,128.08084,
2856.996,132.12274,
2854.085,130.86449,
2851.175,133.57682,
2848.264,149.88999,
2845.353,129.99164,
2842.443,144.62848,
2839.532,131.53551,
2836.622,118.93424,
2833.711,143.36597,
2830.801,142.22206,
2827.890,147.25088,
2824.979,149.05702,
2822.069,160.64774,
2819.158,158.4444,
2816.248,141.16553,
2813.337,156.81037,
2810.427,153.6181,
2807.516,165.625,
2804.605,146.09857,
2801.695,161.88816,
2798.784,151.586,
2795.874,147.46931,
2792.963,160.91074,
2790.052,160.62521,
2787.142,146.65123,
2784.231,149.68865,
2781.321,149.63076,
2778.410,162.55013,
2775.500,151.96638,
2772.589,147.74044,
2769.678,144.91171,
2766.768,139.81335,
2763.857,150.67702,
2760.947,152.16598,
2758.036,163.70783,
2755.126,153.14637,
2752.215,158.56135,
2749.304,151.51889,
2746.394,174.44963,
2743.483,164.27499,
2740.573,165.625,
2737.662,161.51849,
2734.751,168.53271,
2731.841,160.9217,
2728.930,157.58273,
2726.020,151.96701,
2723.109,147.09942,
2720.199,171.09699,
2717.288,156.25639,
2714.377,155.88336,
2711.467,166.96896,
2708.556,180.625,
2705.646,168.79398,
2702.735,176.12242,
2699.825,177.53774,
2696.914,163.81498,
2694.003,172.39573,
2691.093,168.24956,
2688.182,160.44352,
2685.272,180.87251,
2682.361,166.53657,
2679.450,187.65788,
2676.540,169.66565,
2673.629,172.62051,
2670.719,177.83665,
2667.808,189.13864,
2664.898,185.80691,
2661.987,184.02507,
2659.076,190.98922,
2656.166,179.91506,
2653.255,173.73724,
2650.345,200.41811,
2647.434,185.88222,
2644.524,187.08063,
2641.613,179.13914,
2638.702,191.38828,
2635.792,192.87723,
2632.881,189.48191,
2629.971,207.4774,
2627.060,184.28938,
2624.149,204.00312,
2621.239,198.86166,
2618.328,210.625,
2615.418,204.65227,
2612.507,195.1072,
2609.597,193.90045,
2606.686,206.53462,
2603.775,194.42659,
2600.865,199.625,
2597.954,199.43334,
2595.044,199.58957,
2592.133,207.01353,
2589.223,212.86606,
2586.312,210.33352,
2583.401,215.03375,
2580.491,217.15864,
2577.580,206.6217,
2574.670,204.34826,
2571.759,214.63527,
2568.848,211.27687,
2565.938,213.86315,
2563.027,204.06365,
2560.117,201.53155,
2557.206,212.56965,
2554.296,205.71425,
2551.385,215.36895,
2548.474,205.10641,
2545.564,210.40341,
2542.653,226.54111,
2539.743,208.76055,
2536.832,221.7895,
2533.922,201.08231,
2531.011,226.0503,
2528.100,218.22431,
2525.190,227.53074,
2522.279,223.5781,
2519.369,222.02126,
2516.458,230.07613,
2513.548,217.39801,
2510.637,210.28503,
2507.726,234.37593,
2504.816,228.24958,
2501.905,219.9439,
2498.995,237.32641,
2496.084,233.85149,
2493.173,243.25679,
2490.263,231.87243,
2487.352,244.29113,
2484.442,234.34663,
2481.531,232.31113,
2478.621,235.625,
2475.710,231.96238,
2472.799,269.45915,
2469.889,240.92969,
2466.978,235.6765,
2464.068,250.07478,
2461.157,263.42763,
2458.247,242.90443,
2455.336,251.87941,
2452.425,250.27594,
2449.515,258.85162,
2446.604,261.63195,
2443.694,252.95066,
2440.783,265.1509,
2437.872,251.29682,
2434.962,246.82776,
2432.051,249.84706,
2429.141,252.01309,
2426.230,256.625,
2423.320,267.15363,
2420.409,264.625,
2417.498,268.21489,
2414.588,258.3627,
2411.677,268.72854,
2408.767,258.28444,
2405.856,291.58932,
2402.946,274.72598,
2400.035,253.54283,
2397.124,283.8496,
2394.214,276.54181,
2391.303,264.05589,
2388.393,271.86454,
2385.482,238.21123,
2382.571,254.25751,
2379.661,270.97378,
2376.750,267.94279,
2373.840,268.68434,
2370.929,298.32177,
2368.019,287.15581,
2365.108,281.71662,
2362.197,291.44416,
2359.287,291.01999,
2356.376,303.60387,
2353.466,286.89904,
2350.555,271.18013,
2347.645,293.79451,
2344.734,303.26094,
2341.823,306.55867,
2338.913,301.49364,
2336.002,281.24232,
2333.092,291.78542,
2330.181,314.37947,
2327.270,303.28506,
2324.360,310.23819,
2321.449,316.10118,
2318.539,313.26416,
2315.628,303.58383,
2312.718,291.32544,
2309.807,310.73693,
2306.896,302.15239,
2303.986,310.01459,
2301.075,306.00798,
2298.165,299.24027,
2295.254,320.12951,
2292.344,323.41337,
2289.433,319.89909,
2286.522,321.56683,
2283.612,318.30354,
2280.701,322.60704,
2277.791,308.18605,
2274.880,322.26699,
2271.969,333.52212,
2269.059,339.80483,
2266.148,328.51816,
2263.238,337.42036,
2260.327,339.10782,
2257.417,343.49,
2254.506,338.6478,
2251.595,347.33406,
2248.685,335.42121,
2245.774,362.064,
2242.864,350.49533,
2239.953,349.08016,
2237.043,349.84572,
2234.132,356.8847,
2231.221,358.65082,
2228.311,340.9678,
2225.400,331.76573,
2222.490,342.38083,
2219.579,369.33452,
2216.669,370.63454,
2213.758,364.05898,
2210.847,367.26731,
2207.937,383.97351,
2205.026,371.18039,
2202.116,378.24708,
2199.205,385.21253,
2196.294,399.23696,
2193.384,404.94099,
2190.473,387.18134,
2187.563,414.62983,
2184.652,414.57072,
2181.742,409.80696,
2178.831,427.13479,
2175.920,443.87637,
2173.010,461.47647,
2170.099,453.89335,
2167.189,473.84744,
2164.278,505.9456,
2161.368,526.48059,
2158.457,556.50686,
2155.546,576.04812,
2152.636,614.5292,
2149.725,631.94714,
2146.815,632.65837,
2143.904,670.625,
2140.993,676.21223,
2138.083,696.08396,
2135.172,697.6334,
2132.262,699.7544,
2129.351,684.25593,
2126.441,669.79002,
2123.530,659.09747,
2120.619,610.42326,
2117.709,593.98812,
2114.798,569.14403,
2111.888,534.96279,
2108.977,511.45943,
2106.067,486.45744,
2103.156,466.6678,
2100.245,472.61935,
2097.335,461.45746,
2094.424,446.82175,
2091.514,448.47982,
2088.603,430.86008,
2085.692,424.49112,
2082.782,415.0749,
2079.871,417.66117,
2076.961,412.14162,
2074.050,398.46742,
2071.140,428.67145,
2068.229,404.15624,
2065.318,417.7975,
2062.408,406.20821,
2059.497,421.06551,
2056.587,411.2184,
2053.676,404.89147,
2050.766,400.08688,
2047.855,411.62823,
2044.944,381.08332,
2042.034,400.78103,
2039.123,400.80682,
2036.213,416.41388,
2033.302,413.08153,
2030.391,418.42145,
2027.481,425.34448,
2024.570,444.32453,
2021.660,402.4632,
2018.749,410.08089,
2015.839,420.41437,
2012.928,408.25755,
2010.017,404.98766,
2007.107,427.36892,
2004.196,418.45831,
2001.286,406.18685,
1998.375,398.4498,
1995.465,417.86339,
1992.554,377.17246,
1989.643,377.38305,
1986.733,368.73202,
1983.822,371.18925,
1980.912,372.34759,
1978.001,370.26879,
1975.090,386.60974,
1972.180,404.21009,
1969.269,408.13359,
1966.359,412.65217,
1963.448,413.51139,
1960.538,395.39481,
1957.627,380.03366,
1954.716,426.21739,
1951.806,411.92307,
1948.895,411.50364,
1945.985,376.56945,
1943.074,392.6879,
1940.164,368.53855,
1937.253,383.80309,
1934.342,386.05228,
1931.432,368.38841,
1928.521,372.01533,
1925.611,375.46268,
1922.700,381.74793,
1919.790,382.76374,
1916.879,364.01999,
1913.968,378.60533,
1911.058,387.15353,
1908.147,388.38115,
1905.237,354.97064,
1902.326,375.65909,
1899.415,350.29695,
1896.505,332.39588,
1893.594,306.53354,
1890.684,332.92549,
1887.773,371.06429,
1884.863,382.26281,
1881.952,387.50745,
1879.041,409.29375,
1876.131,384.67861,
1873.220,355.83288,
1870.310,369.33349,
1867.399,415.88929,
1864.489,378.98802,
1861.578,407.48803,
1858.667,360.70582,
1855.757,379.62142,
1852.846,376.58912,
1849.936,376.78613,
1847.025,421.39143,
1844.114,403.56614,
1841.204,402.15647,
1838.293,400.65493,
1835.383,382.625,
1832.472,398.63717,
1829.562,408.3474,
1826.651,373.43613,
1823.740,409.31092,
1820.830,400.84523,
1817.919,384.48124,
1815.009,431.43033,
1812.098,401.92424,
1809.188,418.26061,
1806.277,456.78399,
1803.366,386.39027,
1800.456,431.07543,
1797.545,419.87332,
1794.635,403.52801,
1791.724,409.79005,
1788.813,417.23349,
1785.903,437.52814,
1782.992,410.38206,
1780.082,363.21012,
1777.171,301.95958,
1774.261,290.19967,
1771.350,309.11502,
1768.439,387.15769,
1765.529,404.62688,
1762.618,426.77064,
1759.708,441.20112,
1756.797,442.47348,
1753.887,477.85823,
1750.976,463.57986,
1748.065,460.04589,
1745.155,448.52197,
1742.244,432.625,
1739.334,433.99441,
1736.423,442.39695,
1733.512,442.71442,
1730.602,440.12897,
1727.691,469.56376,
1724.781,463.68005,
1721.870,466.8679,
1718.960,489.1808,
1716.049,467.61678,
1713.138,471.17496,
1710.228,451.73787,
1707.317,477.81586,
1704.407,514.8657,
1701.496,467.57832,
1698.586,487.57258,
1695.675,488.68929,
1692.764,528.38732,
1689.854,507.66436,
1686.943,520.15284,
1684.033,545.97926,
1681.122,514.18575,
1678.211,529.47272,
1675.301,506.69592,
1672.390,558.52631,
1669.480,525.78544,
1666.569,545.3203,
1663.659,523.35623,
1660.748,627.06583,
1657.837,599.14987,
1654.927,622.41414,
1652.016,614.28107,
1649.106,639.52335,
1646.195,596.41622,
1643.285,629.03516,
1640.374,647.75391,
1637.463,700.57096,
1634.553,698.45256,
1631.642,753.74444,
1628.732,764.77906,
1625.821,790.66098,
1622.911,845.31507,
1620.000,895.98247,
1617.089,949.55037,
1614.179,1003.1021,
1611.268,1094.1675,
1608.358,1151.0029,
1605.447,1173.4252,
1602.536,1166.238,
1599.626,1213.4615,
1596.715,1206.7338,
1593.805,1193.1044,
1590.894,1163.4436,
1587.984,1124.1152,
1585.073,1136.4922,
1582.162,1145.4692,
1579.252,1088.5256,
1576.341,1087.641,
1573.431,1083.5764,
1570.520,1090.0331,
1567.610,1062.8206,
1564.699,1075.1009,
1561.788,1035.7381,
1558.878,1023.8182,
1555.967,995.91309,
1553.057,993.65934,
1550.146,972.74143,
1547.235,962.88957,
1544.325,956.1833,
1541.414,929.34317,
1538.504,906.91796,
1535.593,898.16426,
1532.683,869.52074,
1529.772,851.85603,
1526.861,847.28995,
1523.951,814.4886,
1521.040,809.74587,
1518.130,808.33482,
1515.219,829.94565,
1512.309,808.1205,
1509.398,801.89129,
1506.487,774.71156,
1503.577,781.8293,
1500.666,791.82688,
1497.756,769.39616,
1494.845,766.625,
1491.934,766.65965,
1489.024,777.24707,
1486.113,719.21042,
1483.203,718.17767,
1480.292,698.26072,
1477.382,720.48894,
1474.471,705.13839,
1471.560,688.46567,
1468.650,660.71042,
1465.739,682.93049,
1462.829,692.67274,
1459.918,683.31005,
1457.008,688.24048,
1454.097,694.70068,
1451.186,685.30779,
1448.276,668.09046,
1445.365,670.51994,
1442.455,690.97857,
1439.544,662.47235,
1436.633,604.87724,
1433.723,605.47322,
1430.812,660.75392,
1427.902,577.24077,
1424.991,687.18121,
1422.081,609.88702,
1419.170,616.44997,
1416.259,616.19481,
1413.349,623.93265,
1410.438,616.82808,
1407.528,640.94963,
1404.617,619.63592,
1401.707,612.17292,
1398.796,643.72986,
1395.885,625.48691,
1392.975,591.20898,
1390.064,616.09329,
1387.154,615.56947,
1384.243,640.41788,
1381.332,627.87441,
1378.422,574.88093,
1375.511,599.23724,
1372.601,668.74278,
1369.690,688.34056,
1366.780,731.01879,
1363.869,741.625,
1360.958,749.5476,
1358.048,793.9702,
1355.137,802.70037,
1352.227,807.1284,
1349.316,856.34357,
1346.406,868.39935,
1343.495,832.06408,
1340.584,896.23133,
1337.674,946.19457,
1334.763,918.8247,
1331.853,950.35056,
1328.942,958.74071,
1326.032,941.68135,
1323.121,985.04672,
1320.210,1013.6116,
1317.300,1039.1027,
1314.389,1061.3613,
1311.479,1066.1299,
1308.568,1076.3518,
1305.657,1121.7301,
1302.747,1159.3023,
1299.836,1119.4162,
1296.926,1157.1715,
1294.015,1233.4754,
1291.105,1284.1743,
1288.194,1348.1345,
1285.283,1373.365,
1282.373,1417.492,
1279.462,1443.37,
1276.552,1462.8141,
1273.641,1479.2085,
1270.731,1470.6847,
1267.820,1462.5863,
1264.909,1461.7682,
1261.999,1485.7568,
1259.088,1516.7689,
1256.178,1481.7974,
1253.267,1446.4716,
1250.356,1437.625,
1247.446,1387.1665,
1244.535,1322.3885,
1241.625,1272.8436,
1238.714,1241.4455,
1235.804,1224.1736,
1232.893,1176.5048,
1229.982,1153.9811,
1227.072,1134.9695,
1224.161,1105.8884,
1221.251,1119.9822,
1218.340,1101.3603,
1215.430,1080.468,
1212.519,1075.5305,
1209.608,1065.6394,
1206.698,1054.8167,
1203.787,1075.8612,
1200.877,1045.7951,
1197.966,1064.6775,
1195.055,1114.2602,
1192.145,1147.4193,
1189.234,1173.7912,
1186.324,1200.5357,
1183.413,1225.6656,
1180.503,1235.9152,
1177.592,1218.6349,
1174.681,1182.7106,
1171.771,1162.6456,
1168.860,1163.5387,
1165.950,1157.981,
1163.039,1175.4819,
1160.129,1187.1641,
1157.218,1182.8947,
1154.307,1161.155,
1151.397,1130.8901,
1148.486,1112.527,
1145.576,1101.1647,
1142.665,1113.5954,
1139.754,1123.5749,
1136.844,1095.512,
1133.933,1088.4901,
1131.023,1077.5179,
1128.112,1072.7661,
1125.202,1080.8569,
1122.291,1043.7665,
1119.380,1086.8242,
1116.470,1107.1224,
1113.559,1088.7473,
1110.649,1080.6605,
1107.738,1088.1981,
1104.828,1087.303,
1101.917,1085.6846,
1099.006,1111.2023,
1096.096,1113.8947,
1093.185,1036.6305,
1090.275,1082.4183,
1087.364,1080.9025,
1084.453,1099.9359,
1081.543,1108.6695,
1078.632,1088.0437,
1075.722,1076.4459,
1072.811,1087.0116,
1069.901,1064.3069,
1066.990,1083.6416,
1064.079,1111.082,
1061.169,1132.671,
1058.258,1135.2727,
1055.348,1145.7323,
1052.437,1182.7696,
1049.527,1139.0348,
1046.616,1175.5256,
1043.705,1172.6881,
1040.795,1191.0571,
1037.884,1195.5447,
1034.974,1196.0735,
1032.063,1210.0557,
1029.153,1214.4173,
1026.242,1212.6874,
1023.331,1247.6228,
1020.421,1233.712,
1017.510,1247.5963,
1014.600,1262.6645,
1011.689,1254.9191,
1008.778,1251.3428,
1005.868,1284.6404,
1002.957,1286.3612,
1000.047,1300.457,
997.136,1363.1829,
994.226,1425.0401,
991.315,1441.578,
988.404,1412.6262,
985.494,1382.1429,
982.583,1405.2699,
979.673,1395.4554,
976.762,1397.0831,
973.852,1401.625,
970.941,1392.4372,
968.030,1378.891,
965.120,1425.6357,
962.209,1428.1934,
959.299,1401.7115,
956.388,1400.1444,
953.477,1405.1588,
950.567,1414.4348,
947.656,1451.4049,
944.746,1457.3518,
941.835,1439.8091,
938.925,1429.7025,
936.014,1432.6949,
933.103,1422.3827,
930.193,1395.4216,
927.282,1404.9293,
924.372,1373.6419,
921.461,1353.4242,
918.551,1338.3301,
915.640,1331.2001,
912.729,1321.2325,
909.819,1295.9586,
906.908,1298.4859,
903.998,1321.6906,
901.087,1332.0805,
898.176,1345.1233,
895.266,1356.9424,
892.355,1360.7662,
889.445,1377.5515,
886.534,1395.1573,
883.624,1395.9337,
880.713,1400.7493,
877.802,1408.362,
874.892,1389.7473,
871.981,1290.6719,
869.071,1207.9661,
866.160,1200.5246,
863.250,1279.6344,
860.339,1360.7961,
857.428,1378.9901,
854.518,1363.962,
851.607,1375.611,
848.697,1286.8331,
845.786,1271.0543,
842.875,1283.789,
839.965,1276.9166,
837.054,1337.6622,
834.144,1340.9772,
831.233,1372.2894,
828.323,1374.7661,
825.412,1365.8105,
822.501,1367.4759,
819.591,1327.8087,
816.680,1297.7788,
813.770,1273.7094,
810.859,1269.4911,
807.949,1268.0811,
805.038,1249.2091,
802.127,1278.8417,
799.217,1279.3888,
796.306,1276.9223,
793.396,1270.5639,
790.485,1265.5731,
787.574,1275.037,
784.664,1233.2113,
781.753,1252.4644,
778.843,1290.6192,
775.932,1305.8227,
773.022,1282.7662,
770.111,1290.1244,
767.200,1313.4644,
764.290,1297.5099,
761.379,1282.5943,
758.469,1281.2304,
755.558,1264.2117,
752.648,1250.3634,
749.737,1263.2919,
746.826,1268.8277,
743.916,1260.8782,
741.005,1241.3803,
738.095,1177.242,
735.184,1103.1244,
732.274,1067.6847,
729.363,1090.5582,
726.452,1163.6116,
723.542,1229.9818,
720.631,1206.8661,
717.721,1244.4526,
714.810,1263.0171,
711.899,1246.2785,
708.989,1283.397,
706.078,1270.8042,
703.168,1279.7694,
700.257,1279.3736,
697.347,1259.7997,
694.436,1232.3015,
691.525,1257.2194,
688.615,1248.16,
685.704,1229.696,
682.794,1227.8589,
679.883,1264.0483,
676.973,1251.2264,
674.062,1282.4433,
671.151,1272.6952,
668.241,1243.2489,
665.330,1267.0956,
662.420,1255.9133,
659.509,1251.0853,
656.598,1254.3852,
653.688,1264.0756,
650.777,1275.22,
647.867,1263.275,
644.956,1234.0015,
642.046,1190.6761,
639.135,1162.6862,
636.224,1200.8478,
633.314,1245.3084,
630.403,1278.4998,
627.493,1281.7187,
624.582,1278.3399,
621.672,1348.8273,
618.761,1310.5883,
615.850,1303.1349,
612.940,1319.9202,
610.029,1339.8108,
607.119,1316.9116,
604.208,1303.2648,
601.297,1314.5776,
598.387,1321.1661,
595.476,1299.8534,
592.566,1323.4654,
589.655,1314.6672,
586.745,1302.4174,
583.834,1295.8446,
580.923,1296.4876,
578.013,1273.7303,
575.102,1260.1684,
572.192,1267.8445,
569.281,1288.9536,
566.371,1274.0838,
563.460,1288.8508,
560.549,1312.6798,
557.639,1331.1621,
554.728,1331.1469,
551.818,1307.7374,
548.907,1333.7051,
545.996,1341.5725,
543.086,1327.3224,
540.175,1349.1244,
537.265,1365.1106,
534.354,1364.103,
531.444,1357.0677,
528.533,1356.5079,
525.622,1368.9231,
522.712,1383.1533,
519.801,1386.4243,
516.891,1384.7897,
513.980,1410.3414,
511.070,1421.0772,
508.159,1453.279,
505.248,1480.1185,
502.338,1468.7035,
499.427,1539.712,
496.517,1555.2311,
493.606,1557.3359,
490.695,1569.4066,
487.785,1589.4212,
484.874,1619.1202,
481.964,1595.0041,
479.053,1555.7014,
476.143,1618.6743,
473.232,1567.9503,
470.321,1554.8968,
467.411,1559.8261,
464.500,1548.2371,
461.590,1532.9223,
458.679,1536.8794,
455.769,1542.0497,
452.858,1542.1245,
449.947,1575.7375,
447.037,1596.5805,
444.126,1590.0977,
441.216,1568.3874,
438.305,1595.8169,
435.395,1610.1152,
432.484,1617.7088,
429.573,1623.11,
426.663,1633.752,
423.752,1562.7908,
420.842,1362.6512,
417.931,1166.3653,
415.020,1183.0492,
412.110,1337.9954,
409.199,1457.7056,
406.289,1545.7632,
403.378,1613.4355,
400.468,1557.4919,
397.557,1553.507,
394.646,1579.2842,
391.736,1615.1944,
388.825,1664.2195,
385.915,1690.3333,
383.004,1683.2069,
380.094,1641.9667,
377.183,1687.8678,
374.272,1723.4218,
371.362,1750.5718,
368.451,1767.0719,
365.541,1725.0419,
362.630,1737.1133,
359.719,1773.4952,
356.809,1813.6703,
353.898,1814.4191,
350.988,1822.7623,
348.077,1830.7866,
345.167,1833.5872,
342.256,1832.8401,
339.345,1841.1279,
336.435,1840.5748,
333.524,1818.6855,
330.614,1788.8793,
327.703,1789.8931,
324.793,1801.9451,
321.882,1808.5258,
318.971,1767.6365,
316.061,1794.6434,
313.150,1840.1655,
310.240,1848.3287,
307.329,1857.9153,
304.418,1857.5214,
301.508,1845.9296,
298.597,1820.7554,
295.687,1835.556,
292.776,1856.5417,
289.866,1875.7148,
286.955,1880.8859,
284.044,1937.9174,
281.134,2000.248,
278.223,2057.6308,
275.313,2105.5263,
272.402,2109.2351,
269.492,2080.5442,
266.581,2030.0964,
263.670,2050.6815,
260.760,2103.6395,
257.849,2159.9696,
254.939,2198.1315,
252.028,2134.9267,
249.117,2136.2073,
246.207,2178.7473,
243.296,2225.5976,
240.386,2215.6062,
237.475,2183.8054,
234.565,2154.7127,
231.654,2212.413,
228.743,2145.2242,
225.833,2093.3327,
222.922,2107.5718,
220.012,2084.9866,
217.101,2066.8293,
214.191,2045.3527,
211.280,2011.1619,
208.369,2021.4085,
205.459,2023.6325,
202.548,2019.2545,
199.638,2028.688,
196.727,2018.5245,
193.816,2033.7068,
190.906,2088.9901,
187.995,2070.8895,
185.085,2075.9735,
182.174,2093.9139,
179.264,2113.4285,
176.353,2093.8385,
173.442,2084.5255,
170.532,2089.709,
167.621,2090.43,
164.711,2051.2074,
161.800,1982.9383,
158.890,1887.2145,
155.979,1744.3132,
153.068,1616.8551,
150.158,1487.5687,
147.247,1281.5164,
144.337,1052.7193,
141.426,830.11521,
138.516,627.95188,
135.605,460.67442,
132.694,318.45734,
129.784,203.54866,
126.873,131.32054,
123.963,80.204511,
121.052,48.94224,
118.141,39.661514,
115.231,31.808726,
112.320,30.319544,
109.410,30.443316,
106.499,19.048832,
103.589,14.944237,
100.678,13.081757,
97.767,11.659881,
94.857,11.625,
91.946,10.415667,
89.036,7.1573272,
86.125,-2.0623413,
83.215,1.4651239,
80.304,6.1461346,
77.393,4.7297948,
74.483,11.831485,
71.572,12.363831,
68.662,6.34793,
65.751,3.5221257,
62.840,6.4786159,
59.930,8.5648518,
57.019,0.80894998,
54.109,0.22216085,
51.198,3.0378742,
48.288,8.5683756,
45.377,1.5345949,
42.466,2.3349741,
39.556,6.7040514,
36.645,1.0865297,
33.735,2.7404908,
30.824,4.0787912,
27.914,-0.82943553,
25.003,6.7192872,
22.092,10.979191,
19.182,9.78518,
16.271,14.681611,
13.361,84.901192,
10.450,193.76891,
7.539,281.75665,
4.629,239.56805,
1.718,95.236346,
-1.192,-176.65002,
-4.103,-171.26881,
-7.013,-100.68371,
-9.924,1.625,
