,PLC2CC~1,
Wavenumbers [1/cm],Intensity,
3014.167,0.75,
3011.256,-2.5999678,
3008.346,48.792935,
3005.435,73.78887,
3002.525,71.787472,
2999.614,77.037009,
2996.704,78.157215,
2993.793,88.016128,
2990.882,87.612532,
2987.972,71.886214,
2985.061,106.73031,
2982.151,103.5399,
2979.240,105.11692,
2976.329,108.25819,
2973.419,116.19621,
2970.508,119.91663,
2967.598,105.51104,
2964.687,111.73437,
2961.777,115.59607,
2958.866,107.08581,
2955.955,115.89158,
2953.045,133.60237,
2950.134,141.04736,
2947.224,128.14856,
2944.313,150.28917,
2941.403,141.63048,
2938.492,147.9099,
2935.581,143.77702,
2932.671,150.06757,
2929.760,150.04617,
2926.850,154.11579,
2923.939,161.26868,
2921.028,169.60298,
2918.118,148.12909,
2915.207,154.28814,
2912.297,178.68653,
2909.386,163.92519,
2906.476,168.26122,
2903.565,150.47518,
2900.654,157.07963,
2897.744,146.78772,
2894.833,147.27582,
2891.923,147.8045,
2889.012,136.75,
2886.102,135.54189,
2883.191,72.808529,
2880.280,35.970072,
2877.370,-72.116095,
2874.459,-114.36947,
2871.549,-29.906902,
2868.638,94.756133,
2865.727,134.46916,
2862.817,152.54947,
2859.906,163.95228,
2856.996,155.26132,
2854.085,164.1933,
2851.175,165.17772,
2848.264,177.44633,
2845.353,179.83627,
2842.443,180.55557,
2839.532,166.43662,
2836.622,159.90169,
2833.711,166.00903,
2830.801,181.54118,
2827.890,179.56294,
2824.979,186.88596,
2822.069,173.84098,
2819.158,183.65027,
2816.248,177.78474,
2813.337,193.38903,
2810.427,190.87534,
2807.516,194.69969,
2804.605,180.72836,
2801.695,184.67107,
2798.784,184.26746,
2795.874,173.88455,
2792.963,192.67883,
2790.052,188.75214,
2787.142,166.55258,
2784.231,180.61954,
2781.321,176.87572,
2778.410,178.75,
2775.500,194.8331,
2772.589,178.86544,
2769.678,183.46329,
2766.768,176.38688,
2763.857,177.908,
2760.947,181.26576,
2758.036,193.06853,
2755.126,175.12394,
2752.215,189.4954,
2749.304,192.72841,
2746.394,202.30449,
2743.483,198.39995,
2740.573,196.32959,
2737.662,182.75,
2734.751,191.68191,
2731.841,181.80311,
2728.930,201.70773,
2726.020,193.31134,
2723.109,176.472,
2720.199,196.8281,
2717.288,207.81935,
2714.377,183.27129,
2711.467,208.88078,
2708.556,215.846,
2705.646,206.75,
2702.735,206.92784,
2699.825,213.34816,
2696.914,201.46408,
2694.003,195.19064,
2691.093,202.37456,
2688.182,209.84259,
2685.272,217.15683,
2682.361,200.32642,
2679.450,204.87345,
2676.540,204.6687,
2673.629,199.42265,
2670.719,212.16591,
2667.808,206.47953,
2664.898,210.75,
2661.987,215.28342,
2659.076,229.22413,
2656.166,226.79766,
2653.255,216.30612,
2650.345,227.29447,
2647.434,230.97835,
2644.524,222.75,
2641.613,214.52121,
2638.702,208.78156,
2635.792,237.8457,
2632.881,224.48211,
2629.971,219.64258,
2627.060,219.58281,
2624.149,227.42499,
2621.239,227.24111,
2618.328,242.36852,
2615.418,229.76818,
2612.507,216.78559,
2609.597,228.28094,
2606.686,230.60742,
2603.775,229.9127,
2600.865,232.63394,
2597.954,237.03129,
2595.044,231.00953,
2592.133,248.97294,
2589.223,242.61736,
2586.312,240.82534,
2583.401,252.15875,
2580.491,249.92788,
2577.580,236.77641,
2574.670,248.59894,
2571.759,238.30051,
2568.848,235.45717,
2565.938,241.5594,
2563.027,251.43186,
2560.117,240.02103,
2557.206,246.17435,
2554.296,245.496,
2551.385,267.94809,
2548.474,272.00911,
2545.564,243.57304,
2542.653,246.50839,
2539.743,247.10829,
2536.832,248.93317,
2533.922,241.20731,
2531.011,270.84991,
2528.100,266.28656,
2525.190,266.07459,
2522.279,251.60931,
2519.369,252.37242,
2516.458,265.19759,
2513.548,250.14117,
2510.637,270.05741,
2507.726,268.8169,
2504.816,261.93828,
2501.905,257.82256,
2498.995,268.63056,
2496.084,267.36324,
2493.173,269.8553,
2490.263,282.71612,
2487.352,294.08227,
2484.442,279.31959,
2481.531,273.90432,
2478.621,280.03441,
2475.710,292.81901,
2472.799,297.55722,
2469.889,277.47852,
2466.978,271.91493,
2464.068,291.90351,
2461.157,292.78752,
2458.247,290.88238,
2455.336,275.94372,
2452.425,273.88208,
2449.515,311.66475,
2446.604,296.75,
2443.694,304.88982,
2440.783,315.60811,
2437.872,286.00525,
2434.962,292.48733,
2432.051,288.82402,
2429.141,287.17351,
2426.230,298.96771,
2423.320,311.02165,
2420.409,308.17936,
2417.498,315.75842,
2414.588,308.02759,
2411.677,321.71011,
2408.767,302.8563,
2405.856,316.61674,
2402.946,319.54803,
2400.035,316.0622,
2397.124,314.20988,
2394.214,320.23521,
2391.303,314.10908,
2388.393,305.31276,
2385.482,315.08907,
2382.571,304.30764,
2379.661,295.51719,
2376.750,313.54067,
2373.840,320.7312,
2370.929,327.70668,
2368.019,322.87006,
2365.108,331.75,
2362.197,346.08431,
2359.287,341.38008,
2356.376,356.71654,
2353.466,348.03947,
2350.555,335.02037,
2347.645,345.42153,
2344.734,343.32604,
2341.823,350.63392,
2338.913,338.39477,
2336.002,341.19972,
2333.092,353.81888,
2330.181,365.29474,
2327.270,353.57508,
2324.360,366.69103,
2321.449,365.96427,
2318.539,356.85704,
2315.628,354.77558,
2312.718,357.93282,
2309.807,368.81831,
2306.896,372.01761,
2303.986,376.57466,
2301.075,351.53731,
2298.165,343.33664,
2295.254,359.42685,
2292.344,360.53837,
2289.433,365.08591,
2286.522,364.20983,
2283.612,377.93114,
2280.701,389.94281,
2277.791,366.0706,
2274.880,376.53195,
2271.969,386.36317,
2269.059,390.77725,
2266.148,385.99541,
2263.238,395.34459,
2260.327,381.30207,
2257.417,415.27556,
2254.506,406.46792,
2251.595,395.75,
2248.685,407.53457,
2245.774,399.13483,
2242.864,401.20386,
2239.953,406.61209,
2237.043,408.20499,
2234.132,418.95259,
2231.221,404.40625,
2228.311,412.53735,
2225.400,411.11589,
2222.490,419.47955,
2219.579,416.47759,
2216.669,435.80246,
2213.758,429.31602,
2210.847,439.81044,
2207.937,428.32005,
2205.026,418.63834,
2202.116,432.70117,
2199.205,435.93706,
2196.294,454.30397,
2193.384,463.171,
2190.473,469.75587,
2187.563,497.68716,
2184.652,484.75,
2181.742,479.43116,
2178.831,472.46598,
2175.920,502.48225,
2173.010,531.80102,
2170.099,540.21627,
2167.189,566.92939,
2164.278,596.00528,
2161.368,631.03447,
2158.457,667.7643,
2155.546,691.71925,
2152.636,729.40949,
2149.725,757.72985,
2146.815,773.3162,
2143.904,814.43775,
2140.993,790.33723,
2138.083,815.68006,
2135.172,825.76679,
2132.262,830.0088,
2129.351,833.75,
2126.441,786.04112,
2123.530,808.93065,
2120.619,735.51152,
2117.709,723.79469,
2114.798,688.66511,
2111.888,636.91311,
2108.977,614.21357,
2106.067,589.03218,
2103.156,567.7928,
2100.245,536.74937,
2097.335,530.572,
2094.424,498.97309,
2091.514,508.73916,
2088.603,480.30765,
2085.692,474.66075,
2082.782,502.78198,
2079.871,496.3206,
2076.961,498.36253,
2074.050,470.67121,
2071.140,481.6701,
2068.229,454.54685,
2065.318,476.15699,
2062.408,465.79539,
2059.497,473.57144,
2056.587,483.58716,
2053.676,470.0509,
2050.766,472.28812,
2047.855,450.43673,
2044.944,441.08012,
2042.034,447.85402,
2039.123,459.4335,
2036.213,490.65443,
2033.302,476.42407,
2030.391,472.25835,
2027.481,456.89651,
2024.570,464.23536,
2021.660,452.63694,
2018.749,451.50981,
2015.839,471.28806,
2012.928,465.78523,
2010.017,451.00843,
2007.107,471.4453,
2004.196,457.28572,
2001.286,450.29065,
1998.375,450.31693,
1995.465,449.60357,
1992.554,428.59135,
1989.643,444.09329,
1986.733,424.75,
1983.822,424.32681,
1980.912,421.97774,
1978.001,431.21569,
1975.090,432.21716,
1972.180,414.43882,
1969.269,428.27875,
1966.359,442.77717,
1963.448,431.94814,
1960.538,433.8651,
1957.627,425.94194,
1954.716,449.03183,
1951.806,419.79324,
1948.895,435.92415,
1945.985,417.30719,
1943.074,433.5694,
1940.164,405.44244,
1937.253,410.15447,
1934.342,391.65589,
1931.432,375.55442,
1928.521,380.84154,
1925.611,398.72389,
1922.700,402.16713,
1919.790,406.05631,
1916.879,428.14576,
1913.968,402.7832,
1911.058,398.01427,
1908.147,396.83463,
1905.237,362.56616,
1902.326,357.44184,
1899.415,368.07805,
1896.505,352.69559,
1893.594,330.47562,
1890.684,367.8282,
1887.773,400.32757,
1884.863,395.00968,
1881.952,376.40515,
1879.041,415.89591,
1876.131,385.14479,
1873.220,387.82527,
1870.310,413.88449,
1867.399,414.76599,
1864.489,407.69852,
1861.578,382.1236,
1858.667,384.57636,
1855.757,381.13783,
1852.846,402.28844,
1849.936,422.02928,
1847.025,417.86679,
1844.114,410.08173,
1841.204,400.86888,
1838.293,406.75665,
1835.383,389.63401,
1832.472,416.70478,
1829.562,429.97396,
1826.651,431.63911,
1823.740,437.93391,
1820.830,437.97834,
1817.919,427.16311,
1815.009,439.30598,
1812.098,423.79726,
1809.188,438.63368,
1806.277,448.55081,
1803.366,412.3489,
1800.456,446.92564,
1797.545,431.73587,
1794.635,422.13701,
1791.724,424.58495,
1788.813,423.14923,
1785.903,418.87404,
1782.992,414.35954,
1780.082,389.22628,
1777.171,312.74571,
1774.261,294.55996,
1771.350,337.84427,
1768.439,403.79172,
1765.529,427.11954,
1762.618,457.98624,
1759.708,471.69586,
1756.797,477.22727,
1753.887,471.51968,
1750.976,470.85341,
1748.065,486.41205,
1745.155,468.09215,
1742.244,467.30342,
1739.334,472.32647,
1736.423,462.27151,
1733.512,456.56707,
1730.602,463.23017,
1727.691,491.0828,
1724.781,512.90838,
1721.870,504.6785,
1718.960,497.63884,
1716.049,479.13153,
1713.138,499.68988,
1710.228,510.71238,
1707.317,498.48143,
1704.407,518.31153,
1701.496,515.28071,
1698.586,512.90203,
1695.675,541.75697,
1692.764,567.41805,
1689.854,541.00589,
1686.943,550.37902,
1684.033,584.88073,
1681.122,577.88594,
1678.211,577.75,
1675.301,538.87025,
1672.390,584.72308,
1669.480,575.95055,
1666.569,600.57226,
1663.659,587.79527,
1660.748,651.1742,
1657.837,672.64065,
1654.927,667.79686,
1652.016,670.55187,
1649.106,703.04377,
1646.195,713.45528,
1643.285,662.20834,
1640.374,724.95906,
1637.463,735.7408,
1634.553,790.08989,
1631.642,813.11917,
1628.732,846.90406,
1625.821,872.78729,
1622.911,929.4288,
1620.000,991.95628,
1617.089,1088.7997,
1614.179,1148.0861,
1611.268,1250.8463,
1608.358,1269.0477,
1605.447,1333.8648,
1602.536,1317.2485,
1599.626,1347.9477,
1596.715,1356.1956,
1593.805,1368.3763,
1590.894,1318.6711,
1587.984,1314.3483,
1585.073,1286.673,
1582.162,1266.7221,
1579.252,1274.3879,
1576.341,1239.1,
1573.431,1239.9313,
1570.520,1272.5607,
1567.610,1229.5923,
1564.699,1228.4257,
1561.788,1177.0041,
1558.878,1177.3295,
1555.967,1157.6988,
1553.057,1123.8881,
1550.146,1092.241,
1547.235,1079.9307,
1544.325,1049.6457,
1541.414,1020.8895,
1538.504,1022.4018,
1535.593,1012.6557,
1532.683,1003.1815,
1529.772,999.10643,
1526.861,949.55208,
1523.951,896.51368,
1521.040,883.50059,
1518.130,877.5903,
1515.219,887.79119,
1512.309,852.69597,
1509.398,870.75,
1506.487,869.12017,
1503.577,863.9543,
1500.666,867.34831,
1497.756,795.64867,
1494.845,830.50987,
1491.934,824.66496,
1489.024,798.67765,
1486.113,778.27847,
1483.203,741.22329,
1480.292,725.71935,
1477.382,713.24277,
1474.471,731.46923,
1471.560,746.45799,
1468.650,697.13792,
1465.739,698.36961,
1462.829,696.63593,
1459.918,665.30784,
1457.008,664.48866,
1454.097,674.66626,
1451.186,686.21615,
1448.276,693.03947,
1445.365,671.10861,
1442.455,676.72394,
1439.544,653.49935,
1436.633,670.46699,
1433.723,617.96907,
1430.812,685.16928,
1427.902,628.65199,
1424.991,666.56249,
1422.081,623.7111,
1419.170,622.34218,
1416.259,586.29716,
1413.349,584.54717,
1410.438,551.76102,
1407.528,574.73076,
1404.617,560.52231,
1401.707,565.42667,
1398.796,606.85486,
1395.885,595.22614,
1392.975,582.02197,
1390.064,641.1679,
1387.154,654.16991,
1384.243,626.37136,
1381.332,636.88875,
1378.422,581.07373,
1375.511,567.9588,
1372.601,681.10315,
1369.690,658.17555,
1366.780,724.03316,
1363.869,659.93162,
1360.958,694.11141,
1358.048,791.23436,
1355.137,814.24832,
1352.227,839.21432,
1349.316,900.08189,
1346.406,916.66587,
1343.495,921.49739,
1340.584,933.39218,
1337.674,978.50041,
1334.763,984.36186,
1331.853,974.16232,
1328.942,987.98143,
1326.032,1014.2186,
1323.121,1054.5753,
1320.210,1100.712,
1317.300,1113.0281,
1314.389,1118.4863,
1311.479,1165.1963,
1308.568,1228.7585,
1305.657,1263.5835,
1302.747,1280.8646,
1299.836,1254.7869,
1296.926,1294.8947,
1294.015,1384.0691,
1291.105,1431.7771,
1288.194,1528.008,
1285.283,1565.7861,
1282.373,1616.6795,
1279.462,1652.6322,
1276.552,1666.3248,
1273.641,1692.1099,
1270.731,1722.2798,
1267.820,1716.8803,
1264.909,1705.5188,
1261.999,1674.8832,
1259.088,1678.5316,
1256.178,1672.7548,
1253.267,1616.5119,
1250.356,1618.7131,
1247.446,1542.0878,
1244.535,1469.8572,
1241.625,1443.6204,
1238.714,1410.6069,
1235.804,1369.1142,
1232.893,1315.0027,
1229.982,1301.4008,
1227.072,1261.5671,
1224.161,1251.1855,
1221.251,1222.9477,
1218.340,1181.3594,
1215.430,1162.6489,
1212.519,1164.4666,
1209.608,1168.1044,
1206.698,1172.3246,
1203.787,1181.8153,
1200.877,1178.5888,
1197.966,1208.261,
1195.055,1243.8799,
1192.145,1267.7822,
1189.234,1332.7901,
1186.324,1356.5674,
1183.413,1360.7906,
1180.503,1381.1579,
1177.592,1388.6388,
1174.681,1369.8493,
1171.771,1355.6785,
1168.860,1309.2379,
1165.950,1307.1689,
1163.039,1299.3692,
1160.129,1306.9572,
1157.218,1301.2894,
1154.307,1278.9585,
1151.397,1256.6262,
1148.486,1230.75,
1145.576,1229.979,
1142.665,1212.2208,
1139.754,1203.4273,
1136.844,1215.7561,
1133.933,1204.7413,
1131.023,1185.6686,
1128.112,1168.8227,
1125.202,1159.2717,
1122.291,1179.75,
1119.380,1179.9059,
1116.470,1195.7914,
1113.559,1205.4825,
1110.649,1202.5112,
1107.738,1199.75,
1104.828,1198.9178,
1101.917,1199.2294,
1099.006,1204.853,
1096.096,1213.4062,
1093.185,1191.4561,
1090.275,1214.8374,
1087.364,1200.8524,
1084.453,1212.5612,
1081.543,1234.4469,
1078.632,1226.3937,
1075.722,1192.9381,
1072.811,1193.8741,
1069.901,1195.6206,
1066.990,1222.4249,
1064.079,1224.6669,
1061.169,1245.3944,
1058.258,1276.0311,
1055.348,1283.3433,
1052.437,1270.2613,
1049.527,1318.2129,
1046.616,1304.3117,
1043.705,1294.2716,
1040.795,1326.8678,
1037.884,1325.509,
1034.974,1324.4884,
1032.063,1354.1732,
1029.153,1340.8805,
1026.242,1325.3113,
1023.331,1346.4153,
1020.421,1356.3268,
1017.510,1377.7994,
1014.600,1387.2519,
1011.689,1385.4514,
1008.778,1395.9381,
1005.868,1374.3678,
1002.957,1443.1961,
1000.047,1517.086,
997.136,1585.9741,
994.226,1615.0731,
991.315,1610.2277,
988.404,1601.724,
985.494,1575.8459,
982.583,1580.1287,
979.673,1561.7272,
976.762,1578.8212,
973.852,1590.0039,
970.941,1582.4536,
968.030,1582.802,
965.120,1588.6856,
962.209,1573.3398,
959.299,1577.1242,
956.388,1579.19,
953.477,1598.4793,
950.567,1617.0773,
947.656,1593.2037,
944.746,1619.54,
941.835,1598.0752,
938.925,1603.9369,
936.014,1614.8083,
933.103,1606.6855,
930.193,1571.9631,
927.282,1528.0167,
924.372,1514.487,
921.461,1514.2228,
918.551,1504.2932,
915.640,1497.5999,
912.729,1486.674,
909.819,1454.0836,
906.908,1456.6109,
903.998,1456.75,
901.087,1494.9404,
898.176,1491.9359,
895.266,1487.6027,
892.355,1532.6664,
889.445,1510.8455,
886.534,1527.4474,
883.624,1563.0459,
880.713,1578.75,
877.802,1552.6956,
874.892,1501.5438,
871.981,1488.416,
869.071,1347.2312,
866.160,1335.8592,
863.250,1423.0014,
860.339,1521.0923,
857.428,1556.5237,
854.518,1521.8944,
851.607,1526.8868,
848.697,1443.8363,
845.786,1425.9897,
842.875,1418.5339,
839.965,1397.5906,
837.054,1524.8244,
834.144,1531.4544,
831.233,1524.084,
828.323,1502.44,
825.412,1484.428,
822.501,1482.7074,
819.591,1476.9226,
816.680,1443.0961,
813.770,1405.9309,
810.859,1391.4574,
807.949,1389.5134,
805.038,1383.2168,
802.127,1444.9514,
799.217,1399.318,
796.306,1400.4799,
793.396,1408.1316,
790.485,1400.0664,
787.574,1407.4734,
784.664,1373.8488,
781.753,1382.5116,
778.843,1398.0814,
775.932,1402.4291,
773.022,1393.384,
770.111,1397.4719,
767.200,1422.8733,
764.290,1413.4137,
761.379,1401.1439,
758.469,1395.2627,
755.558,1371.5037,
752.648,1396.7564,
749.737,1394.5693,
746.826,1370.2363,
743.916,1344.7954,
741.005,1332.0468,
738.095,1263.8491,
735.184,1199.9753,
732.274,1151.4551,
729.363,1174.8223,
726.452,1275.0589,
723.542,1315.5285,
720.631,1349.0961,
717.721,1375.9354,
714.810,1384.5625,
711.899,1378.3144,
708.989,1380.7351,
706.078,1388.763,
703.168,1396.215,
700.257,1372.9328,
697.347,1341.7058,
694.436,1366.75,
691.525,1366.75,
688.615,1351.6561,
685.704,1336.7063,
682.794,1339.2818,
679.883,1373.6058,
676.973,1370.4003,
674.062,1369.75,
671.151,1359.6684,
668.241,1357.2329,
665.330,1390.1828,
662.420,1378.2018,
659.509,1366.226,
656.598,1353.3933,
653.688,1356.4023,
650.777,1397.2649,
647.867,1353.4668,
644.956,1341.8925,
642.046,1306.753,
639.135,1270.2785,
636.224,1313.9012,
633.314,1344.0709,
630.403,1365.3478,
627.493,1382.8156,
624.582,1396.4563,
621.672,1399.6243,
618.761,1406.5895,
615.850,1455.584,
612.940,1469.501,
610.029,1424.0652,
607.119,1431.9615,
604.208,1440.5601,
601.297,1433.7796,
598.387,1428.0495,
595.476,1440.3099,
592.566,1456.8383,
589.655,1435.7781,
586.745,1404.0894,
583.834,1379.3108,
580.923,1377.66,
578.013,1362.75,
575.102,1362.7651,
572.192,1376.8258,
569.281,1390.8448,
566.371,1357.9746,
563.460,1393.5508,
560.549,1400.0044,
557.639,1405.3267,
554.728,1446.4197,
551.818,1425.3511,
548.907,1435.3759,
545.996,1436.5854,
543.086,1432.4737,
540.175,1472.9632,
537.265,1452.5731,
534.354,1458.8007,
531.444,1477.3726,
528.533,1486.75,
525.622,1486.75,
522.712,1516.4809,
519.801,1535.3681,
516.891,1541.7927,
513.980,1576.636,
511.070,1579.0457,
508.159,1607.8816,
505.248,1633.7413,
502.338,1616.857,
499.427,1654.6768,
496.517,1693.5985,
493.606,1720.1244,
490.695,1733.9922,
487.785,1771.712,
484.874,1753.8397,
481.964,1748.225,
479.053,1754.7051,
476.143,1737.8099,
473.232,1684.9529,
470.321,1685.6728,
467.411,1692.5544,
464.500,1648.4288,
461.590,1675.2297,
458.679,1682.1997,
455.769,1700.9689,
452.858,1745.4542,
449.947,1771.4279,
447.037,1786.4582,
444.126,1792.75,
441.216,1791.0303,
438.305,1781.1251,
435.395,1786.3064,
432.484,1792.6673,
429.573,1793.7325,
426.663,1780.8101,
423.752,1744.879,
420.842,1557.5794,
417.931,1352.3191,
415.020,1350.8023,
412.110,1508.0468,
409.199,1657.1924,
406.289,1760.1294,
403.378,1782.6552,
400.468,1754.6834,
397.557,1774.5424,
394.646,1817.1027,
391.736,1858.3395,
388.825,1845.5176,
385.915,1867.2953,
383.004,1876.615,
380.094,1846.0917,
377.183,1891.9928,
374.272,1950.3436,
371.362,2000.2288,
368.451,2023.9659,
365.541,1961.6714,
362.630,1979.7094,
359.719,1998.9831,
356.809,1980.5528,
353.898,2059.9254,
350.988,2041.0635,
348.077,2010.8157,
345.167,2021.0149,
342.256,2026.2444,
339.345,2004.8984,
336.435,2000.5728,
333.524,2040.7165,
330.614,2007.9297,
327.703,2001.8572,
324.793,2019.9285,
321.882,2060.6815,
318.971,2032.4307,
316.061,2047.1657,
313.150,2080.8333,
310.240,2106.8074,
307.329,2112.0378,
304.418,2125.6048,
301.508,2117.1038,
298.597,2031.9558,
295.687,2072.8341,
292.776,2117.4168,
289.866,2154.289,
286.955,2185.3155,
284.044,2219.4775,
281.134,2281.1845,
278.223,2362.3546,
275.313,2400.6711,
272.402,2430.2434,
269.492,2425.7883,
266.581,2380.0174,
263.670,2341.788,
260.760,2418.5104,
257.849,2497.2102,
254.939,2492.8069,
252.028,2494.1977,
249.117,2520.7892,
246.207,2565.9558,
243.296,2620.8586,
240.386,2578.4286,
237.475,2542.377,
234.565,2528.6259,
231.654,2546.8854,
228.743,2515.0772,
225.833,2484.1766,
222.922,2472.0513,
220.012,2435.6236,
217.101,2431.1107,
214.191,2435.9087,
211.280,2426.4517,
208.369,2436.515,
205.459,2443.7463,
202.548,2454.647,
199.638,2500.3629,
196.727,2466.5338,
193.816,2461.541,
190.906,2521.9978,
187.995,2472.0401,
185.085,2485.4856,
182.174,2523.8636,
179.264,2539.0416,
176.353,2565.7404,
173.442,2556.9089,
170.532,2517.9261,
167.621,2528.0198,
164.711,2445.0825,
161.800,2351.2838,
158.890,2303.062,
155.979,2076.8492,
153.068,1915.227,
150.158,1791.1286,
147.247,1569.9993,
144.337,1279.2922,
141.426,997.32191,
138.516,761.46469,
135.605,552.03082,
132.694,376.05355,
129.784,237.14059,
126.873,157.04605,
123.963,105.46765,
121.052,69.684745,
118.141,46.839881,
115.231,36.802015,
112.320,35.291816,
109.410,36.295605,
106.499,23.476811,
103.589,18.508982,
100.678,14.033783,
97.767,6.9244072,
94.857,9.5219562,
91.946,11.556222,
89.036,11.282327,
86.125,2.0626587,
83.215,2.4046018,
80.304,4.5105673,
77.393,3.8023974,
74.483,7.0256748,
71.572,8.0252958,
68.662,6.75,
65.751,6.75,
62.840,8.6768079,
59.930,10.375428,
57.019,8.9652636,
54.109,8.75,
51.198,6.6387351,
48.288,1.7613249,
45.377,3.168081,
42.466,7.4599741,
39.556,11.368577,
36.645,2.9422945,
33.735,2.8269939,
30.824,4.970887,
27.914,5.6720622,
25.003,10.108462,
22.092,10.812573,
19.182,7.1161258,
16.271,18.307968,
13.361,118.42096,
10.450,309.6045,
7.539,657.36555,
4.629,822.1008,
1.718,759.39724,
-1.192,327.86477,
-4.103,114.14826,
-7.013,8.1017315,
-9.924,-0.25,
