,Pliquid_AuCOFNPs-citrate13new_1E-1mgmL_100uL_CTR_0E-1mgL_16h_785nm_133mW_3s_1acc_1_RamanShift__4__28,
Raman shift [1/cm],Intensity,
3014.167,-1.25,
3011.256,-0.45004295,
3008.346,70.975525,
3005.435,76.979681,
3002.525,82.052573,
2999.614,78.077291,
2996.704,72.395367,
2993.793,84.883064,
2990.882,90.04765,
2987.972,71.896304,
2985.061,93.656395,
2982.151,105.00548,
2979.240,101.10268,
2976.329,99.523206,
2973.419,105.71945,
2970.508,110.93326,
2967.598,103.03675,
2964.687,105.40693,
2961.777,98.126032,
2958.866,111.40825,
2955.955,110.60842,
2953.045,127.83277,
2950.134,123.14358,
2947.224,128.60766,
2944.313,125.09829,
2941.403,145.86952,
2938.492,153.57925,
2935.581,143.56717,
2932.671,158.86584,
2929.760,148.44232,
2926.850,148.27256,
2923.939,161.90416,
2921.028,162.4851,
2918.118,162.19081,
2915.207,166.98416,
2912.297,169.73307,
2909.386,157.56751,
2906.476,165.55618,
2903.565,168.79815,
2900.654,162.35062,
2897.744,158.56142,
2894.833,152.40963,
2891.923,176.1026,
2889.012,159.66907,
2886.102,155.97837,
2883.191,143.76416,
2880.280,138.68779,
2877.370,104.20356,
2874.459,88.334951,
2871.549,128.0004,
2868.638,151.79536,
2865.727,173.59612,
2862.817,159.06286,
2859.906,191.0406,
2856.996,170.7817,
2854.085,178.71431,
2851.175,164.84637,
2848.264,163.044,
2845.353,158.70687,
2842.443,152.35766,
2839.532,172.1379,
2836.622,155.35677,
2833.711,155.59458,
2830.801,163.54118,
2827.890,160.20804,
2824.979,151.68805,
2822.069,147.09116,
2819.158,172.5694,
2816.248,168.73842,
2813.337,171.3378,
2810.427,174.19078,
2807.516,176.37578,
2804.605,180.07211,
2801.695,170.27633,
2798.784,165.41531,
2795.874,161.45976,
2792.963,159.32128,
2790.052,170.74678,
2787.142,173.93408,
2784.231,162.58851,
2781.321,182.86996,
2778.410,163.52539,
2775.500,163.17448,
2772.589,177.94342,
2769.678,188.25174,
2766.768,171.01018,
2763.857,176.69798,
2760.947,181.24685,
2758.036,164.65436,
2755.126,175.46795,
2752.215,172.66372,
2749.304,177.0054,
2746.394,189.26816,
2743.483,182.10001,
2740.573,179.86283,
2737.662,178.65384,
2734.751,187.07527,
2731.841,184.85806,
2728.930,199.27972,
2726.020,181.29572,
2723.109,182.61583,
2720.199,186.5938,
2717.288,182.01278,
2714.377,174.30016,
2711.467,180.93022,
2708.556,187.83505,
2705.646,178.76406,
2702.735,196.75516,
2699.825,195.88089,
2696.914,205.94093,
2694.003,192.03455,
2691.093,194.05326,
2688.182,201.02408,
2685.272,191.06863,
2682.361,195.93231,
2679.450,201.28908,
2676.540,191.56708,
2673.629,186.06837,
2670.719,195.96165,
2667.808,192.99318,
2664.898,199.82782,
2661.987,204.61664,
2659.076,202.00431,
2656.166,213.2652,
2653.255,205.11905,
2650.345,210.31806,
2647.434,197.86461,
2644.524,210.90828,
2641.613,215.49293,
2638.702,200.01828,
2635.792,198.99926,
2632.881,205.90474,
2629.971,211.11244,
2627.060,202.24844,
2624.149,209.69688,
2621.239,211.26482,
2618.328,201.87716,
2615.418,210.39092,
2612.507,222.9911,
2609.597,219.20908,
2606.686,212.63352,
2603.775,210.79366,
2600.865,227.33705,
2597.954,230.12712,
2595.044,220.06267,
2592.133,229.64177,
2589.223,225.61736,
2586.312,238.01636,
2583.401,229.68797,
2580.491,223.40869,
2577.580,250.71534,
2574.670,229.19653,
2571.759,219.4923,
2568.848,229.21417,
2565.938,226.22616,
2563.027,225.99321,
2560.117,221.56309,
2557.206,250.87177,
2554.296,250.004,
2551.385,230.17993,
2548.474,228.78718,
2545.564,236.59172,
2542.653,232.97148,
2539.743,226.21919,
2536.832,240.83225,
2533.922,244.06538,
2531.011,261.82516,
2528.100,249.81967,
2525.190,237.42541,
2522.279,227.17208,
2519.369,242.69298,
2516.458,247.63102,
2513.548,249.26803,
2510.637,244.42631,
2507.726,254.43773,
2504.816,256.56285,
2501.905,264.4311,
2498.995,238.28747,
2496.084,249.5096,
2493.173,248.01291,
2490.263,252.12064,
2487.352,263.54133,
2484.442,259.0348,
2481.531,257.11705,
2478.621,256.28555,
2475.710,267.67332,
2472.799,260.70961,
2469.889,261.50899,
2466.978,252.75,
2464.068,268.0728,
2461.157,259.82992,
2458.247,277.01476,
2455.336,273.51711,
2452.425,268.75,
2449.515,267.11799,
2446.604,271.86519,
2443.694,266.44734,
2440.783,269.46622,
2437.872,282.42182,
2434.962,272.96198,
2432.051,283.91691,
2429.141,295.61473,
2426.230,273.2494,
2423.320,291.06425,
2420.409,295.01919,
2417.498,293.36516,
2414.588,293.01995,
2411.677,299.71011,
2408.767,273.52067,
2405.856,278.28095,
2402.946,290.75625,
2400.035,291.35563,
2397.124,279.65908,
2394.214,292.1548,
2391.303,285.14228,
2388.393,282.25697,
2385.482,301.8247,
2382.571,292.92734,
2379.661,297.68007,
2376.750,301.75253,
2373.840,291.39689,
2370.929,314.49009,
2368.019,315.76106,
2365.108,332.79712,
2362.197,314.80474,
2359.287,313.13663,
2356.376,317.74472,
2353.466,300.91606,
2350.555,307.77493,
2347.645,296.46127,
2344.734,308.87447,
2341.823,310.79975,
2338.913,311.8351,
2336.002,324.44623,
2333.092,326.14059,
2330.181,329.71421,
2327.270,316.41006,
2324.360,335.65806,
2321.449,322.2126,
2318.539,330.64296,
2315.628,337.60652,
2312.718,325.08479,
2309.807,319.38952,
2306.896,332.93152,
2303.986,315.45138,
2301.075,340.32442,
2298.165,343.16336,
2295.254,329.03006,
2292.344,352.33094,
2289.433,343.07045,
2286.522,347.45083,
2283.612,349.91964,
2280.701,355.53922,
2277.791,336.66985,
2274.880,337.74594,
2271.969,348.75,
2269.059,354.33584,
2266.148,363.85684,
2263.238,367.54923,
2260.327,374.1982,
2257.417,366.27556,
2254.506,357.06336,
2251.595,348.03362,
2248.685,365.95379,
2245.774,374.45325,
2242.864,382.2313,
2239.953,375.66033,
2237.043,375.63286,
2234.132,374.05388,
2231.221,386.69837,
2228.311,409.88657,
2225.400,402.41226,
2222.490,391.49269,
2219.579,394.75,
2216.669,402.71184,
2213.758,418.57746,
2210.847,432.42253,
2207.937,459.69134,
2205.026,452.74912,
2202.116,484.09181,
2199.205,507.6373,
2196.294,512.874,
2193.384,543.59105,
2190.473,583.2054,
2187.563,577.779,
2184.652,588.56958,
2181.742,625.7967,
2178.831,639.63712,
2175.920,622.66985,
2173.010,650.92744,
2170.099,650.61805,
2167.189,655.62084,
2164.278,639.80427,
2161.368,650.89296,
2158.457,657.64617,
2155.546,669.75,
2152.636,667.65958,
2149.725,679.23321,
2146.815,710.74893,
2143.904,723.23701,
2140.993,692.4484,
2138.083,685.26677,
2135.172,674.69962,
2132.262,704.53345,
2129.351,706.66717,
2126.441,663.87609,
2123.530,632.75,
2120.619,627.52086,
2117.709,586.83937,
2114.798,550.76523,
2111.888,516.96302,
2108.977,504.47848,
2106.067,496.9246,
2103.156,469.23478,
2100.245,452.7569,
2097.335,460.85995,
2094.424,438.3139,
2091.514,440.18554,
2088.603,452.6993,
2085.692,441.33743,
2082.782,427.09542,
2079.871,418.17824,
2076.961,435.45844,
2074.050,433.39242,
2071.140,409.96814,
2068.229,425.66146,
2065.318,411.26749,
2062.408,420.81881,
2059.497,439.52975,
2056.587,420.69206,
2053.676,424.73278,
2050.766,385.21413,
2047.855,413.06327,
2044.944,422.95193,
2042.034,416.09102,
2039.123,405.30892,
2036.213,398.28779,
2033.302,413.6194,
2030.391,407.29279,
2027.481,410.65233,
2024.570,422.33551,
2021.660,413.40042,
2018.749,402.05392,
2015.839,408.94291,
2012.928,406.96812,
2010.017,412.23099,
2007.107,388.60792,
2004.196,380.45241,
2001.286,411.10685,
1998.375,404.17814,
1995.465,386.09732,
1992.554,408.29096,
1989.643,373.13255,
1986.733,353.35526,
1983.822,376.67171,
1980.912,351.44353,
1978.001,375.13962,
1975.090,382.75763,
1972.180,373.95746,
1969.269,389.26157,
1966.359,395.37149,
1963.448,381.71433,
1960.538,365.76585,
1957.627,348.48373,
1954.716,355.49146,
1951.806,345.09775,
1948.895,352.13259,
1945.985,352.70752,
1943.074,345.03044,
1940.164,342.54801,
1937.253,335.0283,
1934.342,333.25428,
1931.432,337.21372,
1928.521,356.63429,
1925.611,336.91913,
1922.700,331.29005,
1919.790,328.44369,
1916.879,335.192,
1913.968,335.75,
1911.058,304.06232,
1908.147,330.639,
1905.237,298.88976,
1902.326,318.56484,
1899.415,292.24758,
1896.505,307.48486,
1893.594,308.19821,
1890.684,313.52129,
1887.773,310.21543,
1884.863,323.59282,
1881.952,315.10265,
1879.041,311.77596,
1876.131,305.42059,
1873.220,313.33853,
1870.310,298.04151,
1867.399,321.35016,
1864.489,328.27015,
1861.578,294.64538,
1858.667,321.57636,
1855.757,313.95286,
1852.846,312.25769,
1849.936,315.84309,
1847.025,324.68672,
1844.114,338.71469,
1841.204,338.31993,
1838.293,330.28077,
1835.383,325.41249,
1832.472,337.93609,
1829.562,315.11432,
1826.651,327.73354,
1823.740,307.71929,
1820.830,332.01804,
1817.919,320.76183,
1815.009,361.1304,
1812.098,336.43506,
1809.188,323.37018,
1806.277,341.32949,
1803.366,324.13263,
1800.456,348.89333,
1797.545,380.03398,
1794.635,325.16902,
1791.724,339.53634,
1788.813,367.15437,
1785.903,364.80437,
1782.992,314.6278,
1780.082,311.91718,
1777.171,292.41595,
1774.261,305.44532,
1771.350,333.14575,
1768.439,352.05043,
1765.529,364.02033,
1762.618,366.62566,
1759.708,372.97813,
1756.797,368.2803,
1753.887,364.03134,
1750.976,363.41557,
1748.065,376.73771,
1745.155,356.8405,
1742.244,362.6141,
1739.334,361.79471,
1736.423,354.63038,
1733.512,373.3964,
1730.602,386.73414,
1727.691,384.14404,
1724.781,365.44532,
1721.870,380.86917,
1718.960,366.01643,
1716.049,389.43617,
1713.138,387.91003,
1710.228,400.67475,
1707.317,416.90314,
1704.407,429.53077,
1701.496,386.08416,
1698.586,380.82602,
1695.675,402.2713,
1692.764,418.89755,
1689.854,394.87597,
1686.943,409.21039,
1684.033,399.0232,
1681.122,452.81542,
1678.211,466.62627,
1675.301,468.74383,
1672.390,466.73804,
1669.480,463.18319,
1666.569,516.38182,
1663.659,488.38696,
1660.748,526.61503,
1657.837,520.84349,
1654.927,570.24201,
1652.016,591.06589,
1649.106,603.94585,
1646.195,611.53421,
1643.285,604.36785,
1640.374,674.1263,
1637.463,691.93015,
1634.553,702.16378,
1631.642,730.14088,
1628.732,766.01072,
1625.821,809.77421,
1622.911,846.5415,
1620.000,906.98148,
1617.089,938.13308,
1614.179,1024.2683,
1611.268,1091.2591,
1608.358,1128.0644,
1605.447,1163.6931,
1602.536,1184.3877,
1599.626,1194.0294,
1596.715,1185.674,
1593.805,1207.1083,
1590.894,1146.3418,
1587.984,1145.5448,
1585.073,1118.673,
1582.162,1086.1988,
1579.252,1119.2102,
1576.341,1114.933,
1573.431,1078.0735,
1570.520,1069.5144,
1567.610,1053.3576,
1564.699,1019.4738,
1561.788,1015.7922,
1558.878,973.00487,
1555.967,935.23338,
1553.057,904.42264,
1550.146,910.18632,
1547.235,892.23368,
1544.325,863.26702,
1541.414,837.848,
1538.504,825.86042,
1535.593,863.34709,
1532.683,865.21422,
1529.772,823.16254,
1526.861,803.65686,
1523.951,777.14096,
1521.040,751.16804,
1518.130,716.9165,
1515.219,725.19057,
1512.309,711.94371,
1509.398,724.30524,
1506.487,703.2853,
1503.577,713.72133,
1500.666,705.5115,
1497.756,685.08018,
1494.845,652.50987,
1491.934,646.7689,
1489.024,652.54386,
1486.113,652.75,
1483.203,616.33513,
1480.292,598.17382,
1477.382,624.84693,
1474.471,633.28476,
1471.560,595.2897,
1468.650,590.31583,
1465.739,571.69236,
1462.829,582.6227,
1459.918,581.07029,
1457.008,560.14992,
1454.097,551.43921,
1451.186,542.09623,
1448.276,528.69134,
1445.365,526.25079,
1442.455,538.4832,
1439.544,542.60921,
1436.633,530.17701,
1433.723,519.63443,
1430.812,498.26718,
1427.902,504.00586,
1424.991,472.7297,
1422.081,432.29848,
1419.170,415.78909,
1416.259,416.18019,
1413.349,486.98742,
1410.438,429.27534,
1407.528,418.56844,
1404.617,421.18169,
1401.707,401.03143,
1398.796,389.27797,
1395.885,399.49812,
1392.975,391.72821,
1390.064,330.32559,
1387.154,261.78589,
1384.243,177.16146,
1381.332,124.93924,
1378.422,194.08305,
1375.511,258.72093,
1372.601,346.37761,
1369.690,393.18223,
1366.780,471.8252,
1363.869,486.39114,
1360.958,529.64471,
1358.048,548.59682,
1355.137,605.1523,
1352.227,640.44924,
1349.316,639.74676,
1346.406,675.3045,
1343.495,690.46606,
1340.584,726.35668,
1337.674,755.46359,
1334.763,745.34985,
1331.853,761.11278,
1328.942,813.33892,
1326.032,845.03424,
1323.121,868.53315,
1320.210,838.12436,
1317.300,895.88994,
1314.389,957.48628,
1311.479,982.78871,
1308.568,987.86802,
1305.657,948.4784,
1302.747,932.23104,
1299.836,969.24393,
1296.926,1025.0574,
1294.015,1074.7008,
1291.105,1154.2377,
1288.194,1241.4293,
1285.283,1290.8221,
1282.373,1303.3828,
1279.462,1316.3772,
1276.552,1352.7659,
1273.641,1373.6394,
1270.731,1354.6336,
1267.820,1332.4934,
1264.909,1296.0258,
1261.999,1368.7527,
1259.088,1314.0255,
1256.178,1319.3146,
1253.267,1270.8823,
1250.356,1251.6865,
1247.446,1239.1889,
1244.535,1218.3706,
1241.625,1194.6574,
1238.714,1160.1342,
1235.804,1121.7742,
1232.893,1133.6344,
1229.982,1090.5047,
1227.072,1083.2622,
1224.161,1042.4058,
1221.251,1010.9257,
1218.340,970.3594,
1215.430,924.6727,
1212.519,916.69106,
1209.608,944.67252,
1206.698,966.06923,
1203.787,982.60429,
1200.877,1021.9231,
1197.966,1056.9903,
1195.055,1080.0812,
1192.145,1105.539,
1189.234,1146.4872,
1186.324,1178.9332,
1183.413,1198.6992,
1180.503,1208.0755,
1177.592,1199.0832,
1174.681,1173.1164,
1171.771,1168.3997,
1168.860,1153.2172,
1165.950,1169.4884,
1163.039,1093.4337,
1160.129,1067.5978,
1157.218,1098.7483,
1154.307,1100.1493,
1151.397,1061.4422,
1148.486,1067.1073,
1145.576,1023.5958,
1142.665,1020.0442,
1139.754,1046.5997,
1136.844,1024.0376,
1133.933,1036.3833,
1131.023,1047.1407,
1128.112,1040.4642,
1125.202,1051.1703,
1122.291,1076.4885,
1119.380,1047.0531,
1116.470,1077.9416,
1113.559,1057.7793,
1110.649,1097.8989,
1107.738,1084.1711,
1104.828,1071.555,
1101.917,1102.5252,
1099.006,1100.4409,
1096.096,1071.395,
1093.185,1081.9311,
1090.275,1088.4149,
1087.364,1095.9251,
1084.453,1116.1864,
1081.543,1110.9065,
1078.632,1084.2428,
1075.722,1078.3739,
1072.811,1077.5567,
1069.901,1088.9091,
1066.990,1102.6833,
1064.079,1113.2357,
1061.169,1137.1851,
1058.258,1146.9742,
1055.348,1156.5633,
1052.437,1195.1905,
1049.527,1161.985,
1046.616,1168.0668,
1043.705,1190.3314,
1040.795,1194.196,
1037.884,1190.2213,
1034.974,1181.0464,
1032.063,1178.3343,
1029.153,1205.1268,
1026.242,1199.9371,
1023.331,1173.9183,
1020.421,1188.2688,
1017.510,1190.0267,
1014.600,1214.778,
1011.689,1264.017,
1008.778,1285.3364,
1005.868,1288.8967,
1002.957,1305.2435,
1000.047,1376.91,
997.136,1425.6557,
994.226,1438.627,
991.315,1420.7451,
988.404,1380.8056,
985.494,1339.0212,
982.583,1306.472,
979.673,1302.4816,
976.762,1297.4661,
973.852,1291.982,
970.941,1291.8247,
968.030,1297.3512,
965.120,1300.7751,
962.209,1306.7429,
959.299,1286.5025,
956.388,1302.9484,
953.477,1320.6949,
950.567,1319.58,
947.656,1324.75,
944.746,1324.75,
941.835,1348.2346,
938.925,1332.0343,
936.014,1330.3607,
933.103,1325.6262,
930.193,1301.7476,
927.282,1308.2835,
924.372,1281.2241,
921.461,1259.34,
918.551,1259.7212,
915.640,1270.2743,
912.729,1264.0638,
909.819,1231.3094,
906.908,1265.8488,
903.998,1251.8427,
901.087,1257.9341,
898.176,1271.3851,
895.266,1286.7328,
892.355,1302.8494,
889.445,1308.7243,
886.534,1317.9336,
883.624,1323.787,
880.713,1326.7707,
877.802,1326.3604,
874.892,1318.4184,
871.981,1293.8622,
869.071,1256.2687,
866.160,1280.1082,
863.250,1287.9838,
860.339,1307.8082,
857.428,1348.3499,
854.518,1328.5223,
851.607,1286.0868,
848.697,1296.6332,
845.786,1296.9655,
842.875,1295.3428,
839.965,1312.7551,
837.054,1344.657,
834.144,1336.3694,
831.233,1350.7488,
828.323,1350.8369,
825.412,1344.6818,
822.501,1340.2604,
819.591,1293.1557,
816.680,1294.9551,
813.770,1307.6535,
810.859,1308.8839,
807.949,1302.5768,
805.038,1305.3473,
802.127,1310.2861,
799.217,1277.2074,
796.306,1254.9661,
793.396,1250.2539,
790.485,1251.5384,
787.574,1236.8398,
784.664,1265.5437,
781.753,1264.0402,
778.843,1262.2202,
775.932,1271.7746,
773.022,1287.0873,
770.111,1269.9181,
767.200,1236.7749,
764.290,1266.0457,
761.379,1272.2996,
758.469,1226.8681,
755.558,1185.7014,
752.648,1184.0722,
749.737,1170.0414,
746.826,1113.3306,
743.916,1005.6518,
741.005,845.41317,
738.095,594.54323,
735.184,304.46827,
732.274,254.39154,
729.363,448.33779,
726.452,785.74272,
723.542,1062.5552,
720.631,1132.0323,
717.721,1179.6837,
714.810,1217.2158,
711.899,1232.2846,
708.989,1195.973,
706.078,1262.2581,
703.168,1254.4612,
700.257,1223.0723,
697.347,1195.3158,
694.436,1176.4265,
691.525,1201.3444,
688.615,1205.4922,
685.704,1183.597,
682.794,1163.7074,
679.883,1190.2186,
676.973,1200.6364,
674.062,1185.5218,
671.151,1183.2016,
668.241,1190.1293,
665.330,1182.771,
662.420,1204.3368,
659.509,1218.274,
656.598,1221.1535,
653.688,1219.5903,
650.777,1226.236,
647.867,1240.5699,
644.956,1226.4138,
642.046,1204.5558,
639.135,1195.4575,
636.224,1220.758,
633.314,1222.3458,
630.403,1258.2226,
627.493,1262.01,
624.582,1233.694,
621.672,1255.8698,
618.761,1248.3907,
615.850,1242.4441,
612.940,1238.7254,
610.029,1245.299,
607.119,1296.625,
604.208,1287.5497,
601.297,1278.2604,
598.387,1258.9852,
595.476,1220.9385,
592.566,1233.5316,
589.655,1246.1162,
586.745,1228.7497,
583.834,1194.5779,
580.923,1179.3235,
578.013,1108.6974,
575.102,1104.6633,
572.192,1153.9794,
569.281,1222.8906,
566.371,1223.6732,
563.460,1232.9211,
560.549,1269.8849,
557.639,1296.9617,
554.728,1275.9964,
551.818,1279.8979,
548.907,1287.4535,
545.996,1294.8603,
543.086,1302.9375,
540.175,1317.7318,
537.265,1320.1986,
534.354,1321.7534,
531.444,1334.4536,
528.533,1366.2951,
525.622,1388.0216,
522.712,1359.3786,
519.801,1349.2064,
516.891,1377.1403,
513.980,1423.5981,
511.070,1399.5761,
508.159,1401.5994,
505.248,1422.7587,
502.338,1441.5633,
499.427,1469.3493,
496.517,1469.3965,
493.606,1469.4704,
490.695,1478.8243,
487.785,1464.968,
484.874,1486.6603,
481.964,1508.8861,
479.053,1508.6961,
476.143,1454.1707,
473.232,1483.8426,
470.321,1450.0387,
467.411,1411.8935,
464.500,1444.5949,
461.590,1438.4689,
458.679,1432.3476,
455.769,1446.3936,
452.858,1482.1253,
449.947,1456.9156,
447.037,1462.6717,
444.126,1469.0106,
441.216,1461.2679,
438.305,1423.9332,
435.395,1465.3002,
432.484,1485.5825,
429.573,1478.685,
426.663,1474.1241,
423.752,1403.3107,
420.842,1372.75,
417.931,1361.7611,
415.020,1323.0848,
412.110,1417.5913,
409.199,1476.2219,
406.289,1486.2372,
403.378,1441.7731,
400.468,1448.577,
397.557,1440.467,
394.646,1408.6637,
391.736,1346.2631,
388.825,1268.5773,
385.915,1213.8184,
383.004,1212.8766,
380.094,1284.0898,
377.183,1349.5553,
374.272,1426.9131,
371.362,1491.7607,
368.451,1528.981,
365.541,1549.2454,
362.630,1569.4985,
359.719,1579.9742,
356.809,1578.5139,
353.898,1624.1905,
350.988,1599.8609,
348.077,1574.5582,
345.167,1589.5825,
342.256,1606.018,
339.345,1595.8699,
336.435,1589.1346,
333.524,1606.9949,
330.614,1646.4881,
327.703,1656.183,
324.793,1634.1579,
321.882,1577.86,
318.971,1623.21,
316.061,1652.4228,
313.150,1663.7476,
310.240,1654.1001,
307.329,1680.1916,
304.418,1657.0095,
301.508,1584.0607,
298.597,1461.1515,
295.687,1420.9514,
292.776,1417.5834,
289.866,1473.2295,
286.955,1665.2982,
284.044,1862.2598,
281.134,2022.9584,
278.223,2132.6301,
275.313,2159.1569,
272.402,2261.1799,
269.492,2332.0174,
266.581,2340.5306,
263.670,2421.4004,
260.760,2474.0035,
257.849,2513.5814,
254.939,2550.2755,
252.028,2533.3777,
249.117,2529.491,
246.207,2534.4547,
243.296,2541.043,
240.386,2518.2423,
237.475,2454.6531,
234.565,2369.9892,
231.654,2352.46,
228.743,2291.7886,
225.833,2237.859,
222.922,2211.3615,
220.012,2224.4755,
217.101,2189.002,
214.191,2130.4837,
211.280,2073.0142,
208.369,2001.4687,
205.459,1965.556,
202.548,1974.037,
199.638,2050.9558,
196.727,2057.5305,
193.816,2039.9132,
190.906,2015.6388,
187.995,2040.9797,
185.085,2037.9286,
182.174,2025.1418,
179.264,2026.5873,
176.353,2007.5266,
173.442,2000.3756,
170.532,2006.162,
167.621,2001.1151,
164.711,1985.0341,
161.800,1945.4532,
158.890,1868.4423,
155.979,1795.5941,
153.068,1659.2159,
150.158,1475.1903,
147.247,1301.4459,
144.337,1101.0346,
141.426,875.45048,
138.516,621.67098,
135.605,457.33913,
132.694,315.73471,
129.784,200.92798,
126.873,135.13604,
123.963,93.296493,
121.052,64.951059,
118.141,47.817411,
115.231,42.776008,
112.320,30.159102,
109.410,16.704487,
106.499,21.689573,
103.589,22.75,
100.678,20.305405,
97.767,13.906966,
94.857,17.214945,
91.946,17.137557,
89.036,13.846817,
86.125,8.1731746,
83.215,9.4046018,
80.304,8.6373751,
77.393,-0.56883408,
74.483,7.9218894,
71.572,11.662944,
68.662,9.611465,
65.751,8.1985628,
62.840,8.231702,
59.930,9.1245724,
57.019,10.534736,
54.109,11.944322,
51.198,11.845172,
48.288,9.7443376,
45.377,9.0409595,
42.466,9.5744387,
39.556,9.2534585,
36.645,0.12498569,
33.735,7.0964724,
30.824,16.191774,
27.914,17.594124,
25.003,17.75,
22.092,18.072905,
19.182,19.161892,
16.271,31.752714,
13.361,145.48616,
10.450,406.52648,
7.539,1055.9598,
4.629,1477.2329,
1.718,1632.4995,
-1.192,1367.5846,
-4.103,814.19259,
-7.013,334.6434,
-9.924,4.75,
