,PLCF80~1,
Wavenumbers [1/cm],Intensity,
3014.167,-0.125,
3011.256,-2.5749893,
3008.346,111.05216,
3005.435,144.3379,
3002.525,133.43988,
2999.614,141.95556,
2996.704,151.52037,
2993.793,162.37039,
2990.882,169.82918,
2987.972,169.92545,
2985.061,174.99815,
2982.151,175.92038,
2979.240,191.24192,
2976.329,202.64821,
2973.419,197.45934,
2970.508,206.40835,
2967.598,198.83082,
2964.687,221.69565,
2961.777,211.37913,
2958.866,217.20635,
2955.955,234.29312,
2953.045,245.59088,
2950.134,237.44934,
2947.224,236.55825,
2944.313,263.91987,
2941.403,268.00593,
2938.492,259.49291,
2935.581,259.74621,
2932.671,275.11102,
2929.760,272.51734,
2926.850,283.13628,
2923.939,278.51519,
2921.028,298.68109,
2918.118,277.3347,
2915.207,273.10916,
2912.297,297.76499,
2909.386,285.45895,
2906.476,282.90589,
2903.565,293.42165,
2900.654,310.86389,
2897.744,286.84986,
2894.833,280.75137,
2891.923,299.20201,
2889.012,286.12933,
2886.102,276.70743,
2883.191,273.88066,
2880.280,253.31038,
2877.370,200.52036,
2874.459,176.05111,
2871.549,215.91496,
2868.638,278.3327,
2865.727,299.90955,
2862.817,299.91647,
2859.906,321.05164,
2856.996,307.87047,
2854.085,322.95906,
2851.175,298.92318,
2848.264,314.07616,
2845.353,343.75351,
2842.443,299.66316,
2839.532,305.99443,
2836.622,316.05469,
2833.711,305.3491,
2830.801,324.65883,
2827.890,315.50088,
2824.979,314.73904,
2822.069,328.02284,
2819.158,337.07446,
2816.248,337.59895,
2813.337,336.64817,
2810.427,342.04442,
2807.516,338.93266,
2804.605,329.34857,
2801.695,340.04605,
2798.784,348.98792,
2795.874,331.72988,
2792.963,328.08915,
2790.052,332.87328,
2787.142,333.83542,
2784.231,331.39052,
2781.321,342.30926,
2778.410,338.43971,
2775.500,342.57741,
2772.589,326.60665,
2769.678,334.30506,
2766.768,331.93326,
2763.857,347.29311,
2760.947,333.94435,
2758.036,362.66492,
2755.126,351.34082,
2752.215,361.85661,
2749.304,352.10881,
2746.394,365.2036,
2743.483,367.27503,
2740.573,357.43914,
2737.662,368.32174,
2734.751,365.40905,
2731.841,362.76694,
2728.930,366.28187,
2726.020,358.32407,
2723.109,359.21525,
2720.199,377.54053,
2717.288,379.99908,
2714.377,376.97074,
2711.467,381.82555,
2708.556,387.09858,
2705.646,384.25529,
2702.735,393.38274,
2699.825,388.64768,
2696.914,398.5423,
2694.003,381.31564,
2691.093,385.82086,
2688.182,389.96759,
2685.272,398.99876,
2682.361,386.90448,
2679.450,388.82971,
2676.540,385.15954,
2673.629,392.90194,
2670.719,397.57557,
2667.808,406.875,
2664.898,405.05691,
2661.987,400.44168,
2659.076,403.49353,
2656.166,419.1174,
2653.255,416.69302,
2650.345,413.3632,
2647.434,419.53204,
2644.524,418.19156,
2641.613,421.875,
2638.702,418.92234,
2635.792,432.06343,
2632.881,430.64871,
2629.971,435.74749,
2627.060,418.20563,
2624.149,428.39064,
2621.239,427.6502,
2618.328,446.85771,
2615.418,422.87954,
2612.507,427.08051,
2609.597,420.88498,
2606.686,456.9272,
2603.775,451.75595,
2600.865,450.28795,
2597.954,450.92291,
2595.044,457.1611,
2592.133,461.14882,
2589.223,459.54974,
2586.312,470.36244,
2583.401,474.15969,
2580.491,470.25965,
2577.580,477.88325,
2574.670,480.6611,
2571.759,478.72859,
2568.848,467.05724,
2565.938,468.73208,
2563.027,476.875,
2560.117,488.94979,
2557.206,475.9857,
2554.296,463.79949,
2551.385,502.93296,
2548.474,498.57872,
2545.564,495.96997,
2542.653,491.26426,
2539.743,491.43045,
2536.832,491.40584,
2533.922,491.96962,
2531.011,497.05007,
2528.100,513.00049,
2525.190,528.08443,
2522.279,499.9688,
2519.369,504.28995,
2516.458,507.6512,
2513.548,508.30224,
2510.637,495.61279,
2507.726,501.8787,
2504.816,517.31582,
2501.905,515.15061,
2498.995,507.24854,
2496.084,527.95513,
2493.173,519.24321,
2490.263,531.42531,
2487.352,534.6246,
2484.442,536.56448,
2481.531,544.29001,
2478.621,529.26835,
2475.710,556.85966,
2472.799,553.14856,
2469.889,539.14922,
2466.978,541.42128,
2464.068,562.15548,
2461.157,557.875,
2458.247,559.15443,
2455.336,552.9611,
2452.425,559.57312,
2449.515,581.20557,
2446.604,592.58702,
2443.694,583.45642,
2440.783,584.68468,
2437.872,576.91146,
2434.962,583.12845,
2432.051,586.65874,
2429.141,564.19867,
2426.230,590.72369,
2423.320,604.16132,
2420.409,582.65698,
2417.498,585.88342,
2414.588,609.2171,
2411.677,609.94268,
2408.767,593.9813,
2405.856,624.15832,
2402.946,616.23783,
2400.035,584.80221,
2397.124,613.3242,
2394.214,611.03581,
2391.303,604.76999,
2388.393,623.31224,
2385.482,622.13937,
2382.571,591.78534,
2379.661,632.82838,
2376.750,640.55974,
2373.840,627.10943,
2370.929,645.63675,
2368.019,627.17674,
2365.108,628.9195,
2362.197,648.27774,
2359.287,654.26163,
2356.376,667.85387,
2353.466,663.92128,
2350.555,656.22016,
2347.645,668.20347,
2344.734,660.84272,
2341.823,674.59309,
2338.913,660.84817,
2336.002,676.08799,
2333.092,674.70238,
2330.181,672.5579,
2327.270,678.32495,
2324.360,715.42225,
2321.449,676.46004,
2318.539,689.53557,
2315.628,693.38779,
2312.718,712.18999,
2309.807,714.03054,
2306.896,701.97674,
2303.986,733.47883,
2301.075,713.38568,
2298.165,698.89408,
2295.254,710.5734,
2292.344,731.5141,
2289.433,701.19545,
2286.522,704.03566,
2283.612,720.91583,
2280.701,721.54765,
2277.791,744.83493,
2274.880,750.72287,
2271.969,765.81738,
2269.059,751.55075,
2266.148,757.98184,
2263.238,749.07964,
2260.327,771.77167,
2257.417,779.84222,
2254.506,768.8978,
2251.595,781.00949,
2248.685,785.66539,
2245.774,777.66633,
2242.864,783.18924,
2239.953,765.47488,
2237.043,792.94035,
2234.132,788.21012,
2231.221,761.53125,
2228.311,800.1069,
2225.400,800.10016,
2222.490,807.50366,
2219.579,809.97785,
2216.669,830.813,
2213.758,823.65406,
2210.847,819.32335,
2207.937,836.22351,
2205.026,838.76421,
2202.116,840.3633,
2199.205,851.72629,
2196.294,848.35493,
2193.384,872.26951,
2190.473,868.86913,
2187.563,878.93784,
2184.652,892.47745,
2181.742,903.26228,
2178.831,946.37705,
2175.920,957.3085,
2173.010,970.87727,
2170.099,1021.7371,
2167.189,1056.9037,
2164.278,1067.6248,
2161.368,1128.5867,
2158.457,1191.3475,
2155.546,1232.5856,
2152.636,1307.4387,
2149.725,1322.3851,
2146.815,1341.1743,
2143.904,1419.0832,
2140.993,1440.7374,
2138.083,1446.875,
2135.172,1471.1693,
2132.262,1467.7104,
2129.351,1456.9164,
2126.441,1429.7196,
2123.530,1388.5495,
2120.619,1354.9211,
2117.709,1308.0537,
2114.798,1243.2863,
2111.888,1179.1014,
2108.977,1144.4247,
2106.067,1110.0231,
2103.156,1057.6429,
2100.245,1034.8656,
2097.335,1013.8541,
2094.424,980.16703,
2091.514,992.85332,
2088.603,952.60313,
2085.692,971.51798,
2082.782,963.84302,
2079.871,989.19821,
2076.961,954.78101,
2074.050,930.65076,
2071.140,950.7022,
2068.229,979.41275,
2065.318,978.54074,
2062.408,951.53386,
2059.497,963.72027,
2056.587,939.864,
2053.676,921.42515,
2050.766,938.41237,
2047.855,931.30219,
2044.944,945.07693,
2042.034,941.77098,
2039.123,945.15446,
2036.213,960.65953,
2033.302,972.20131,
2030.391,973.40006,
2027.481,984.59448,
2024.570,978.28949,
2021.660,949.58975,
2018.749,992.10294,
2015.839,990.20767,
2012.928,944.55285,
2010.017,952.32994,
2007.107,957.94793,
2004.196,965.56543,
2001.286,952.875,
1998.375,969.57579,
1995.465,991.03393,
1992.554,953.68124,
1989.643,982.63071,
1986.733,940.78465,
1983.822,959.13202,
1980.912,961.2602,
1978.001,934.7303,
1975.090,958.89026,
1972.180,959.63297,
1969.269,947.62781,
1966.359,957.52397,
1963.448,981.83273,
1960.538,980.19443,
1957.627,986.00813,
1954.716,968.42081,
1951.806,979.57693,
1948.895,972.21713,
1945.985,965.36847,
1943.074,977.82711,
1940.164,960.2499,
1937.253,950.1533,
1934.342,955.94345,
1931.432,946.55639,
1928.521,945.56412,
1925.611,966.29044,
1922.700,954.4634,
1919.790,984.32548,
1916.879,976.85149,
1913.968,960.89344,
1911.058,999.80893,
1908.147,993.02969,
1905.237,956.86031,
1902.326,967.51203,
1899.415,969.29816,
1896.505,934.77231,
1893.594,912.5031,
1890.684,945.39777,
1887.773,990.33115,
1884.863,990.18935,
1881.952,950.67277,
1879.041,991.82932,
1876.131,978.74299,
1873.220,950.95456,
1870.310,1001.7135,
1867.399,993.08292,
1864.489,963.16014,
1861.578,989.64463,
1858.667,941.66241,
1855.757,967.24135,
1852.846,1002.1109,
1849.936,1008.0832,
1847.025,1045.1086,
1844.114,1039.195,
1841.204,1034.2107,
1838.293,1037.8999,
1835.383,1016.317,
1832.472,1038.155,
1829.562,1040.9049,
1826.651,1029.8237,
1823.740,1054.354,
1820.830,1073.9066,
1817.919,1046.7431,
1815.009,1074.1244,
1812.098,1066.4104,
1809.188,1058.3091,
1806.277,1087.211,
1803.366,1073.4406,
1800.456,1102.973,
1797.545,1039.0096,
1794.635,1071.423,
1791.724,1076.7586,
1788.813,1055.4809,
1785.903,1083.0203,
1782.992,1103.7543,
1780.082,1071.3434,
1777.171,1057.8771,
1774.261,1049.4497,
1771.350,1051.7435,
1768.439,1101.003,
1765.529,1105.2389,
1762.618,1124.7507,
1759.708,1141.3206,
1756.797,1120.5871,
1753.887,1153.391,
1750.976,1170.2369,
1748.065,1179.2237,
1745.155,1172.7977,
1742.244,1137.0381,
1739.334,1143.3621,
1736.423,1163.8862,
1733.512,1163.7815,
1730.602,1158.8829,
1727.691,1160.178,
1724.781,1215.9354,
1721.870,1208.3415,
1718.960,1223.4308,
1716.049,1250.5273,
1713.138,1238.6301,
1710.228,1240.2265,
1707.317,1266.5276,
1704.407,1281.5542,
1701.496,1254.617,
1698.586,1248.1791,
1695.675,1256.2964,
1692.764,1343.9734,
1689.854,1306.7805,
1686.943,1292.3134,
1684.033,1366.9626,
1681.122,1346.2658,
1678.211,1392.4277,
1675.301,1343.0292,
1672.390,1377.9498,
1669.480,1403.0194,
1666.569,1421.6875,
1663.659,1485.3323,
1660.748,1513.3378,
1657.837,1536.8313,
1654.927,1535.8356,
1652.016,1577.3329,
1649.106,1635.3364,
1646.195,1613.6592,
1643.285,1605.5586,
1640.374,1635.8576,
1637.463,1682.9198,
1634.553,1740.7469,
1631.642,1799.5048,
1628.732,1857.0646,
1625.821,1888.9555,
1622.911,2011.1819,
1620.000,2068.1569,
1617.089,2245.2929,
1614.179,2399.5038,
1611.268,2522.3021,
1608.358,2675.5706,
1605.447,2751.7041,
1602.536,2754.9431,
1599.626,2754.875,
1596.715,2737.6306,
1593.805,2721.5657,
1590.894,2678.4835,
1587.984,2635.633,
1585.073,2626.4717,
1582.162,2589.9749,
1579.252,2581.2384,
1576.341,2512.7846,
1573.431,2499.7909,
1570.520,2520.7488,
1567.610,2509.7375,
1564.699,2498.7998,
1561.788,2425.7489,
1558.878,2415.6751,
1555.967,2398.4484,
1553.057,2365.0993,
1550.146,2341.5841,
1547.235,2291.9618,
1544.325,2245.3435,
1541.414,2213.5131,
1538.504,2199.4164,
1535.593,2183.833,
1532.683,2152.5526,
1529.772,2136.4438,
1526.861,2102.8841,
1523.951,2069.1565,
1521.040,2059.2476,
1518.130,1990.5634,
1515.219,1973.3562,
1512.309,1950.1994,
1509.398,2003.2895,
1506.487,1975.8124,
1503.577,1942.5524,
1500.666,1933.8677,
1497.756,1924.8834,
1494.845,1911.2341,
1491.934,1871.96,
1489.024,1897.9473,
1486.113,1879.4035,
1483.203,1829.9139,
1480.292,1816.2384,
1477.382,1794.6688,
1474.471,1812.129,
1471.560,1786.9457,
1468.650,1768.0423,
1465.739,1794.978,
1462.829,1770.6946,
1459.918,1767.7371,
1457.008,1787.875,
1454.097,1763.8428,
1451.186,1772.4707,
1448.276,1798.4161,
1445.365,1765.1625,
1442.455,1778.9487,
1439.544,1761.2401,
1436.633,1763.2623,
1433.723,1725.7262,
1430.812,1773.4129,
1427.902,1681.476,
1424.991,1748.7672,
1422.081,1708.6711,
1419.170,1721.2921,
1416.259,1677.7014,
1413.349,1707.658,
1410.438,1685.1862,
1407.528,1698.1996,
1404.617,1704.4809,
1401.707,1709.5337,
1398.796,1724.1232,
1395.885,1713.5796,
1392.975,1726.939,
1390.064,1787.9319,
1387.154,1781.576,
1384.243,1780.4261,
1381.332,1761.9937,
1378.422,1749.4835,
1375.511,1800.0696,
1372.601,1893.9536,
1369.690,1899.3033,
1366.780,1965.406,
1363.869,1965.4396,
1360.958,1975.3804,
1358.048,2046.1727,
1355.137,2095.7089,
1352.227,2113.313,
1349.316,2180.9222,
1346.406,2249.9094,
1343.495,2242.0336,
1340.584,2324.2676,
1337.674,2343.1982,
1334.763,2372.2864,
1331.853,2409.3757,
1328.942,2424.217,
1326.032,2433.2156,
1323.121,2471.1823,
1320.210,2472.5543,
1317.300,2478.0894,
1314.389,2555.2514,
1311.479,2606.0207,
1308.568,2619.9206,
1305.657,2717.6471,
1302.747,2790.3881,
1299.836,2698.5287,
1296.926,2795.2844,
1294.015,2933.1829,
1291.105,2976.7383,
1288.194,3046.5732,
1285.283,3091.5151,
1282.373,3164.2576,
1279.462,3243.7957,
1276.552,3320.7571,
1273.641,3365.5974,
1270.731,3380.6929,
1267.820,3401.3618,
1264.909,3307.7541,
1261.999,3308.839,
1259.088,3362.6541,
1256.178,3295.6456,
1253.267,3263.1607,
1250.356,3233.8484,
1247.446,3133.1057,
1244.535,3031.7189,
1241.625,2949.2751,
1238.714,2867.4387,
1235.804,2822.3216,
1232.893,2792.6346,
1229.982,2748.599,
1227.072,2740.4512,
1224.161,2701.2118,
1221.251,2655.905,
1218.340,2616.9625,
1215.430,2570.944,
1212.519,2539.8946,
1209.608,2528.9137,
1206.698,2532.8966,
1203.787,2561.5282,
1200.877,2512.881,
1197.966,2545.2507,
1195.055,2627.9336,
1192.145,2710.2472,
1189.234,2802.9446,
1186.324,2833.2379,
1183.413,2839.2405,
1180.503,2848.1299,
1177.592,2829.0668,
1174.681,2807.3408,
1171.771,2788.8447,
1168.860,2744.1903,
1165.950,2671.3404,
1163.039,2677.9223,
1160.129,2709.6996,
1157.218,2697.473,
1154.307,2653.776,
1151.397,2619.4478,
1148.486,2584.63,
1145.576,2557.265,
1142.665,2612.3155,
1139.754,2585.1435,
1136.844,2552.6641,
1133.933,2538.356,
1131.023,2533.5145,
1128.112,2521.2335,
1125.202,2508.2228,
1122.291,2520.1203,
1119.380,2507.9963,
1116.470,2520.3517,
1113.559,2551.2585,
1110.649,2581.4849,
1107.738,2599.8406,
1104.828,2578.8285,
1101.917,2558.3314,
1099.006,2592.8649,
1096.096,2559.445,
1093.185,2552.421,
1090.275,2600.4312,
1087.364,2562.4742,
1084.453,2575.8727,
1081.543,2595.1106,
1078.632,2568.5187,
1075.722,2545.0303,
1072.811,2589.2473,
1069.901,2594.4869,
1066.990,2594.0667,
1064.079,2646.9551,
1061.169,2665.7997,
1058.258,2668.4977,
1055.348,2697.3944,
1052.437,2735.8074,
1049.527,2706.2177,
1046.616,2740.9708,
1043.705,2751.0411,
1040.795,2779.6922,
1037.884,2784.2545,
1034.974,2800.317,
1032.063,2831.9985,
1029.153,2794.3025,
1026.242,2822.846,
1023.331,2837.2075,
1020.421,2853.817,
1017.510,2874.4422,
1014.600,2863.8826,
1011.689,2855.2553,
1008.778,2923.2429,
1005.868,3006.9599,
1002.957,3016.4238,
1000.047,3175.8511,
997.136,3238.9863,
994.226,3256.5978,
991.315,3271.2215,
988.404,3253.3093,
985.494,3203.6257,
982.583,3192.4904,
979.673,3190.1434,
976.762,3189.2879,
973.852,3188.433,
970.941,3188.7641,
968.030,3189.9733,
965.120,3184.8392,
962.209,3176.3138,
959.299,3191.873,
956.388,3197.1951,
953.477,3202.4514,
950.567,3228.8675,
947.656,3267.8507,
944.746,3199.0367,
941.835,3250.9423,
938.925,3267.1653,
936.014,3233.4672,
933.103,3212.6457,
930.193,3219.0979,
927.282,3144.3791,
924.372,3153.6808,
921.461,3123.2098,
918.551,3073.5334,
915.640,3040.3507,
912.729,3023.4825,
909.819,2996.3181,
906.908,2984.5242,
903.998,3022.0525,
901.087,3061.7908,
898.176,3071.7171,
895.266,3069.2708,
892.355,3087.4715,
889.445,3122.7207,
886.534,3190.4996,
883.624,3221.3686,
880.713,3249.2685,
877.802,3260.5798,
874.892,3239.1534,
871.981,3203.4546,
869.071,3143.3049,
866.160,3138.3947,
863.250,3143.496,
860.339,3185.2522,
857.428,3244.7791,
854.518,3196.1418,
851.607,3136.2328,
848.697,3095.611,
845.786,3114.5699,
842.875,3110.2697,
839.965,3063.8367,
837.054,3146.7402,
834.144,3223.8142,
831.233,3202.211,
828.323,3162.6084,
825.412,3122.8451,
822.501,3086.2155,
819.591,3093.6531,
816.680,3074.6442,
813.770,3041.6824,
810.859,3016.3014,
807.949,3008.0799,
805.038,3007.6029,
802.127,2955.7458,
799.217,2938.9487,
796.306,2969.4969,
793.396,2974.8519,
790.485,2945.2443,
787.574,2957.5636,
784.664,2949.3625,
781.753,2980.7532,
778.843,3019.9089,
775.932,3035.8504,
773.022,3017.7482,
770.111,3016.9306,
767.200,3055.7019,
764.290,3024.5342,
761.379,3004.691,
758.469,3028.3159,
755.558,3046.7598,
752.648,2975.8893,
749.737,2956.6527,
746.826,2959.9359,
743.916,2955.9852,
741.005,2920.9971,
738.095,2860.1064,
735.184,2747.0462,
732.274,2706.4527,
729.363,2751.9212,
726.452,2847.6457,
723.542,2896.2093,
720.631,2927.9275,
717.721,2970.1,
714.810,3006.2954,
711.899,3017.5383,
708.989,2986.0683,
706.078,2981.0672,
703.168,2985.9472,
700.257,2968.8338,
697.347,2946.7003,
694.436,2973.8712,
691.525,2936.8962,
688.615,2938.9376,
685.704,2937.1045,
682.794,2933.1941,
679.883,2953.2623,
676.973,2939.639,
674.062,2934.3227,
671.151,2944.7099,
668.241,2969.1667,
665.330,2999.1397,
662.420,3004.7308,
659.509,2978.573,
656.598,2981.916,
653.688,2993.9926,
650.777,2952.0091,
647.867,2985.4549,
644.956,2976.1579,
642.046,2946.3889,
639.135,2935.6437,
636.224,2998.6124,
633.314,2946.2125,
630.403,2973.6685,
627.493,3003.4113,
624.582,3016.4693,
621.672,3063.9889,
618.761,3049.1563,
615.850,3061.5066,
612.940,3093.6348,
610.029,3129.0587,
607.119,3136.1654,
604.208,3146.8152,
601.297,3116.4773,
598.387,3104.2323,
595.476,3159.8007,
592.566,3159.0137,
589.655,3142.6777,
586.745,3125.6296,
583.834,3118.1688,
580.923,3129.5006,
578.013,3067.5066,
575.102,3050.3014,
572.192,3065.9528,
569.281,3090.0946,
566.371,3063.4854,
563.460,3106.7304,
560.549,3103.4602,
557.639,3080.1436,
554.728,3082.5995,
551.818,3109.9106,
548.907,3162.1904,
545.996,3183.3216,
543.086,3162.4934,
540.175,3128.233,
537.265,3124.4264,
534.354,3142.4376,
531.444,3166.7268,
528.533,3183.3097,
525.622,3203.4844,
522.712,3200.594,
519.801,3234.063,
516.891,3293.9969,
513.980,3284.7054,
511.070,3319.7967,
508.159,3387.8849,
505.248,3439.3656,
502.338,3422.089,
499.427,3497.7286,
496.517,3524.6629,
493.606,3540.9792,
490.695,3565.5496,
487.785,3584.7944,
484.874,3584.6439,
481.964,3586.6125,
479.053,3595.3683,
476.143,3609.9596,
473.232,3571.3078,
470.321,3574.8515,
467.411,3573.8544,
464.500,3512.6507,
461.590,3543.2803,
458.679,3549.1235,
455.769,3552.8612,
452.858,3575.8964,
449.947,3672.1517,
447.037,3674.2789,
444.126,3669.8992,
441.216,3687.6957,
438.305,3721.2207,
435.395,3707.5172,
432.484,3737.0497,
429.573,3792.23,
426.663,3793.7503,
423.752,3755.517,
420.842,3645.7111,
417.931,3537.4606,
415.020,3546.5609,
412.110,3701.2454,
409.199,3788.6818,
406.289,3827.0245,
403.378,3845.7188,
400.468,3799.6031,
397.557,3785.9033,
394.646,3810.3081,
391.736,3874.5269,
388.825,3894.8912,
385.915,3892.3599,
383.004,3894.2979,
380.094,3918.3741,
377.183,3928.1563,
374.272,3962.3563,
371.362,4009.7722,
368.451,4058.5529,
365.541,4036.7873,
362.630,4080.5829,
359.719,4124.8347,
356.809,4131.8297,
353.898,4131.0809,
350.988,4111.3455,
348.077,4076.5792,
345.167,4038.1188,
342.256,4161.3851,
339.345,4130.9774,
336.435,4084.8115,
333.524,4115.4522,
330.614,4102.0394,
327.703,4106.0895,
324.793,4108.4614,
321.882,4092.9327,
318.971,4116.7229,
316.061,4155.6388,
313.150,4194.1107,
310.240,4214.1478,
307.329,4189.8627,
304.418,4230.4858,
301.508,4273.3488,
298.597,4207.4517,
295.687,4236.4143,
292.776,4266.2084,
289.866,4295.929,
286.955,4348.3785,
284.044,4455.1774,
281.134,4548.4226,
278.223,4623.8565,
275.313,4726.2794,
272.402,4786.2146,
269.492,4821.4795,
266.581,4836.9291,
263.670,4823.6958,
260.760,4855.3971,
257.849,4898.6533,
254.939,4929.4764,
252.028,4946.5234,
249.117,4978.4573,
246.207,5012.6632,
243.296,5027.304,
240.386,5004.7143,
237.475,4936.9363,
234.565,4851.7509,
231.654,4870.0104,
228.743,4813.4614,
225.833,4737.7756,
222.922,4667.0449,
220.012,4670.6876,
217.101,4694.4479,
214.191,4703.8871,
211.280,4657.3295,
208.369,4616.8703,
205.459,4612.4495,
202.548,4636.5101,
199.638,4657.5539,
196.727,4621.5399,
193.816,4606.6251,
190.906,4641.9416,
187.995,4672.3506,
185.085,4677.6736,
182.174,4681.6692,
179.264,4717.8075,
176.353,4734.6906,
173.442,4734.2613,
170.532,4716.5066,
167.621,4679.0159,
164.711,4536.4319,
161.800,4365.756,
158.890,4216.0526,
155.979,3900.07,
153.068,3556.8788,
150.158,3181.7006,
147.247,2722.2112,
144.337,2232.3157,
141.426,1744.5685,
138.516,1274.2879,
135.605,931.89441,
132.694,638.60627,
129.784,402.81286,
126.873,269.08358,
123.963,182.69171,
121.052,123.14396,
118.141,86.021057,
115.231,75.927015,
112.320,65.096825,
109.410,54.511447,
106.499,47.389895,
103.589,39.712201,
100.678,32.702026,
97.767,27.014526,
94.857,30.339945,
91.946,31.068778,
89.036,28.407327,
86.125,19.187659,
83.215,20.060522,
80.304,19.522942,
77.393,9.6085633,
74.483,18.046889,
71.572,20.338535,
68.662,16.221337,
65.751,19.753593,
62.840,22.801808,
59.930,21.878421,
57.019,10.597109,
54.109,9.4721608,
51.198,11.383046,
48.288,14.801388,
45.377,5.6574734,
42.466,7.6460708,
39.556,14.838933,
36.645,8.5192209,
33.735,5.8365031,
30.824,6.2003218,
27.914,10.407373,
25.003,12.742912,
22.092,13.875,
19.182,13.989414,
16.271,17.486865,
13.361,66.921209,
10.450,132.63462,
7.539,131.23799,
4.629,-43.642842,
1.718,-305.05321,
-1.192,-624.34541,
-4.103,-502.26958,
-7.013,-276.42812,
-9.924,-0.125,
