,PL6A6A~1,
Wavenumbers [1/cm],Intensity,
3014.167,1.625,
3011.256,-8.8249893,
3008.346,45.466,
3005.435,60.93242,
3002.525,58.039989,
2999.614,75.813318,
2996.704,70.76624,
2993.793,77.748848,
2990.882,87.098237,
2987.972,84.68554,
2985.061,97.955051,
2982.151,86.414905,
2979.240,92.560374,
2976.329,86.884556,
2973.419,99.440404,
2970.508,94.92502,
2967.598,107.95592,
2964.687,101.78872,
2961.777,93.317142,
2958.866,96.629454,
2955.955,99.731183,
2953.045,121.44155,
2950.134,115.77368,
2947.224,114.73888,
2944.313,118.17557,
2941.403,138.48266,
2938.492,132.63585,
2935.581,123.53914,
2932.671,135.46188,
2929.760,130.31732,
2926.850,122.5656,
2923.939,141.18575,
2921.028,136.31321,
2918.118,136.2648,
2915.207,134.625,
2912.297,155.53614,
2909.386,151.02646,
2906.476,147.59411,
2903.565,143.14055,
2900.654,137.3318,
2897.744,134.76329,
2894.833,130.77991,
2891.923,138.00651,
2889.012,125.13367,
2886.102,113.5385,
2883.191,82.664649,
2880.280,77.223071,
2877.370,27.572731,
2874.459,-12.538697,
2871.549,16.33624,
2868.638,124.58577,
2865.727,121.31724,
2862.817,136.69586,
2859.906,137.30876,
2856.996,141.62953,
2854.085,152.94855,
2851.175,146.31477,
2848.264,147.76233,
2845.353,162.17209,
2842.443,146.41664,
2839.532,134.22213,
2836.622,152.01823,
2833.711,148.625,
2830.801,160.31544,
2827.890,147.2701,
2824.979,156.46491,
2822.069,152.73872,
2819.158,158.4444,
2816.248,148.63658,
2813.337,163.26403,
2810.427,155.01481,
2807.516,168.56734,
2804.605,154.44231,
2801.695,158.75658,
2798.784,166.10754,
2795.874,142.04451,
2792.963,158.33947,
2790.052,165.62436,
2787.142,160.03273,
2784.231,149.72126,
2781.321,155.44218,
2778.410,161.40039,
2775.500,165.64465,
2772.589,156.70146,
2769.678,150.55332,
2766.768,150.0017,
2763.857,159.67895,
2760.947,157.03989,
2758.036,161.41492,
2755.126,154.80877,
2752.215,160.39303,
2749.304,167.07102,
2746.394,175.27427,
2743.483,170.32492,
2740.573,178.52762,
2737.662,166.39128,
2734.751,158.06676,
2731.841,167.43636,
2728.930,168.93015,
2726.020,156.28819,
2723.109,159.83108,
2720.199,175.34996,
2717.288,175.64324,
2714.377,163.65844,
2711.467,190.47774,
2708.556,177.625,
2705.646,182.69544,
2702.735,181.63016,
2699.825,188.58137,
2696.914,189.81545,
2694.003,180.625,
2691.093,176.16051,
2688.182,172.91611,
2685.272,174.26227,
2682.361,182.0191,
2679.450,183.33282,
2676.540,177.74694,
2673.629,179.31112,
2670.719,187.32557,
2667.808,186.15999,
2664.898,189.80691,
2661.987,190.85846,
2659.076,193.00647,
2656.166,184.93231,
2653.255,189.84949,
2650.345,199.30558,
2647.434,188.39665,
2644.524,193.15016,
2641.613,178.71048,
2638.702,199.23047,
2635.792,201.6888,
2632.881,195.6666,
2629.971,196.88002,
2627.060,185.95813,
2624.149,192.67812,
2621.239,199.37648,
2618.328,215.37068,
2615.418,200.6659,
2612.507,190.69216,
2609.597,200.16592,
2606.686,202.5728,
2603.775,210.14484,
2600.865,203.50894,
2597.954,207.38543,
2595.044,209.23262,
2592.133,212.22999,
2589.223,203.84184,
2586.312,216.67523,
2583.401,226.17609,
2580.491,221.26924,
2577.580,210.6283,
2574.670,213.73195,
2571.759,211.67038,
2568.848,218.32671,
2565.938,197.10102,
2563.027,216.60003,
2560.117,214.70912,
2557.206,202.256,
2554.296,212.19937,
2551.385,229.88105,
2548.474,231.69898,
2545.564,224.78328,
2542.653,221.92031,
2539.743,210.11884,
2536.832,217.42126,
2533.922,218.73538,
2531.011,228.64974,
2528.100,230.76087,
2525.190,228.78729,
2522.279,223.625,
2519.369,224.22874,
2516.458,233.96423,
2513.548,235.77052,
2510.637,227.30131,
2507.726,233.56551,
2504.816,236.43898,
2501.905,213.97317,
2498.995,245.625,
2496.084,247.77135,
2493.173,251.5197,
2490.263,240.25436,
2487.352,243.3746,
2484.442,243.60571,
2481.531,250.19955,
2478.621,246.46388,
2475.710,258.51765,
2472.799,245.61154,
2469.889,247.1707,
2466.978,251.39814,
2464.068,258.41338,
2461.157,252.85502,
2458.247,259.00746,
2455.336,257.11618,
2452.425,254.97406,
2449.515,268.36097,
2446.604,269.04208,
2443.694,264.1135,
2440.783,276.34122,
2437.872,263.06258,
2434.962,270.94759,
2432.051,263.55098,
2429.141,267.33676,
2426.230,262.95096,
2423.320,280.22556,
2420.409,268.34913,
2417.498,269.67554,
2414.588,273.97474,
2411.677,288.04723,
2408.767,256.24901,
2405.856,291.84641,
2402.946,285.67236,
2400.035,266.24001,
2397.124,278.29879,
2394.214,276.16381,
2391.303,269.19952,
2388.393,277.37151,
2385.482,280.49281,
2382.571,275.625,
2379.661,279.71795,
2376.750,275.62753,
2373.840,282.52806,
2370.929,289.59251,
2368.019,294.3122,
2365.108,287.39202,
2362.197,297.00037,
2359.287,314.19659,
2356.376,320.61972,
2353.466,316.81011,
2350.555,282.05548,
2347.645,309.13757,
2344.734,315.20104,
2341.823,298.90691,
2338.913,310.78319,
2336.002,299.10824,
2333.092,307.82029,
2330.181,314.88842,
2327.270,328.85493,
2324.360,335.33965,
2321.449,319.00935,
2318.539,311.02866,
2315.628,321.27129,
2312.718,309.95979,
2309.807,315.85464,
2306.896,336.15239,
2303.986,337.48855,
2301.075,317.60375,
2298.165,328.58684,
2295.254,327.73272,
2292.344,351.47153,
2289.433,328.91454,
2286.522,324.29905,
2283.612,336.14542,
2280.701,347.27969,
2277.791,336.625,
2274.880,340.26293,
2271.969,354.78549,
2269.059,348.80483,
2266.148,345.5432,
2263.238,370.91456,
2260.327,348.21115,
2257.417,349.03,
2254.506,368.00676,
2251.595,355.3487,
2248.685,355.72689,
2245.774,355.02067,
2242.864,377.84696,
2239.953,362.98369,
2237.043,349.06643,
2234.132,350.47953,
2231.221,355.0462,
2228.311,377.37111,
2225.400,358.82202,
2222.490,365.99634,
2219.579,373.77927,
2216.669,382.63931,
2213.758,375.71127,
2210.847,387.32775,
2207.937,398.29926,
2205.026,380.84804,
2202.116,368.58889,
2199.205,387.13817,
2196.294,375.87299,
2193.384,399.65053,
2190.473,412.91491,
2187.563,445.57183,
2184.652,434.625,
2181.742,431.67009,
2178.831,432.09974,
2175.920,457.36271,
2173.010,475.87557,
2170.099,474.29216,
2167.189,528.50302,
2164.278,515.44008,
2161.368,547.62379,
2158.457,575.16676,
2155.546,597.12407,
2152.636,654.1302,
2149.725,666.7995,
2146.815,670.45816,
2143.904,708.0302,
2140.993,722.72021,
2138.083,729.26026,
2135.172,739.53264,
2132.262,735.60387,
2129.351,722.84912,
2126.441,691.58607,
2123.530,680.11992,
2120.619,640.85414,
2117.709,659.12218,
2114.798,610.46722,
2111.888,563.80149,
2108.977,537.98262,
2106.067,522.66556,
2103.156,488.47028,
2100.245,501.61245,
2097.335,477.16951,
2094.424,443.1889,
2091.514,442.91536,
2088.603,444.92917,
2085.692,443.94467,
2082.782,431.36807,
2079.871,459.12674,
2076.961,435.75607,
2074.050,424.15833,
2071.140,433.98137,
2068.229,427.08725,
2065.318,419.9215,
2062.408,428.05692,
2059.497,450.66074,
2056.587,436.38124,
2053.676,444.40719,
2050.766,428.31857,
2047.855,427.73892,
2044.944,427.3686,
2042.034,406.02393,
2039.123,429.00547,
2036.213,432.74055,
2033.302,432.71194,
2030.391,434.9131,
2027.481,428.92994,
2024.570,435.05335,
2021.660,429.09803,
2018.749,425.53677,
2015.839,446.7418,
2012.928,427.26929,
2010.017,414.9616,
2007.107,440.20631,
2004.196,442.18453,
2001.286,448.25044,
1998.375,438.0994,
1995.465,439.70446,
1992.554,406.56648,
1989.643,440.24245,
1986.733,419.08991,
1983.822,409.48394,
1980.912,404.7534,
1978.001,404.16676,
1975.090,424.054,
1972.180,416.00398,
1969.269,418.49281,
1966.359,409.84112,
1963.448,426.80995,
1960.538,431.37896,
1957.627,419.03366,
1954.716,434.13664,
1951.806,425.71792,
1948.895,441.90645,
1945.985,410.85049,
1943.074,418.99026,
1940.164,420.50946,
1937.253,412.79011,
1934.342,422.14639,
1931.432,409.61553,
1928.521,410.31412,
1925.611,408.69651,
1922.700,411.16505,
1919.790,444.49169,
1916.879,450.55525,
1913.968,393.69509,
1911.058,446.03941,
1908.147,421.49943,
1905.237,409.41178,
1902.326,408.4502,
1899.415,390.54574,
1896.505,390.83573,
1893.594,384.7104,
1890.684,409.56608,
1887.773,403.56514,
1884.863,401.10564,
1881.952,396.46511,
1879.041,448.36177,
1876.131,425.90606,
1873.220,414.88163,
1870.310,431.33349,
1867.399,426.72096,
1864.489,440.06726,
1861.578,400.69101,
1858.667,396.61299,
1855.757,428.81354,
1852.846,439.11219,
1849.936,432.53191,
1847.025,446.62012,
1844.114,452.53083,
1841.204,445.31381,
1838.293,447.65493,
1835.383,433.4505,
1832.472,459.16065,
1829.562,450.98932,
1826.651,451.30055,
1823.740,478.00818,
1820.830,441.64036,
1817.919,434.32564,
1815.009,485.28657,
1812.098,459.51479,
1809.188,463.12886,
1806.277,458.73566,
1803.366,461.19063,
1800.456,492.04201,
1797.545,449.65327,
1794.635,470.39901,
1791.724,473.14931,
1788.813,460.625,
1785.903,462.50096,
1782.992,466.47894,
1780.082,439.53663,
1777.171,401.29738,
1774.261,405.83466,
1771.350,414.61702,
1768.439,454.32457,
1765.529,441.90004,
1762.618,478.84879,
1759.708,505.17937,
1756.797,495.79167,
1753.887,514.39613,
1750.976,520.11453,
1748.065,515.99827,
1745.155,483.5801,
1742.244,499.04251,
1739.334,514.88618,
1736.423,512.21192,
1733.512,505.80385,
1730.602,481.93251,
1727.691,523.75527,
1724.781,533.11896,
1721.870,545.30603,
1718.960,555.20286,
1716.049,534.81166,
1713.138,525.49503,
1710.228,522.88441,
1707.317,563.31528,
1704.407,557.84423,
1701.496,545.68643,
1698.586,577.88844,
1695.675,580.625,
1692.764,591.98566,
1689.854,587.84153,
1686.943,567.33324,
1684.033,629.03548,
1681.122,611.94786,
1678.211,625.49176,
1675.301,590.73292,
1672.390,639.49939,
1669.480,597.92181,
1666.569,634.45995,
1663.659,622.89892,
1660.748,699.4129,
1657.837,688.82183,
1654.927,698.02329,
1652.016,714.77079,
1649.106,721.16358,
1646.195,742.09752,
1643.285,721.19466,
1640.374,746.3567,
1637.463,780.71507,
1634.553,786.45256,
1631.642,841.92902,
1628.732,869.58352,
1625.821,862.70416,
1622.911,982.94315,
1620.000,1031.0203,
1617.089,1037.5056,
1614.179,1110.5099,
1611.268,1199.279,
1608.358,1241.7053,
1605.447,1278.511,
1602.536,1299.2627,
1599.626,1295.1054,
1596.715,1327.2986,
1593.805,1298.4291,
1590.894,1267.3242,
1587.984,1279.2147,
1585.073,1233.1284,
1582.162,1240.4878,
1579.252,1241.9884,
1576.341,1191.9591,
1573.431,1183.5409,
1570.520,1220.5507,
1567.610,1205.5462,
1564.699,1159.6485,
1561.788,1149.1461,
1558.878,1139.018,
1555.967,1131.643,
1553.057,1112.7631,
1550.146,1071.8978,
1547.235,1076.8284,
1544.325,1061.9552,
1541.414,1012.2423,
1538.504,1009.6357,
1535.593,1016.9129,
1532.683,1004.2468,
1529.772,993.56889,
1526.861,972.37144,
1523.951,957.50684,
1521.040,930.9599,
1518.130,890.16832,
1515.219,907.42479,
1512.309,922.05746,
1509.398,936.67646,
1506.487,902.5544,
1503.577,881.53539,
1500.666,888.93148,
1497.756,862.98135,
1494.845,902.50439,
1491.934,875.6124,
1489.024,871.76243,
1486.113,889.2421,
1483.203,847.99295,
1480.292,790.01729,
1477.382,789.51573,
1474.471,803.13568,
1471.560,823.31532,
1468.650,783.16239,
1465.739,785.32314,
1462.829,793.25364,
1459.918,779.12767,
1457.008,783.31747,
1454.097,791.92774,
1451.186,807.58631,
1448.276,806.10746,
1445.365,769.77034,
1442.455,796.07184,
1439.544,782.58684,
1436.633,765.47902,
1433.723,751.7466,
1430.812,764.42737,
1427.902,823.90341,
1424.991,793.57501,
1422.081,758.67835,
1419.170,768.58591,
1416.259,781.15582,
1413.349,764.74397,
1410.438,752.32698,
1407.528,772.7997,
1404.617,715.16961,
1401.707,712.25976,
1398.796,777.22634,
1395.885,777.58147,
1392.975,750.89626,
1390.064,764.62174,
1387.154,761.27045,
1384.243,789.10766,
1381.332,780.98107,
1378.422,737.02585,
1375.511,764.19249,
1372.601,839.2722,
1369.690,850.76833,
1366.780,903.89932,
1363.869,882.02763,
1360.958,898.33473,
1358.048,939.73072,
1355.137,931.3408,
1352.227,938.27878,
1349.316,995.62176,
1346.406,1009.4663,
1343.495,989.55189,
1340.584,1048.5181,
1337.674,1035.8427,
1334.763,1088.1543,
1331.853,1102.0627,
1328.942,1112.4091,
1326.032,1072.0283,
1323.121,1075.9624,
1320.210,1086.6183,
1317.300,1143.3361,
1314.389,1165.208,
1311.479,1163.7317,
1308.568,1190.6824,
1305.657,1217.3347,
1302.747,1235.9856,
1299.836,1233.2959,
1296.926,1319.0178,
1294.015,1370.4999,
1291.105,1344.4477,
1288.194,1410.1156,
1285.283,1462.7092,
1282.373,1496.8749,
1279.462,1533.8794,
1276.552,1577.3889,
1273.641,1608.1803,
1270.731,1610.3325,
1267.820,1597.4173,
1264.909,1590.7013,
1261.999,1548.4905,
1259.088,1572.2056,
1256.178,1561.6346,
1253.267,1502.0853,
1250.356,1484.625,
1247.446,1450.0081,
1244.535,1398.8661,
1241.625,1338.9251,
1238.714,1288.1341,
1235.804,1273.4503,
1232.893,1237.6296,
1229.982,1216.533,
1227.072,1213.8171,
1224.161,1174.9618,
1221.251,1162.4134,
1218.340,1160.625,
1215.430,1120.9865,
1212.519,1098.5857,
1209.608,1106.3725,
1206.698,1096.5824,
1203.787,1091.0923,
1200.877,1093.0678,
1197.966,1084.0762,
1195.055,1151.0316,
1192.145,1171.6411,
1189.234,1231.0699,
1186.324,1269.8076,
1183.413,1261.6098,
1180.503,1263.1976,
1177.592,1287.362,
1174.681,1230.8373,
1171.771,1211.2747,
1168.860,1196.0922,
1165.950,1195.4313,
1163.039,1183.7522,
1160.129,1205.1685,
1157.218,1196.223,
1154.307,1158.8335,
1151.397,1146.9284,
1148.486,1144.0313,
1145.576,1107.5501,
1142.665,1128.8601,
1139.754,1111.0979,
1136.844,1110.8268,
1133.933,1122.0091,
1131.023,1106.9086,
1128.112,1082.2679,
1125.202,1081.8665,
1122.291,1084.129,
1119.380,1094.5384,
1116.470,1085.7131,
1113.559,1104.7295,
1110.649,1074.6085,
1107.738,1069.5563,
1104.828,1088.6987,
1101.917,1106.9094,
1099.006,1121.7179,
1096.096,1097.6037,
1093.185,1080.9216,
1090.275,1083.6714,
1087.364,1063.3552,
1084.453,1097.4972,
1081.543,1108.3993,
1078.632,1083.6393,
1075.722,1091.0518,
1072.811,1075.9973,
1069.901,1081.2369,
1066.990,1105.0666,
1064.079,1105.8614,
1061.169,1132.3447,
1058.258,1147.5788,
1055.348,1140.7404,
1052.437,1152.1009,
1049.527,1159.39,
1046.616,1153.3082,
1043.705,1170.3526,
1040.795,1178.179,
1037.884,1185.1881,
1034.974,1206.2667,
1032.063,1225.9483,
1029.153,1203.898,
1026.242,1197.8433,
1023.331,1240.1223,
1020.421,1213.7699,
1017.510,1242.3265,
1014.600,1266.0517,
1011.689,1251.9101,
1008.778,1252.3318,
1005.868,1251.0652,
1002.957,1300.1054,
1000.047,1312.721,
997.136,1383.9294,
994.226,1429.0558,
991.315,1424.0161,
988.404,1418.4096,
985.494,1396.8168,
982.583,1405.3824,
979.673,1399.3085,
976.762,1400.1476,
973.852,1400.857,
970.941,1401.2924,
968.030,1409.2782,
965.120,1418.6536,
962.209,1425.474,
959.299,1421.6673,
956.388,1399.4663,
953.477,1394.3117,
950.567,1416.6834,
947.656,1435.9565,
944.746,1430.8592,
941.835,1417.668,
938.925,1422.5216,
936.014,1423.0842,
933.103,1415.3879,
930.193,1403.4301,
927.282,1386.0751,
924.372,1375.9278,
921.461,1359.897,
918.551,1330.8067,
915.640,1304.7012,
912.729,1288.0629,
909.819,1278.9611,
906.908,1304.2339,
903.998,1297.6714,
901.087,1315.3567,
898.176,1326.625,
895.266,1340.2732,
892.355,1372.6091,
889.445,1388.5552,
886.534,1394.4691,
883.624,1404.3718,
880.713,1390.2522,
877.802,1367.4141,
874.892,1364.0596,
871.981,1389.5474,
869.071,1259.223,
866.160,1272.5029,
863.250,1304.8753,
860.339,1335.0179,
857.428,1364.5381,
854.518,1372.1195,
851.607,1354.646,
848.697,1300.7265,
845.786,1298.3836,
842.875,1294.9044,
839.965,1265.3778,
837.054,1323.8948,
834.144,1347.9286,
831.233,1339.2926,
828.323,1330.1521,
825.412,1338.5717,
822.501,1353.1354,
819.591,1306.0307,
816.680,1271.7724,
813.770,1239.1914,
810.859,1246.7358,
807.949,1268.9396,
805.038,1257.2223,
802.127,1262.1611,
799.217,1257.4073,
796.306,1254.4899,
793.396,1239.2203,
790.485,1218.3096,
787.574,1224.6561,
784.664,1225.4762,
781.753,1237.0317,
778.843,1254.387,
775.932,1256.7486,
773.022,1243.1204,
770.111,1297.8982,
767.200,1290.9666,
764.290,1270.2887,
761.379,1258.8066,
758.469,1254.9748,
755.558,1234.3787,
752.648,1259.6314,
749.737,1250.2636,
746.826,1243.0912,
743.916,1239.4366,
741.005,1223.3061,
738.095,1176.2173,
735.184,1154.8937,
732.274,1086.0432,
729.363,1058.877,
726.452,1131.0966,
723.542,1211.2265,
720.631,1181.2207,
717.721,1209.0057,
714.810,1246.3806,
711.899,1255.922,
708.989,1235.7489,
706.078,1232.4198,
703.168,1260.1644,
700.257,1262.1221,
697.347,1233.1908,
694.436,1214.2142,
691.525,1235.9169,
688.615,1217.9842,
685.704,1208.5102,
682.794,1214.7952,
679.883,1219.0215,
676.973,1227.8366,
674.062,1246.8532,
671.151,1238.6535,
668.241,1224.4402,
665.330,1251.8309,
662.420,1235.0575,
659.509,1222.101,
656.598,1220.5197,
653.688,1230.4559,
650.777,1246.0309,
647.867,1228.5117,
644.956,1215.9569,
642.046,1193.6265,
639.135,1178.4286,
636.224,1211.5454,
633.314,1195.6667,
630.403,1233.0097,
627.493,1258.9365,
624.582,1256.2141,
621.672,1263.3421,
618.761,1262.8651,
615.850,1271.4408,
612.940,1285.1142,
610.029,1294.6,
607.119,1276.4385,
604.208,1269.6549,
601.297,1275.6013,
598.387,1288.4977,
595.476,1301.5906,
592.566,1311.8225,
589.655,1298.7235,
586.745,1290.191,
583.834,1281.5004,
580.923,1252.5444,
578.013,1239.204,
575.102,1220.7117,
572.192,1213.5551,
569.281,1221.0468,
566.371,1223.3947,
563.460,1255.3711,
560.549,1278.3706,
557.639,1288.8936,
554.728,1290.167,
551.818,1298.7505,
548.907,1315.2509,
545.996,1300.52,
543.086,1273.0263,
540.175,1321.3023,
537.265,1313.0365,
534.354,1312.1368,
531.444,1327.3286,
528.533,1358.3424,
525.622,1368.4297,
522.712,1361.5237,
519.801,1352.9518,
516.891,1355.3547,
513.980,1388.6494,
511.070,1397.9641,
508.159,1425.4585,
505.248,1462.8899,
502.338,1492.4954,
499.427,1453.9038,
496.517,1500.7563,
493.606,1529.1464,
490.695,1502.9044,
487.785,1533.696,
484.874,1558.6579,
481.964,1556.7514,
479.053,1538.0734,
476.143,1535.7695,
473.232,1504.6906,
470.321,1510.1417,
467.411,1517.2283,
464.500,1484.3038,
461.590,1511.1047,
458.679,1534.5835,
455.769,1552.0359,
452.858,1562.659,
449.947,1572.5901,
447.037,1574.0182,
444.126,1573.2553,
441.216,1570.1115,
438.305,1555.6348,
435.395,1615.2548,
432.484,1633.4554,
429.573,1611.495,
426.663,1602.3733,
423.752,1575.1231,
420.842,1454.0204,
417.931,1324.2714,
415.020,1326.5465,
412.110,1382.2276,
409.199,1442.2338,
406.289,1518.5541,
403.378,1625.6071,
400.468,1620.3151,
397.557,1604.2288,
394.646,1610.0179,
391.736,1662.8423,
388.825,1669.6304,
385.915,1662.5777,
383.004,1652.0551,
380.094,1645.4714,
377.183,1642.4615,
374.272,1690.4752,
371.362,1752.2279,
368.451,1799.2543,
365.541,1760.2264,
362.630,1767.6509,
359.719,1786.1766,
356.809,1793.9001,
353.898,1781.9193,
350.988,1787.3048,
348.077,1780.9758,
345.167,1748.6467,
342.256,1768.8176,
339.345,1776.2193,
336.435,1785.12,
333.524,1803.0513,
330.614,1753.1259,
327.703,1781.7778,
324.793,1818.9848,
321.882,1805.6358,
318.971,1810.0965,
316.061,1810.1601,
313.150,1817.8631,
310.240,1847.5477,
307.329,1869.3495,
304.418,1887.2,
301.508,1880.9019,
298.597,1814.2644,
295.687,1824.2015,
292.776,1854.1251,
289.866,1883.4453,
286.955,1873.1032,
284.044,1945.6274,
281.134,2013.8046,
278.223,2064.7086,
275.313,2119.9727,
272.402,2107.808,
269.492,2099.18,
266.581,2115.8908,
263.670,2091.6299,
260.760,2120.1471,
257.849,2155.9612,
254.939,2165.5016,
252.028,2208.3318,
249.117,2236.0457,
246.207,2246.5944,
243.296,2234.8818,
240.386,2224.4831,
237.475,2236.145,
234.565,2259.289,
231.654,2238.1079,
228.743,2185.2941,
225.833,2136.2096,
222.922,2105.2853,
220.012,2097.9997,
217.101,2107.8929,
214.191,2114.9424,
211.280,2096.0284,
208.369,2123.556,
205.459,2128.8415,
202.548,2123.1459,
199.638,2166.6849,
196.727,2133.5612,
193.816,2137.2426,
190.906,2215.441,
187.995,2153.1749,
185.085,2143.4464,
182.174,2161.1303,
179.264,2177.7539,
176.353,2150.1492,
173.442,2148.4899,
170.532,2174.625,
167.621,2174.625,
164.711,2152.5512,
161.800,2096.9891,
158.890,1992.6286,
155.979,1791.7974,
153.068,1650.7706,
150.158,1532.7512,
147.247,1280.75,
144.337,1069.0436,
141.426,854.6472,
138.516,617.3562,
135.605,456.0459,
132.694,313.49063,
129.784,194.68803,
126.873,123.17504,
123.963,82.447774,
121.052,58.658951,
118.141,48.664323,
115.231,35.124163,
112.320,32.166816,
109.410,33.306961,
106.499,21.200322,
103.589,11.341692,
100.678,7.2547302,
97.767,11.520356,
94.857,12.317989,
91.946,11.818778,
89.036,9.1573272,
86.125,-0.062341348,
83.215,-0.25131858,
80.304,-0.29046148,
77.393,-5.955821,
74.483,4.1071593,
71.572,7.4508873,
68.662,4.2484075,
65.751,10.606467,
62.840,8.7713841,
59.930,4.0631414,
57.019,1.9478954,
54.109,3.4164825,
51.198,6.1330464,
48.288,9.5570507,
45.377,1.1165139,
42.466,3.8082901,
39.556,12.394763,
36.645,10.990382,
33.735,6.4710123,
30.824,4.3920958,
27.914,10.001498,
25.003,11.247637,
22.092,11.947905,
19.182,13.059774,
16.271,26.350087,
13.361,148.36886,
10.450,354.89806,
7.539,623.74947,
4.629,690.01073,
1.718,527.54511,
-1.192,8.86957,
-4.103,-101.1272,
-7.013,-89.548069,
-9.924,1.625,
