,Pliquid_AuCOFNPs-citrate13new_1E-1mgmL_100uL_CTR_1E-4mgL_16h_785nm_133mW_3s_1acc_3_RamanShift__0__05,
Raman shift [1/cm],Intensity,
3014.167,-0.25,
3011.256,-0.25,
3008.346,51.893902,
3005.435,54.78887,
3002.525,59.920022,
2999.614,46.651309,
2996.704,50.705671,
2993.793,59.759216,
2990.882,59.52859,
2987.972,78.628921,
2985.061,61.400255,
2982.151,63.585289,
2979.240,59.131165,
2976.329,73.75546,
2973.419,62.719449,
2970.508,64.84994,
2967.598,74.084538,
2964.687,79.317256,
2961.777,78.655992,
2958.866,81.761878,
2955.955,85.480063,
2953.045,79.850677,
2950.134,83.537169,
2947.224,78.034688,
2944.313,80.559116,
2941.403,71.75,
2938.492,86.771691,
2935.581,89.002777,
2932.671,97.192079,
2929.760,91.176897,
2926.850,82.436466,
2923.939,82.993013,
2921.028,98.950263,
2918.118,102.9301,
2915.207,104.92723,
2912.297,87.826164,
2909.386,92.319353,
2906.476,83.780894,
2903.565,98.427034,
2900.654,102.30309,
2897.744,89.86315,
2894.833,96.688183,
2891.923,92.128199,
2889.012,102.54769,
2886.102,92.414855,
2883.191,86.761328,
2880.280,94.080138,
2877.370,97.092981,
2874.459,92.56769,
2871.549,98.960442,
2868.638,103.29638,
2865.727,101.95771,
2862.817,106.59357,
2859.906,91.029195,
2856.996,113.72736,
2854.085,120.51051,
2851.175,98.798183,
2848.264,97.254835,
2845.353,103.96567,
2842.443,112.55209,
2839.532,111.52611,
2836.622,118.6263,
2833.711,109.37952,
2830.801,105.45515,
2827.890,98.001764,
2824.979,108.03399,
2822.069,125.70451,
2819.158,123.65027,
2816.248,114.79632,
2813.337,118.3378,
2810.427,128.36019,
2807.516,120.69969,
2804.605,113.97596,
2801.695,117.61842,
2798.784,109.34138,
2795.874,119.02968,
2792.963,120.24989,
2790.052,126.74807,
2787.142,110.26312,
2784.231,117.10402,
2781.321,106.62428,
2778.410,109.72969,
2775.500,111.38897,
2772.589,109.01987,
2769.678,121.07081,
2766.768,116.44514,
2763.857,114.38391,
2760.947,121.1712,
2758.036,121.45708,
2755.126,111.9765,
2752.215,126.26343,
2749.304,118.72841,
2746.394,127.02015,
2743.483,132.85,
2740.573,132.86283,
2737.662,117.10059,
2734.751,127.63351,
2731.841,140.12913,
2728.930,130.40258,
2726.020,130.75521,
2723.109,118.7915,
2720.199,125.25934,
2717.288,135.64416,
2714.377,138.87918,
2711.467,145.11044,
2708.556,140.6759,
2705.646,125.21478,
2702.735,129.77063,
2699.825,143.39179,
2696.914,139.98819,
2694.003,141.49309,
2691.093,130.37456,
2688.182,132.49667,
2685.272,141.19239,
2682.361,134.3559,
2679.450,142.95161,
2676.540,130.6687,
2673.629,130.73204,
2670.719,138.75,
2667.808,144.45819,
2664.898,151.55545,
2661.987,144.11681,
2659.076,145.38578,
2656.166,148.79766,
2653.255,147.45068,
2650.345,151.04583,
2647.434,157.60653,
2644.524,140.1553,
2641.613,143.94987,
2638.702,151.59219,
2635.792,152.93843,
2632.881,145.17263,
2629.971,161.32728,
2627.060,162.24969,
2624.149,166.5875,
2621.239,152.21739,
2618.328,166.66523,
2615.418,161.43181,
2612.507,164.67882,
2609.597,164.39271,
2606.686,153.97088,
2603.775,156.99207,
2600.865,150.75337,
2597.954,161.03748,
2595.044,168.73229,
2592.133,173.36147,
2589.223,163.94262,
2586.312,178.30784,
2583.401,159.89235,
2580.491,163.75,
2577.580,171.7434,
2574.670,171.90106,
2571.759,168.43665,
2568.848,160.86604,
2565.938,176.13107,
2563.027,168.79995,
2560.117,177.03036,
2557.206,182.79059,
2554.296,177.77975,
2551.385,179.68397,
2548.474,187.00948,
2545.564,173.35146,
2542.653,182.36074,
2539.743,175.77465,
2536.832,179.79112,
2533.922,184.03385,
2531.011,194.32563,
2528.100,179.54792,
2525.190,185.33115,
2522.279,186.21898,
2519.369,196.65561,
2516.458,193.74646,
2513.548,196.22264,
2510.637,180.73372,
2507.726,192.62732,
2504.816,184.62486,
2501.905,193.48902,
2498.995,189.73478,
2496.084,175.28311,
2493.173,190.35563,
2490.263,187.78388,
2487.352,214.70827,
2484.442,209.19327,
2481.531,206.70204,
2478.621,195.55562,
2475.710,204.89569,
2472.799,215.85771,
2469.889,200.96054,
2466.978,211.47164,
2464.068,190.68114,
2461.157,209.40741,
2458.247,214.51459,
2455.336,217.2373,
2452.425,193.65563,
2449.515,206.48597,
2446.604,212.8076,
2443.694,219.98274,
2440.783,214.03378,
2437.872,190.06274,
2434.962,221.59793,
2432.051,212.75,
2429.141,225.5616,
2426.230,220.4671,
2423.320,230.92179,
2420.409,218.77558,
2417.498,222.55337,
2414.588,220.93251,
2411.677,226.21616,
2408.767,236.47343,
2405.856,233.97141,
2402.946,229.85098,
2400.035,228.44719,
2397.124,238.62701,
2394.214,230.0744,
2391.303,235.03726,
2388.393,230.53835,
2385.482,241.13313,
2382.571,229.38251,
2379.661,244.23835,
2376.750,238.6466,
2373.840,228.04377,
2370.929,231.69585,
2368.019,237.02646,
2365.108,249.16885,
2362.197,240.18011,
2359.287,238.94332,
2356.376,230.76585,
2353.466,258.63022,
2350.555,235.37991,
2347.645,245.95925,
2344.734,261.26614,
2341.823,261.76658,
2338.913,244.46045,
2336.002,246.26676,
2333.092,252.76134,
2330.181,258.99553,
2327.270,265.36496,
2324.360,258.94341,
2321.449,256.33504,
2318.539,256.64296,
2315.628,253.14488,
2312.718,255.51652,
2309.807,258.22819,
2306.896,268.27739,
2303.986,271.7889,
2301.075,268.30317,
2298.165,277.33664,
2295.254,277.77154,
2292.344,257.1151,
2289.433,273.445,
2286.522,282.80355,
2283.612,288.20026,
2280.701,257.72764,
2277.791,296.18895,
2274.880,282.32201,
2271.969,282.68416,
2269.059,291.33584,
2266.148,293.56135,
2263.238,299.94691,
2260.327,290.33615,
2257.417,289.02,
2254.506,301.53632,
2251.595,306.60087,
2248.685,292.60007,
2245.774,298.36517,
2242.864,292.20386,
2239.953,298.29484,
2237.043,309.6082,
2234.132,304.97089,
2231.221,306.77853,
2228.311,307.05156,
2225.400,312.60927,
2222.490,310.90642,
2219.579,319.62144,
2216.669,316.71661,
2213.758,312.6611,
2210.847,308.36209,
2207.937,338.48775,
2205.026,316.63863,
2202.116,324.53662,
2199.205,325.92506,
2196.294,326.99799,
2193.384,320.22399,
2190.473,330.4777,
2187.563,333.77417,
2184.652,339.20184,
2181.742,345.0004,
2178.831,351.87062,
2175.920,350.75,
2173.010,371.05159,
2170.099,379.61657,
2167.189,381.8074,
2164.278,391.65754,
2161.368,406.46384,
2158.457,428.88244,
2155.546,457.40098,
2152.636,452.51067,
2149.725,461.72985,
2146.815,499.54872,
2143.904,513.54555,
2140.993,499.02518,
2138.083,499.15115,
2135.172,510.83397,
2132.262,512.01584,
2129.351,520.26035,
2126.441,488.06058,
2123.530,482.80612,
2120.619,485.13543,
2117.709,468.48631,
2114.798,441.72278,
2111.888,419.71167,
2108.977,416.76985,
2106.067,408.54189,
2103.156,412.38951,
2100.245,393.76819,
2097.335,419.25786,
2094.424,391.8352,
2091.514,388.25271,
2088.603,399.39513,
2085.692,388.42669,
2082.782,377.16365,
2079.871,384.32176,
2076.961,380.13747,
2074.050,383.28333,
2071.140,387.95736,
2068.229,365.09764,
2065.318,384.75,
2062.408,378.34834,
2059.497,374.15477,
2056.587,375.75,
2053.676,373.30015,
2050.766,391.21039,
2047.855,361.2911,
2044.944,381.34615,
2042.034,391.513,
2039.123,400.95202,
2036.213,410.57885,
2033.302,399.38041,
2030.391,384.00469,
2027.481,405.99361,
2024.570,399.05047,
2021.660,381.63694,
2018.749,399.18014,
2015.839,382.73228,
2012.928,378.02517,
2010.017,406.72394,
2007.107,401.63223,
2004.196,394.82144,
2001.286,390.49913,
1998.375,394.1004,
1995.465,407.97589,
1992.554,401.98537,
1989.643,419.09329,
1986.733,414.73333,
1983.822,399.71233,
1980.912,420.48289,
1978.001,414.38635,
1975.090,396.68895,
1972.180,432.8178,
1969.269,427.0689,
1966.359,413.39866,
1963.448,423.97722,
1960.538,441.54566,
1957.627,422.45896,
1954.716,428.49146,
1951.806,424.64421,
1948.895,438.1792,
1945.985,418.03922,
1943.074,436.71307,
1940.164,441.03845,
1937.253,428.55893,
1934.342,420.30561,
1931.432,434.25473,
1928.521,419.61874,
1925.611,417.39926,
1922.700,438.1616,
1919.790,407.43826,
1916.879,429.65752,
1913.968,467.70574,
1911.058,447.10735,
1908.147,415.861,
1905.237,445.22787,
1902.326,417.51738,
1899.415,458.0939,
1896.505,468.49713,
1893.594,468.5792,
1890.684,452.4297,
1887.773,440.42285,
1884.863,455.17597,
1881.952,468.65752,
1879.041,468.50649,
1876.131,436.98923,
1873.220,462.87403,
1870.310,475.176,
1867.399,414.7416,
1864.489,454.36056,
1861.578,443.81601,
1858.667,440.0314,
1855.757,471.9457,
1852.846,474.73975,
1849.936,462.40166,
1847.025,449.16119,
1844.114,466.23476,
1841.204,484.14161,
1838.293,471.26414,
1835.383,476.95899,
1832.472,482.22652,
1829.562,470.72318,
1826.651,489.99843,
1823.740,498.56609,
1820.830,483.08845,
1817.919,470.60624,
1815.009,491.86832,
1812.098,493.95473,
1809.188,489.06009,
1806.277,491.6836,
1803.366,475.58181,
1800.456,522.60667,
1797.545,487.96265,
1794.635,507.16996,
1791.724,490.74028,
1788.813,501.95797,
1785.903,514.32179,
1782.992,481.79772,
1780.082,509.17272,
1777.171,513.07869,
1774.261,501.95513,
1771.350,519.082,
1768.439,524.91968,
1765.529,514.74906,
1762.618,528.55816,
1759.708,549.23913,
1756.797,526.15909,
1753.887,520.8535,
1750.976,499.31873,
1748.065,517.30299,
1745.155,520.39532,
1742.244,511.72282,
1739.334,534.29117,
1736.423,535.97805,
1733.512,540.75409,
1730.602,561.70241,
1727.691,529.36697,
1724.781,541.3473,
1721.870,529.24037,
1718.960,558.46152,
1716.049,577.49565,
1713.138,583.16998,
1710.228,599.41535,
1707.317,588.48143,
1704.407,584.95321,
1701.496,558.31511,
1698.586,570.53375,
1695.675,582.9785,
1692.764,592.2705,
1689.854,609.97048,
1686.943,577.89667,
1684.033,597.22844,
1681.122,638.05331,
1678.211,635.77855,
1675.301,609.83017,
1672.390,600.07599,
1669.480,708.50934,
1666.569,677.8232,
1663.659,607.20358,
1660.748,694.55718,
1657.837,685.31861,
1654.927,710.44542,
1652.016,698.72196,
1649.106,737.08901,
1646.195,710.63012,
1643.285,705.68164,
1640.374,702.81272,
1637.463,706.4886,
1634.553,746.89778,
1631.642,757.02145,
1628.732,781.70852,
1625.821,774.78075,
1622.911,821.48515,
1620.000,873.09487,
1617.089,900.21269,
1614.179,957.11434,
1611.268,1003.0398,
1608.358,1044.7834,
1605.447,1058.0644,
1602.536,1074.5921,
1599.626,1093.2287,
1596.715,1092.0272,
1593.805,1038.0901,
1590.894,1098.6809,
1587.984,1103.4195,
1585.073,1046.5961,
1582.162,1061.7966,
1579.252,1042.201,
1576.341,1026.3362,
1573.431,1054.2938,
1570.520,1044.405,
1567.610,1001.4945,
1564.699,982.22473,
1561.788,988.90484,
1558.878,1001.6259,
1555.967,983.2874,
1553.057,930.92283,
1550.146,915.73907,
1547.235,931.37588,
1544.325,916.12873,
1541.414,890.10908,
1538.504,896.62267,
1535.593,873.71833,
1532.683,828.39969,
1529.772,833.54978,
1526.861,856.57794,
1523.951,867.10449,
1521.040,857.33431,
1518.130,851.4306,
1515.219,893.67075,
1512.309,869.73199,
1509.398,876.39448,
1506.487,871.86848,
1503.577,847.6568,
1500.666,885.62343,
1497.756,867.60579,
1494.845,853.22972,
1491.934,840.7185,
1489.024,831.09357,
1486.113,831.67722,
1483.203,828.19733,
1480.292,798.0521,
1477.382,817.80569,
1474.471,836.79544,
1471.560,841.47567,
1468.650,841.75,
1465.739,801.39912,
1462.829,781.73409,
1459.918,799.21975,
1457.008,829.01176,
1454.097,843.90137,
1451.186,818.4618,
1448.276,790.91557,
1445.365,795.89218,
1442.455,795.40295,
1439.544,821.35856,
1436.633,839.70134,
1433.723,830.88669,
1430.812,809.36508,
1427.902,878.93821,
1424.991,844.81876,
1422.081,866.68693,
1419.170,914.5452,
1416.259,813.20155,
1413.349,848.16928,
1410.438,902.73898,
1407.528,845.65093,
1404.617,845.08759,
1401.707,880.16917,
1398.796,857.01232,
1395.885,811.34832,
1392.975,808.27144,
1390.064,834.45569,
1387.154,827.2075,
1384.243,796.09304,
1381.332,752.51663,
1378.422,774.36356,
1375.511,766.86931,
1372.601,857.98546,
1369.690,936.89946,
1366.780,908.35621,
1363.869,903.56182,
1360.958,946.68341,
1358.048,974.27643,
1355.137,999.25168,
1352.227,1004.0244,
1349.316,1003.692,
1346.406,1037.6907,
1343.495,1060.9852,
1340.584,1075.5356,
1337.674,1080.3196,
1334.763,1051.3619,
1331.853,1041.1623,
1328.942,1066.5445,
1326.032,1062.4094,
1323.121,1059.2681,
1320.210,1062.7455,
1317.300,1078.3253,
1314.389,1077.472,
1311.479,1087.8469,
1308.568,1097.2272,
1305.657,1069.1548,
1302.747,1077.4004,
1299.836,1098.9441,
1296.926,1122.0918,
1294.015,1129.4464,
1291.105,1202.835,
1288.194,1212.75,
1285.283,1220.626,
1282.373,1220.5859,
1279.462,1245.6514,
1276.552,1271.4666,
1273.641,1295.8691,
1270.731,1313.4604,
1267.820,1280.2816,
1264.909,1298.3439,
1261.999,1329.2867,
1259.088,1261.7897,
1256.178,1276.592,
1253.267,1285.8876,
1250.356,1242.374,
1247.446,1191.4136,
1244.535,1179.1741,
1241.625,1188.9611,
1238.714,1177.0501,
1235.804,1144.3471,
1232.893,1135.6252,
1229.982,1133.1861,
1227.072,1087.0152,
1224.161,1066.0994,
1221.251,1062.75,
1218.340,1045.2591,
1215.430,1024.1888,
1212.519,1023.3524,
1209.608,1021.7012,
1206.698,1010.9843,
1203.787,1048.7349,
1200.877,1076.9759,
1197.966,1096.7574,
1195.055,1084.9513,
1192.145,1091.0148,
1189.234,1106.7258,
1186.324,1137.7523,
1183.413,1149.3591,
1180.503,1141.7853,
1177.592,1143.5681,
1174.681,1132.1575,
1171.771,1148.2349,
1168.860,1125.9076,
1165.950,1118.9123,
1163.039,1059.7826,
1160.129,1071.321,
1157.218,1082.3279,
1154.307,1083.0751,
1151.397,1101.3656,
1148.486,1074.6001,
1145.576,1075.2919,
1142.665,1110.8084,
1139.754,1040.5234,
1136.844,1039.857,
1133.933,1060.2396,
1131.023,1069.75,
1128.112,1062.2511,
1125.202,1048.5085,
1122.291,1049.254,
1119.380,1059.9492,
1116.470,1080.2474,
1113.559,1088.1627,
1110.649,1079.2725,
1107.738,1082.3231,
1104.828,1092.6627,
1101.917,1088.7615,
1099.006,1075.0076,
1096.096,1099.1587,
1093.185,1089.5007,
1090.275,1075.8017,
1087.364,1076.8667,
1084.453,1074.2503,
1081.543,1074.2558,
1078.632,1076.2428,
1075.722,1069.8097,
1072.811,1065.2536,
1069.901,1058.2675,
1066.990,1069.875,
1064.079,1091.1239,
1061.169,1097.5408,
1058.258,1096.1735,
1055.348,1104.3929,
1052.437,1132.2613,
1049.527,1179.0381,
1046.616,1134.7278,
1043.705,1162.1221,
1040.795,1150.6793,
1037.884,1162.0139,
1034.974,1185.4948,
1032.063,1182.2194,
1029.153,1165.0496,
1026.242,1142.5607,
1023.331,1175.0812,
1020.421,1167.808,
1017.510,1179.6788,
1014.600,1188.2519,
1011.689,1178.1844,
1008.778,1179.5204,
1005.868,1224.9276,
1002.957,1244.7158,
1000.047,1300.894,
997.136,1325.4486,
994.226,1330.0884,
991.315,1319.5718,
988.404,1295.6411,
985.494,1314.8485,
982.583,1274.5904,
979.673,1284.1146,
976.762,1273.8982,
973.852,1275.1263,
970.941,1291.3428,
968.030,1291.3974,
965.120,1283.6963,
962.209,1270.9082,
959.299,1288.581,
956.388,1278.2712,
953.477,1277.3139,
950.567,1297.7957,
947.656,1298.9674,
944.746,1285.3745,
941.835,1280.7009,
938.925,1299.4915,
936.014,1305.1976,
933.103,1309.5774,
930.193,1315.1629,
927.282,1273.8499,
924.372,1294.1444,
921.461,1288.6496,
918.551,1271.8076,
915.640,1254.526,
912.729,1240.4563,
909.819,1227.1931,
906.908,1215.3992,
903.998,1205.2056,
901.087,1250.488,
898.176,1272.5009,
895.266,1275.6372,
892.355,1293.1794,
889.445,1284.7867,
886.534,1329.8331,
883.624,1301.7442,
880.713,1308.2471,
877.802,1337.3083,
874.892,1342.0508,
871.981,1317.1051,
869.071,1332.1425,
866.160,1348.5492,
863.250,1348.4596,
860.339,1332.7267,
857.428,1315.1326,
854.518,1316.9666,
851.607,1324.4553,
848.697,1311.3058,
845.786,1291.2569,
842.875,1289.9356,
839.965,1308.415,
837.054,1298.0105,
834.144,1321.2156,
831.233,1328.4165,
828.323,1320.8477,
825.412,1317.2234,
822.501,1326.218,
819.591,1312.1692,
816.680,1290.9166,
813.770,1305.7981,
810.859,1293.383,
807.949,1264.5768,
805.038,1262.469,
802.127,1227.0745,
799.217,1253.5656,
796.306,1246.7228,
793.396,1248.1547,
790.485,1268.8548,
787.574,1261.5009,
784.664,1254.94,
781.753,1275.2215,
778.843,1278.8888,
775.932,1283.7868,
773.022,1310.116,
770.111,1306.0281,
767.200,1291.2851,
764.290,1268.8358,
761.379,1267.566,
758.469,1284.9129,
755.558,1280.8261,
752.648,1249.8712,
749.737,1242.4444,
746.826,1235.2229,
743.916,1207.925,
741.005,1146.5707,
738.095,1056.4524,
735.184,904.16818,
732.274,886.66641,
729.363,970.83965,
726.452,1090.4075,
723.542,1215.8635,
720.631,1247.9798,
717.721,1268.3526,
714.810,1275.4659,
711.899,1270.0569,
708.989,1262.7946,
706.078,1278.7761,
703.168,1277.8922,
700.257,1277.638,
697.347,1279.5763,
694.436,1271.6627,
691.525,1268.4475,
688.615,1289.7619,
685.704,1288.9358,
682.794,1273.0904,
679.883,1280.2454,
676.973,1269.0262,
674.062,1280.7878,
671.151,1294.01,
668.241,1290.9818,
665.330,1259.7878,
662.420,1260.5865,
659.509,1294.4013,
656.598,1288.6505,
653.688,1271.1629,
650.777,1323.6141,
647.867,1349.0966,
644.956,1318.8393,
642.046,1298.823,
639.135,1301.3308,
636.224,1300.0046,
633.314,1350.8167,
630.403,1343.6488,
627.493,1316.6915,
624.582,1303.6957,
621.672,1339.3354,
618.761,1355.9488,
615.850,1365.7089,
612.940,1373.5069,
610.029,1380.75,
607.119,1380.75,
604.208,1385.0101,
601.297,1391.7352,
598.387,1378.6922,
595.476,1335.8298,
592.566,1357.8677,
589.655,1360.4542,
586.745,1372.3351,
583.834,1383.6996,
580.923,1365.7216,
578.013,1361.0132,
575.102,1326.4819,
572.192,1314.9695,
569.281,1337.6252,
566.371,1331.3642,
563.460,1357.5578,
560.549,1359.0044,
557.639,1361.641,
554.728,1397.292,
551.818,1405.8755,
548.907,1426.6418,
545.996,1430.1966,
543.086,1418.0921,
540.175,1424.3213,
537.265,1390.7089,
534.354,1385.7771,
531.444,1393.75,
528.533,1393.5293,
525.622,1390.4255,
522.712,1429.189,
519.801,1442.9117,
516.891,1426.8801,
513.980,1442.366,
511.070,1450.0891,
508.159,1447.9743,
505.248,1448.5083,
502.338,1466.97,
499.427,1508.6489,
496.517,1540.1136,
493.606,1543.2998,
490.695,1520.2478,
487.785,1531.0249,
484.874,1545.0283,
481.964,1547.1819,
479.053,1534.8665,
476.143,1510.2917,
473.232,1522.4187,
470.321,1539.4278,
467.411,1542.6326,
464.500,1516.4288,
461.590,1543.2297,
458.679,1529.8388,
455.769,1523.1471,
452.858,1544.3184,
449.947,1530.5676,
447.037,1508.9404,
444.126,1520.0409,
441.216,1559.8823,
438.305,1560.6442,
435.395,1558.1275,
432.484,1553.8327,
429.573,1558.6251,
426.663,1596.6321,
423.752,1578.13,
420.842,1590.6709,
417.931,1617.8273,
415.020,1621.6191,
412.110,1619.5552,
409.199,1625.107,
406.289,1630.2741,
403.378,1625.6706,
400.468,1602.2348,
397.557,1583.9529,
394.646,1570.7872,
391.736,1561.5669,
388.825,1524.6096,
385.915,1477.5608,
383.004,1464.0248,
380.094,1512.2069,
377.183,1560.3654,
374.272,1591.119,
371.362,1604.2784,
368.451,1602.8472,
365.541,1637.3718,
362.630,1671.3308,
359.719,1671.6242,
356.809,1626.4232,
353.898,1670.6023,
350.988,1684.9199,
348.077,1682.3939,
345.167,1672.8852,
342.256,1695.2973,
339.345,1690.5899,
336.435,1669.6463,
333.524,1642.1828,
330.614,1687.6373,
327.703,1676.0797,
324.793,1665.6707,
321.882,1705.7212,
318.971,1693.8261,
316.061,1686.3318,
313.150,1677.9,
310.240,1662.3156,
307.329,1683.1891,
304.418,1683.9988,
301.508,1668.8423,
298.597,1646.6298,
295.687,1576.3487,
292.776,1557.9167,
289.866,1592.6963,
286.955,1663.6139,
284.044,1699.6825,
281.134,1728.8209,
278.223,1766.2226,
275.313,1858.3295,
272.402,1874.8455,
269.492,1890.1769,
266.581,1928.4332,
263.670,1937.9905,
260.760,1944.9291,
257.849,1951.8295,
254.939,1960.6361,
252.028,1945.5493,
249.117,1958.9368,
246.207,1980.2347,
243.296,1974.3784,
240.386,1968.5261,
237.475,1974.2021,
234.565,1985.9095,
231.654,1974.2233,
228.743,1955.6397,
225.833,1958.9948,
222.922,1990.4885,
220.012,1920.5472,
217.101,1928.1744,
214.191,1945.9807,
211.280,1900.1505,
208.369,1888.0034,
205.459,1912.496,
202.548,1949.4826,
199.638,1913.2001,
196.727,1957.6094,
193.816,1975.8825,
190.906,1931.5022,
187.995,1981.4599,
185.085,1966.123,
182.174,1949.926,
179.264,2024.3709,
176.353,1985.9731,
173.442,1960.8377,
170.532,1958.3816,
167.621,1920.8909,
164.711,1870.8069,
161.800,1803.2921,
158.890,1711.167,
155.979,1597.8808,
153.068,1471.8719,
150.158,1325.9152,
147.247,1127.0424,
144.337,943.34018,
141.426,754.14078,
138.516,549.10989,
135.605,388.87884,
132.694,266.11113,
129.784,175.06735,
126.873,109.99054,
123.963,75.125335,
121.052,50.534613,
118.141,29.831455,
115.231,28.328859,
112.320,26.902728,
109.410,26.840842,
106.499,32.538084,
103.589,25.906437,
100.678,18.12027,
97.767,13.854644,
94.857,15.135978,
91.946,11.31578,
89.036,5.0886937,
86.125,7.2163095,
83.215,6.6881593,
80.304,6.2288654,
77.393,7.6452052,
74.483,7.75,
71.572,7.75,
68.662,7.1265925,
65.751,0.7685328,
62.840,2.1219139,
59.930,5.5627138,
57.019,4.8576318,
54.109,8.3329651,
51.198,9.8451722,
48.288,7.7273502,
45.377,4.913838,
42.466,4.5744387,
39.556,5.2895257,
36.645,2.4807648,
33.735,4.3462423,
30.824,5.8664521,
27.914,3.0617511,
25.003,5.8631874,
22.092,10.656141,
19.182,16.978829,
16.271,23.97373,
13.361,103.87681,
10.450,264.07577,
7.539,579.71432,
4.629,853.82289,
1.718,934.32507,
-1.192,610.15286,
-4.103,348.16598,
-7.013,143.42541,
-9.924,0.75,
