,PL2886~1,
Wavenumbers [1/cm],Intensity,
3014.167,0.125,
3011.256,-1.3249893,
3008.346,104.21087,
3005.435,137.77871,
3002.525,139.50252,
2999.614,136.55098,
2996.704,134.99201,
2993.793,153.38191,
2990.882,154.33871,
2987.972,149.15527,
2985.061,167.09546,
2982.151,158.34683,
2979.240,161.13924,
2976.329,178.63319,
2973.419,165.70934,
2970.508,179.59165,
2967.598,178.69488,
2964.687,179.19905,
2961.777,182.78306,
2958.866,180.45338,
2955.955,200.02543,
2953.045,212.14291,
2950.134,213.84802,
2947.224,226.27094,
2944.313,207.91133,
2941.403,224.60128,
2938.492,209.71037,
2935.581,210.49066,
2932.671,225.68292,
2929.760,219.40193,
2926.850,228.81147,
2923.939,228.125,
2921.028,222.73083,
2918.118,233.04439,
2915.207,224.0047,
2912.297,226.10384,
2909.386,228.52646,
2906.476,210.58289,
2903.565,236.72279,
2900.654,226.24228,
2897.744,218.03699,
2894.833,216.48573,
2891.923,212.7724,
2889.012,197.33309,
2886.102,184.23177,
2883.191,160.13916,
2880.280,89.598658,
2877.370,-90.240883,
2874.459,-199.95025,
2871.549,-44.623538,
2868.638,152.08986,
2865.727,175.47494,
2862.817,207.68248,
2859.906,215.54379,
2856.996,236.64991,
2854.085,235.52627,
2851.175,225.74546,
2848.264,224.77684,
2845.353,242.3191,
2842.443,248.32987,
2839.532,241.79666,
2836.622,259.82161,
2833.711,251.81416,
2830.801,262.31177,
2827.890,266.16343,
2824.979,248.19901,
2822.069,249.22735,
2819.158,253.9444,
2816.248,261.32,
2813.337,280.19696,
2810.427,268.47073,
2807.516,275.49187,
2804.605,268.67307,
2801.695,264.78291,
2798.784,263.56854,
2795.874,266.69492,
2792.963,280.98245,
2790.052,268.12929,
2787.142,269.28285,
2784.231,271.93089,
2781.321,296.55349,
2778.410,273.95495,
2775.500,272.82741,
2772.589,267.5493,
2769.678,283.80419,
2766.768,271.38518,
2763.857,283.64908,
2760.947,277.20065,
2758.036,276.41792,
2755.126,287.07586,
2752.215,294.31595,
2749.304,284.04048,
2746.394,285.08868,
2743.483,299.42499,
2740.573,303.01217,
2737.662,280.81582,
2734.751,294.89202,
2731.841,289.55723,
2728.930,293.76041,
2726.020,309.55845,
2723.109,293.14575,
2720.199,295.73111,
2717.288,306.33667,
2714.377,326.86206,
2711.467,323.56785,
2708.556,314.16753,
2705.646,307.51935,
2702.735,321.29768,
2699.825,329.08137,
2696.914,324.64863,
2694.003,328.27135,
2691.093,309.26819,
2688.182,325.76204,
2685.272,327.32842,
2682.361,317.33679,
2679.450,311.17029,
2676.540,315.2063,
2673.629,323.10704,
2670.719,325.34404,
2667.808,329.73592,
2664.898,332.60555,
2661.987,334.52507,
2659.076,352.8362,
2656.166,341.06009,
2653.255,337.56888,
2650.345,338.34097,
2647.434,349.43909,
2644.524,343.66937,
2641.613,348.86793,
2638.702,340.28281,
2635.792,352.56269,
2632.881,345.35129,
2629.971,362.06472,
2627.060,357.62469,
2624.149,359.66563,
2621.239,349.35573,
2618.328,353.33694,
2615.418,356.79773,
2612.507,372.12098,
2609.597,365.86951,
2606.686,356.46236,
2603.775,365.16468,
2600.865,359.53795,
2597.954,382.07709,
2595.044,381.45538,
2592.133,366.83822,
2589.223,366.0408,
2586.312,375.7833,
2583.401,377.71625,
2580.491,388.65864,
2577.580,368.13985,
2574.670,384.59691,
2571.759,383.20549,
2568.848,387.52843,
2565.938,380.26778,
2563.027,387.83184,
2560.117,394.83531,
2557.206,402.125,
2554.296,396.8115,
2551.385,401.87702,
2548.474,412.56961,
2545.564,411.28328,
2542.653,409.20889,
2539.743,418.10035,
2536.832,422.39042,
2533.922,417.34577,
2531.011,422.60072,
2528.100,405.98913,
2525.190,414.28729,
2522.279,431.28084,
2519.369,414.42687,
2516.458,427.91183,
2513.548,411.42537,
2510.637,436.67834,
2507.726,438.25509,
2504.816,421.43729,
2501.905,418.50183,
2498.995,440.42359,
2496.084,447.57798,
2493.173,445.38791,
2490.263,439.92274,
2487.352,439.91793,
2484.442,452.99868,
2481.531,441.70477,
2478.621,450.80275,
2475.710,452.11733,
2472.799,452.85144,
2469.889,454.24688,
2466.978,454.45486,
2464.068,458.99803,
2461.157,458.81506,
2458.247,458.50746,
2455.336,465.84906,
2452.425,463.125,
2449.515,467.59694,
2446.604,479.1826,
2443.694,489.84624,
2440.783,488.02815,
2437.872,484.41672,
2434.962,490.02362,
2432.051,500.70555,
2429.141,506.73691,
2426.230,497.45096,
2423.320,507.02514,
2420.409,506.79797,
2417.498,511.33848,
2414.588,520.3873,
2411.677,512.90985,
2408.767,507.88386,
2405.856,509.18691,
2402.946,512.23224,
2400.035,507.83157,
2397.124,513.6758,
2394.214,512.0714,
2391.303,520.41226,
2388.393,514.42033,
2385.482,515.90469,
2382.571,469.75751,
2379.661,496.14802,
2376.750,530.2801,
2373.840,534.41877,
2370.929,541.03836,
2368.019,549.89593,
2365.108,547.59097,
2362.197,551.66752,
2359.287,576.88991,
2356.376,585.11796,
2353.466,572.54968,
2350.555,568.10007,
2347.645,577.63757,
2344.734,589.21718,
2341.823,575.39033,
2338.913,572.88171,
2336.002,571.57472,
2333.092,596.02125,
2330.181,594.03553,
2327.270,578.73006,
2324.360,575.48581,
2321.449,595.18622,
2318.539,596.74275,
2315.628,593.75569,
2312.718,595.42456,
2309.807,605.03778,
2306.896,625.83391,
2303.986,612.73541,
2301.075,621.06115,
2298.165,624.92309,
2295.254,619.25426,
2292.344,615.91337,
2289.433,614.75045,
2286.522,623.12038,
2283.612,647.33547,
2280.701,664.83798,
2277.791,643.76433,
2274.880,638.12094,
2271.969,652.21965,
2269.059,650.42199,
2266.148,661.17508,
2263.238,663.52655,
2260.327,651.84937,
2257.417,673.70167,
2254.506,673.1706,
2251.595,663.13964,
2248.685,649.65193,
2245.774,664.44342,
2242.864,684.80082,
2239.953,677.6216,
2237.043,676.5282,
2234.132,677.66271,
2231.221,679.78397,
2228.311,676.2964,
2225.400,666.91307,
2222.490,698.02411,
2219.579,727.09164,
2216.669,739.17746,
2213.758,719.64525,
2210.847,726.40962,
2207.937,734.88069,
2205.026,741.90255,
2202.116,749.17383,
2199.205,752.53747,
2196.294,741.88503,
2193.384,748.75602,
2190.473,758.55693,
2187.563,774.14917,
2184.652,780.78173,
2181.742,795.73933,
2178.831,807.36624,
2175.920,807.45651,
2173.010,815.65051,
2170.099,862.31996,
2167.189,894.13218,
2164.278,897.91294,
2161.368,927.55195,
2158.457,969.59754,
2155.546,1001.3058,
2152.636,1043.6037,
2149.725,1071.7693,
2146.815,1093.491,
2143.904,1132.1361,
2140.993,1158.4266,
2138.083,1169.2556,
2135.172,1195.5956,
2132.262,1203.5062,
2129.351,1188.0008,
2126.441,1187.426,
2123.530,1156.676,
2120.619,1111.7583,
2117.709,1072.8512,
2114.798,1047.6364,
2111.888,1020.8755,
2108.977,980.60842,
2106.067,959.33311,
2103.156,931.72995,
2100.245,903.13943,
2097.335,922.63286,
2094.424,894.73151,
2091.514,873.89639,
2088.603,844.42917,
2085.692,843.44467,
2082.782,875.39792,
2079.871,878.08883,
2076.961,885.47922,
2074.050,874.73712,
2071.140,868.89497,
2068.229,879.21354,
2065.318,885.9525,
2062.408,867.99567,
2059.497,859.95836,
2056.587,866.15996,
2053.676,877.19087,
2050.766,864.43367,
2047.855,903.98584,
2044.944,869.51441,
2042.034,894.80704,
2039.123,884.80513,
2036.213,894.52726,
2033.302,900.77724,
2030.391,905.49765,
2027.481,914.58837,
2024.570,880.72593,
2021.660,907.99635,
2018.749,899.7071,
2015.839,891.0082,
2012.928,906.11326,
2010.017,915.80035,
2007.107,925.59231,
2004.196,937.05356,
2001.286,923.85293,
1998.375,926.86713,
1995.465,927.19196,
1992.554,927.00146,
1989.643,937.7448,
1986.733,913.3557,
1983.822,938.08733,
1980.912,945.87664,
1978.001,934.01371,
1975.090,971.77232,
1972.180,943.95347,
1969.269,938.08766,
1966.359,936.5844,
1963.448,920.24521,
1960.538,953.26596,
1957.627,959.45008,
1954.716,972.72282,
1951.806,966.46631,
1948.895,991.48736,
1945.985,981.81454,
1943.074,960.00325,
1940.164,966.37521,
1937.253,974.08606,
1934.342,962.125,
1931.432,992.14393,
1928.521,1000.4877,
1925.611,990.24191,
1922.700,978.04489,
1919.790,983.73762,
1916.879,1003.73,
1913.968,1000.1311,
1911.058,985.09799,
1908.147,1024.8666,
1905.237,1013.3015,
1902.326,1016.1043,
1899.415,982.22011,
1896.505,967.384,
1893.594,973.57321,
1890.684,999.03341,
1887.773,1027.8746,
1884.863,1046.5031,
1881.952,1012.4604,
1879.041,1025.6281,
1876.131,1046.5263,
1873.220,1008.1558,
1870.310,1051.3222,
1867.399,1028.5568,
1864.489,1019.1639,
1861.578,1024.8884,
1858.667,1072.4454,
1855.757,1077.1357,
1852.846,1067.6378,
1849.936,1068.4744,
1847.025,1062.2977,
1844.114,1083.9533,
1841.204,1091.125,
1838.293,1093.6208,
1835.383,1079.1835,
1832.472,1084.6954,
1829.562,1119.8443,
1826.651,1132.125,
1823.740,1126.3012,
1820.830,1127.9833,
1817.919,1142.155,
1815.009,1113.4443,
1812.098,1109.0226,
1809.188,1111.9389,
1806.277,1124.8373,
1803.366,1139.2248,
1800.456,1144.6853,
1797.545,1133.7138,
1794.635,1106.5751,
1791.724,1150.9502,
1788.813,1147.315,
1785.903,1119.8769,
1782.992,1123.5408,
1780.082,1072.1076,
1777.171,973.44029,
1774.261,914.88518,
1771.350,1004.1303,
1768.439,1122.2321,
1765.529,1163.2223,
1762.618,1211.3719,
1759.708,1217.5924,
1756.797,1211.2841,
1753.887,1222.3568,
1750.976,1214.0766,
1748.065,1219.7871,
1745.155,1236.5959,
1742.244,1249.7192,
1739.334,1251.0168,
1736.423,1258.31,
1733.512,1267.2185,
1730.602,1284.8334,
1727.691,1273.2365,
1724.781,1305.0941,
1721.870,1298.2249,
1718.960,1290.0138,
1716.049,1340.3025,
1713.138,1323.6201,
1710.228,1330.4389,
1707.317,1315.3181,
1704.407,1349.0609,
1701.496,1330.3363,
1698.586,1353.0726,
1695.675,1356.0607,
1692.764,1378.8463,
1689.854,1423.1762,
1686.943,1407.7321,
1684.033,1441.2557,
1681.122,1443.108,
1678.211,1474.8204,
1675.301,1463.162,
1672.390,1485.2506,
1669.480,1527.1571,
1666.569,1532.1915,
1663.659,1615.5496,
1660.748,1640.8936,
1657.837,1629.4093,
1654.927,1642.3593,
1652.016,1653.2671,
1649.106,1698.6599,
1646.195,1680.6525,
1643.285,1703.4922,
1640.374,1761.6233,
1637.463,1739.2959,
1634.553,1803.3467,
1631.642,1818.4833,
1628.732,1851.4627,
1625.821,1908.1865,
1622.911,2001.5953,
1620.000,2073.2179,
1617.089,2210.3588,
1614.179,2309.3331,
1611.268,2424.7752,
1608.358,2526.349,
1605.447,2602.7827,
1602.536,2634.1497,
1599.626,2640.7247,
1596.715,2618.435,
1593.805,2597.344,
1590.894,2581.9149,
1587.984,2542.0169,
1585.073,2527.6168,
1582.162,2528.6297,
1579.252,2488.2099,
1576.341,2450.2867,
1573.431,2428.2447,
1570.520,2395.843,
1567.610,2417.6745,
1564.699,2374.4728,
1561.788,2368.2094,
1558.878,2369.3457,
1555.967,2344.0017,
1553.057,2322.5561,
1550.146,2264.2742,
1547.235,2213.4152,
1544.325,2218.091,
1541.414,2233.8253,
1538.504,2203.7554,
1535.593,2171.1773,
1532.683,2172.3408,
1529.772,2152.8379,
1526.861,2097.1806,
1523.951,2054.5342,
1521.040,2074.2435,
1518.130,2118.2847,
1515.219,2094.3648,
1512.309,2089.2241,
1509.398,2051.184,
1506.487,2039.6443,
1503.577,2068.978,
1500.666,2063.5361,
1497.756,2025.4468,
1494.845,2005.3251,
1491.934,2010.2195,
1489.024,2039.0943,
1486.113,2024.3623,
1483.203,1995.5918,
1480.292,1987.0339,
1477.382,1996.6322,
1474.471,1997.5902,
1471.560,1977.532,
1468.650,1965.3421,
1465.739,1927.2576,
1462.829,1908.3186,
1459.918,1935.0921,
1457.008,1937.3401,
1454.097,1920.9736,
1451.186,1926.8677,
1448.276,1948.3596,
1445.365,1971.9457,
1442.455,1971.5979,
1439.544,1994.798,
1436.633,2000.271,
1433.723,2022.1039,
1430.812,2062.7024,
1427.902,1957.0574,
1424.991,1954.2141,
1422.081,1977.0619,
1419.170,2023.1921,
1416.259,1988.0017,
1413.349,1981.146,
1410.438,2023.412,
1407.528,2025.6752,
1404.617,2003.0339,
1401.707,2035.5202,
1398.796,2074.5411,
1395.885,2061.243,
1392.975,2059.9592,
1390.064,2090.2388,
1387.154,2076.826,
1384.243,2083.6086,
1381.332,2102.469,
1378.422,2082.7674,
1375.511,2114.6179,
1372.601,2228.4782,
1369.690,2166.9755,
1366.780,2262.0497,
1363.869,2236.3657,
1360.958,2295.351,
1358.048,2388.9298,
1355.137,2424.5993,
1352.227,2413.1445,
1349.316,2416.067,
1346.406,2442.0829,
1343.495,2454.8376,
1340.584,2490.1605,
1337.674,2506.6978,
1334.763,2528.8307,
1331.853,2547.3753,
1328.942,2523.22,
1326.032,2501.3657,
1323.121,2495.6431,
1320.210,2542.4054,
1317.300,2534.2525,
1314.389,2533.7088,
1311.479,2561.1152,
1308.568,2597.7827,
1305.657,2640.9439,
1302.747,2624.3162,
1299.836,2622.1078,
1296.926,2633.8252,
1294.015,2734.9508,
1291.105,2786.6743,
1288.194,2822.6785,
1285.283,2903.1573,
1282.373,2973.8905,
1279.462,2980.5567,
1276.552,2978.2038,
1273.641,3011.8645,
1270.731,3027.3653,
1267.820,2980.8928,
1264.909,2965.8292,
1261.999,3028.426,
1259.088,3009.2714,
1256.178,3043.2397,
1253.267,2973.9398,
1250.356,2940.9662,
1247.446,2867.4779,
1244.535,2826.558,
1241.625,2815.5547,
1238.714,2759.4797,
1235.804,2693.2852,
1232.893,2678.8816,
1229.982,2647.8984,
1227.072,2611.686,
1224.161,2590.6339,
1221.251,2548.4105,
1218.340,2494.3128,
1215.430,2465.5186,
1212.519,2446.5422,
1209.608,2416.3044,
1206.698,2394.9549,
1203.787,2407.6828,
1200.877,2420.2483,
1197.966,2486.7861,
1195.055,2540.4667,
1192.145,2597.211,
1189.234,2644.267,
1186.324,2702.5835,
1183.413,2707.0945,
1180.503,2666.7642,
1177.592,2658.4077,
1174.681,2638.3956,
1171.771,2584.1565,
1168.860,2542.1813,
1165.950,2530.8684,
1163.039,2490.0144,
1160.129,2492.0004,
1157.218,2478.6845,
1154.307,2469.0473,
1151.397,2483.9202,
1148.486,2431.5284,
1145.576,2412.0501,
1142.665,2433.3601,
1139.754,2393.6299,
1136.844,2413.5377,
1133.933,2408.5298,
1131.023,2392.8203,
1128.112,2379.8406,
1125.202,2365.0574,
1122.291,2371.501,
1119.380,2374.3415,
1116.470,2396.4047,
1113.559,2399.125,
1110.649,2418.1155,
1107.738,2425.4459,
1104.828,2415.2191,
1101.917,2402.3498,
1099.006,2405.1351,
1096.096,2437.1574,
1093.185,2421.3534,
1090.275,2415.2694,
1087.364,2419.614,
1084.453,2394.5643,
1081.543,2392.8449,
1078.632,2405.9026,
1075.722,2400.1878,
1072.811,2488.0224,
1069.901,2444.3593,
1066.990,2457.2916,
1064.079,2448.1952,
1061.169,2465.3217,
1058.258,2482.4311,
1055.348,2505.4054,
1052.437,2559.7295,
1049.527,2526.9236,
1046.616,2521.7106,
1043.705,2551.9556,
1040.795,2600.0738,
1037.884,2604.9299,
1034.974,2582.9111,
1032.063,2586.0477,
1029.153,2616.3353,
1026.242,2551.4636,
1023.331,2607.4546,
1020.421,2624.0047,
1017.510,2643.4936,
1014.600,2666.4295,
1011.689,2668.8625,
1008.778,2641.5123,
1005.868,2632.542,
1002.957,2679.0011,
1000.047,2765.477,
997.136,2879.1126,
994.226,2954.6324,
991.315,2956.5532,
988.404,2910.8824,
985.494,2893.7798,
982.583,2878.3617,
979.673,2854.1756,
976.762,2836.1443,
973.852,2845.0374,
970.941,2871.349,
968.030,2886.4256,
965.120,2887.8493,
962.209,2822.2036,
959.299,2852.2035,
956.388,2885.364,
953.477,2886.2052,
950.567,2872.2621,
947.656,2883.1304,
944.746,2898.4224,
941.835,2908.0329,
938.925,2921.9699,
936.014,2912.9502,
933.103,2908.0116,
930.193,2914.7389,
927.282,2867.9793,
924.372,2846.8391,
921.461,2832.3426,
918.551,2802.5639,
915.640,2767.9771,
912.729,2742.9047,
909.819,2739.1292,
906.908,2777.0383,
903.998,2775.1482,
901.087,2804.0408,
898.176,2810.6267,
895.266,2812.4558,
892.355,2843.4809,
889.445,2856.0699,
886.534,2889.5199,
883.624,2874.5944,
880.713,2889.1324,
877.802,2901.6611,
874.892,2853.2834,
871.981,2730.8699,
869.071,2593.0268,
866.160,2629.8414,
863.250,2757.2477,
860.339,2871.3933,
857.428,2918.099,
854.518,2936.9585,
851.607,2862.0723,
848.697,2734.2595,
845.786,2667.075,
842.875,2703.46,
839.965,2820.8344,
837.054,2929.339,
834.144,2948.4003,
831.233,2939.4592,
828.323,2940.049,
825.412,2942.9395,
822.501,2927.4227,
819.591,2890.2347,
816.680,2837.8429,
813.770,2828.2575,
810.859,2811.6241,
807.949,2798.4958,
805.038,2825.5144,
802.127,2845.2694,
799.217,2817.3094,
796.306,2790.6654,
793.396,2777.7357,
790.485,2773.9663,
787.574,2764.398,
784.664,2824.2662,
781.753,2854.5835,
778.843,2860.6944,
775.932,2859.5941,
773.022,2864.2374,
770.111,2858.5144,
767.200,2861.1702,
764.290,2849.9896,
761.379,2855.3042,
758.469,2864.7783,
755.558,2818.3195,
752.648,2824.8363,
749.737,2806.5413,
746.826,2807.7805,
743.916,2837.32,
741.005,2870.1379,
738.095,2790.574,
735.184,2758.2431,
732.274,2709.6827,
729.363,2669.754,
726.452,2685.6828,
723.542,2821.6609,
720.631,2825.3023,
717.721,2838.4461,
714.810,2846.8409,
711.899,2846.323,
708.989,2860.0408,
706.078,2861.7276,
703.168,2853.0167,
700.257,2845.8873,
697.347,2832.8218,
694.436,2793.478,
691.525,2843.3139,
688.615,2825.824,
685.704,2816.4638,
682.794,2826.8271,
679.883,2831.1795,
676.973,2876.8576,
674.062,2858.0494,
671.151,2844.3167,
668.241,2846.8868,
665.330,2848.0158,
662.420,2887.9524,
659.509,2864.3784,
656.598,2865.166,
653.688,2886.4443,
650.777,2873.612,
647.867,2858.4817,
644.956,2824.7866,
642.046,2784.5659,
639.135,2754.9634,
636.224,2758.304,
633.314,2794.0313,
630.403,2874.0703,
627.493,2931.1906,
624.582,2943.5953,
621.672,2941.2193,
618.761,2916.047,
615.850,2961.0198,
612.940,3002.0758,
610.029,3013.7762,
607.119,3107.7422,
604.208,3048.2537,
601.297,3030.0954,
598.387,3056.1764,
595.476,3094.0452,
592.566,3072.0073,
589.655,3031.1953,
586.745,3019.8044,
583.834,3027.8312,
580.923,3015.9781,
578.013,2991.6513,
575.102,3005.7742,
572.192,3016.4803,
569.281,3004.61,
566.371,2985.0444,
563.460,3004.289,
560.549,3017.5105,
557.639,3024.2735,
554.728,3027.6122,
551.818,2987.816,
548.907,3015.0804,
545.996,3031.1268,
543.086,3025.8289,
540.175,3052.3029,
537.265,3088.8904,
534.354,3093.0946,
531.444,3076.3226,
528.533,3058.553,
525.622,3092.6947,
522.712,3104.979,
519.801,3097.0505,
516.891,3089.9238,
513.980,3143.3503,
511.070,3197.4293,
508.159,3227.6763,
505.248,3246.1366,
502.338,3273.2201,
499.427,3378.9611,
496.517,3380.5392,
493.606,3356.4236,
490.695,3355.6511,
487.785,3402.6083,
484.874,3414.0023,
481.964,3410.7264,
479.053,3386.5778,
476.143,3317.4611,
473.232,3364.9221,
470.321,3364.6888,
467.411,3344.3913,
464.500,3348.028,
461.590,3344.1993,
458.679,3364.5865,
455.769,3396.933,
452.858,3429.5227,
449.947,3433.3423,
447.037,3432.3047,
444.126,3448.8704,
441.216,3476.4792,
438.305,3461.2406,
435.395,3461.0919,
432.484,3485.0464,
429.573,3500.7948,
426.663,3430.8619,
423.752,3263.3238,
420.842,3043.332,
417.931,2864.0477,
415.020,2860.2559,
412.110,3171.7922,
409.199,3388.8144,
406.289,3486.0398,
403.378,3455.0712,
400.468,3439.1953,
397.557,3427.9552,
394.646,3470.3379,
391.736,3601.8493,
388.825,3624.4763,
385.915,3617.288,
383.004,3613.4058,
380.094,3634.1634,
377.183,3634.9159,
374.272,3647.6089,
371.362,3686.0861,
368.451,3754.4927,
365.541,3777.0088,
362.630,3787.4949,
359.719,3786.3895,
356.809,3778.2966,
353.898,3830.7125,
350.988,3819.0856,
348.077,3789.8648,
345.167,3772.7683,
342.256,3785.4685,
339.345,3783.8107,
336.435,3770.5196,
333.524,3750.0275,
330.614,3810.3851,
327.703,3802.9413,
324.793,3774.5159,
321.882,3764.1809,
318.971,3787.2276,
316.061,3810.7511,
313.150,3827.125,
310.240,3827.125,
307.329,3862.1422,
304.418,3885.7,
301.508,3894.565,
298.597,3884.9396,
295.687,3902.4105,
292.776,3940.2918,
289.866,3997.7839,
286.955,4076.8275,
284.044,4126.075,
281.134,4149.2359,
278.223,4163.6276,
275.313,4249.1028,
272.402,4313.5973,
269.492,4306.8847,
266.581,4225.3275,
263.670,4298.1104,
260.760,4326.4384,
257.849,4379.3179,
254.939,4511.4168,
252.028,4450.1505,
249.117,4427.9523,
246.207,4454.7484,
243.296,4549.9132,
240.386,4565.3489,
237.475,4558.5203,
234.565,4541.3995,
231.654,4530.4437,
228.743,4532.7279,
225.833,4526.0634,
222.922,4502.2077,
220.012,4482.5367,
217.101,4471.7086,
214.191,4477.3973,
211.280,4511.5881,
208.369,4447.5165,
205.459,4470.6208,
202.548,4549.3617,
199.638,4521.7871,
196.727,4543.7834,
193.816,4552.0841,
190.906,4526.1566,
187.995,4584.0786,
185.085,4609.7993,
182.174,4604.372,
179.264,4561.006,
176.353,4593.931,
173.442,4591.1962,
170.532,4538.3721,
167.621,4446.0872,
164.711,4333.8808,
161.800,4158.5395,
158.890,3875.6866,
155.979,3586.1861,
153.068,3272.6587,
150.158,2929.4553,
147.247,2531.7098,
144.337,2101.8497,
141.426,1659.8888,
138.516,1213.2656,
135.605,856.27762,
132.694,589.49004,
129.784,394.02114,
126.873,239.55309,
123.963,168.29009,
121.052,122.54409,
118.141,83.279483,
115.231,68.203023,
112.320,60.00682,
109.410,53.716119,
106.499,35.912238,
103.589,31.564746,
100.678,30.310135,
97.767,28.177322,
94.857,28.125,
91.946,22.481448,
89.036,14.802387,
86.125,19.057619,
83.215,18.001319,
80.304,15.406702,
77.393,13.282192,
74.483,17.710945,
71.572,17.588535,
68.662,13.194267,
65.751,13.900719,
62.840,16.53351,
59.930,17.439424,
57.019,11.093686,
54.109,10.125,
51.198,9.5217814,
48.288,8.1533122,
45.377,11.670203,
42.466,12.712781,
39.556,10.973814,
36.645,3.9519121,
33.735,5.7597393,
30.824,8.0205651,
27.914,4.5146889,
25.003,8.4834623,
22.092,11.447905,
19.182,12.811486,
16.271,33.79619,
13.361,156.34011,
10.450,355.55198,
7.539,602.05731,
4.629,496.77041,
1.718,175.41022,
-1.192,-355.11678,
-4.103,-422.26733,
-7.013,-294.79365,
-9.924,-3.875,
