,PL6C8D~1,
Wavenumbers [1/cm],Intensity,
3014.167,4.875,
3011.256,-2.3749463,
3008.346,58.706328,
3005.435,81.030479,
3002.525,76.19491,
2999.614,85.023037,
2996.704,81.326544,
2993.793,103.26498,
2990.882,103.73753,
2987.972,106.88509,
2985.061,115.96861,
2982.151,116.94894,
2979.240,132.70961,
2976.329,134.89138,
2973.419,119.72096,
2970.508,131.57498,
2967.598,140.3493,
2964.687,128.91984,
2961.777,126.96901,
2958.866,130.53028,
2955.955,154.22233,
2953.045,150.81014,
2950.134,154.17236,
2947.224,158.01734,
2944.313,169.16702,
2941.403,177.74407,
2938.492,176.15142,
2935.581,154.97197,
2932.671,174.66894,
2929.760,167.39811,
2926.850,171.76335,
2923.939,180.99651,
2921.028,190.51632,
2918.118,181.35359,
2915.207,172.22946,
2912.297,190.80307,
2909.386,184.8823,
2906.476,191.09971,
2903.565,179.05054,
2900.654,198.86389,
2897.744,181.77442,
2894.833,168.10191,
2891.923,183.39111,
2889.012,156.37211,
2886.102,144.73313,
2883.191,119.88538,
2880.280,75.870177,
2877.370,-44.723707,
2874.459,-101.13741,
2871.549,4.9549125,
2868.638,143.15535,
2865.727,155.27877,
2862.817,185.60361,
2859.906,199.21688,
2856.996,194.40897,
2854.085,185.11449,
2851.175,194.54364,
2848.264,211.29666,
2845.353,204.55149,
2842.443,199.85759,
2839.532,202.45717,
2836.622,198.29623,
2833.711,190.71174,
2830.801,202.27059,
2827.890,203.5201,
2824.979,205.65296,
2822.069,202.05695,
2819.158,215.97473,
2816.248,208.39237,
2813.337,226.37989,
2810.427,213.08849,
2807.516,220.71672,
2804.605,215.44471,
2801.695,221.19081,
2798.784,216.90992,
2795.874,218.29451,
2792.963,225.58926,
2790.052,215.87693,
2787.142,213.58554,
2784.231,216.29425,
2781.321,224.5607,
2778.410,219.04505,
2775.500,226.29948,
2772.589,217.75956,
2769.678,221.05245,
2766.768,215.32353,
2763.857,225.76903,
2760.947,222.89391,
2758.036,230.95783,
2755.126,204.81945,
2752.215,224.27953,
2749.304,239.44872,
2746.394,236.08669,
2743.483,243.47497,
2740.573,246.21348,
2737.662,221.76849,
2734.751,234.36515,
2731.841,235.63141,
2728.930,247.26073,
2726.020,223.42593,
2723.109,232.28717,
2720.199,253.50318,
2717.288,243.24361,
2714.377,225.32942,
2711.467,236.85852,
2708.556,245.56637,
2705.646,249.02993,
2702.735,247.71779,
2699.825,243.66949,
2696.914,260.63777,
2694.003,236.64573,
2691.093,236.51761,
2688.182,235.98463,
2685.272,237.86646,
2682.361,256.53985,
2679.450,254.82971,
2676.540,233.3831,
2673.629,255.22031,
2670.719,254.37131,
2667.808,256.875,
2664.898,262.45963,
2661.987,254.9751,
2659.076,264.11207,
2656.166,259.81009,
2653.255,251.98724,
2650.345,272.39587,
2647.434,272.875,
2644.524,272.10281,
2641.613,258.53182,
2638.702,270.59094,
2635.792,281.09533,
2632.881,265.41077,
2629.971,282.06975,
2627.060,268.03969,
2624.149,275.60626,
2621.239,273.38982,
2618.328,277.38365,
2615.418,283.89772,
2612.507,274.49555,
2609.597,282.14047,
2606.686,278.73242,
2603.775,282.83929,
2600.865,291.52345,
2597.954,284.16248,
2595.044,291.52691,
2592.133,301.60118,
2589.223,288.93498,
2586.312,296.09608,
2583.401,295.20343,
2580.491,286.68268,
2577.580,302.86015,
2574.670,292.49131,
2571.759,291.07705,
2568.848,283.8197,
2565.938,297.54162,
2563.027,299.11821,
2560.117,304.85634,
2557.206,301.12223,
2554.296,308.21825,
2551.385,306.80897,
2548.474,307.09731,
2545.564,311.78003,
2542.653,305.875,
2539.743,303.40581,
2536.832,312.20211,
2533.922,299.20615,
2531.011,317.67519,
2528.100,309.20949,
2525.190,310.03729,
2522.279,308.81296,
2519.369,318.81894,
2516.458,311.21777,
2513.548,308.12065,
2510.637,302.92021,
2507.726,321.99768,
2504.816,326.06215,
2501.905,304.39695,
2498.995,325.57641,
2496.084,324.55446,
2493.173,334.53295,
2490.263,326.3021,
2487.352,340.7498,
2484.442,339.58377,
2481.531,350.72068,
2478.621,351.50057,
2475.710,341.98235,
2472.799,350.20242,
2469.889,328.02735,
2466.978,329.36978,
2464.068,346.24013,
2461.157,345.875,
2458.247,349.2868,
2455.336,348.59906,
2452.425,352.11557,
2449.515,368.875,
2446.604,363.58702,
2443.694,353.29358,
2440.783,369.87838,
2437.872,359.875,
2434.962,362.7644,
2432.051,366.48603,
2429.141,355.4692,
2426.230,365.96232,
2423.320,381.30377,
2420.409,371.74041,
2417.498,365.68679,
2414.588,368.59741,
2411.677,371.48056,
2408.767,364.66929,
2405.856,381.0345,
2402.946,393.03586,
2400.035,378.79283,
2397.124,395.54879,
2394.214,390.81861,
2391.303,377.91362,
2388.393,371.43776,
2385.482,368.78688,
2382.571,356.05234,
2379.661,367.87471,
2376.750,385.03516,
2373.840,393.56243,
2370.929,404.79919,
2368.019,419.86394,
2365.108,408.36191,
2362.197,415.70785,
2359.287,427.63991,
2356.376,420.89437,
2353.466,416.58915,
2350.555,399.51545,
2347.645,411.17832,
2344.734,427.93957,
2341.823,416.1735,
2338.913,421.92126,
2336.002,414.72905,
2333.092,421.25425,
2330.181,417.83921,
2327.270,445.16984,
2324.360,438.85851,
2321.449,425.875,
2318.539,428.42852,
2315.628,427.38779,
2312.718,439.12391,
2309.807,433.24127,
2306.896,452.12696,
2303.986,460.27117,
2301.075,458.76866,
2298.165,440.70171,
2295.254,436.89654,
2292.344,464.5099,
2289.433,447.50818,
2286.522,438.36161,
2283.612,448.22578,
2280.701,461.52969,
2277.791,464.31582,
2274.880,476.37297,
2271.969,479.94084,
2269.059,471.84775,
2266.148,468.60455,
2263.238,488.66649,
2260.327,481.94397,
2257.417,483.82389,
2254.506,488.8978,
2251.595,485.02413,
2248.685,468.09043,
2245.774,481.89667,
2242.864,476.1069,
2239.953,490.68885,
2237.043,484.16107,
2234.132,501.88794,
2231.221,509.4538,
2228.311,498.43687,
2225.400,492.86009,
2222.490,523.16156,
2219.579,505.84929,
2216.669,515.81777,
2213.758,518.09067,
2210.847,513.68104,
2207.937,542.65346,
2205.026,520.98637,
2202.116,518.59474,
2199.205,534.7623,
2196.294,547.86697,
2193.384,557.717,
2190.473,554.58509,
2187.563,557.05384,
2184.652,592.36888,
2181.742,576.48772,
2178.831,582.1786,
2175.920,609.54349,
2173.010,650.65334,
2170.099,641.74453,
2167.189,686.94676,
2164.278,700.98354,
2161.368,743.1585,
2158.457,796.50029,
2155.546,809.67789,
2152.636,849.50256,
2149.725,890.00921,
2146.815,909.37447,
2143.904,942.17611,
2140.993,951.39344,
2138.083,977.25188,
2135.172,981.40439,
2132.262,983.50792,
2129.351,977.81288,
2126.441,934.2341,
2123.530,923.97708,
2120.619,847.21435,
2117.709,853.17331,
2114.798,802.45932,
2111.888,750.62545,
2108.977,716.08028,
2106.067,677.60691,
2103.156,662.83632,
2100.245,660.85681,
2097.335,632.11584,
2094.424,627.65191,
2091.514,597.86416,
2088.603,589.8427,
2085.692,610.33219,
2082.782,595.67031,
2079.871,609.05469,
2076.961,606.39162,
2074.050,587.74773,
2071.140,601.33505,
2068.229,579.06511,
2065.318,576.53001,
2062.408,577.54899,
2059.497,593.5298,
2056.587,587.75911,
2053.676,582.7747,
2050.766,567.26065,
2047.855,562.27694,
2044.944,542.27404,
2042.034,543.45302,
2039.123,556.5585,
2036.213,578.49272,
2033.302,566.13582,
2030.391,571.4512,
2027.481,567.66773,
2024.570,568.4035,
2021.660,579.22458,
2018.749,580.36888,
2015.839,586.68733,
2012.928,547.79446,
2010.017,560.93907,
2007.107,573.50115,
2004.196,568.01788,
2001.286,578.70891,
1998.375,567.2618,
1995.465,564.02143,
1992.554,550.85159,
1989.643,540.18607,
1986.733,538.51711,
1983.822,550.29819,
1980.912,543.76535,
1978.001,522.59486,
1975.090,541.88263,
1972.180,540.32314,
1969.269,552.06469,
1966.359,551.44246,
1963.448,568.79046,
1960.538,545.22612,
1957.627,550.35798,
1954.716,539.24845,
1951.806,587.08659,
1948.895,549.94185,
1945.985,534.36847,
1943.074,540.09659,
1940.164,508.09611,
1937.253,519.9399,
1934.342,541.89211,
1931.432,528.86553,
1928.521,512.67984,
1925.611,497.62188,
1922.700,512.66091,
1919.790,518.73626,
1916.879,532.82876,
1913.968,512.90082,
1911.058,528.94107,
1908.147,527.74943,
1905.237,511.69116,
1902.326,496.80983,
1899.415,479.54695,
1896.505,463.9953,
1893.594,447.68905,
1890.684,476.01212,
1887.773,520.28815,
1884.863,524.84311,
1881.952,507.1101,
1879.041,523.30024,
1876.131,505.44364,
1873.220,469.36603,
1870.310,529.85246,
1867.399,560.45917,
1864.489,548.39515,
1861.578,512.0618,
1858.667,512.99477,
1855.757,512.05996,
1852.846,523.59809,
1849.936,514.22334,
1847.025,541.57571,
1844.114,548.37847,
1841.204,534.24912,
1838.293,556.85837,
1835.383,560.86351,
1832.472,560.61935,
1829.562,558.76458,
1826.651,542.88323,
1823.740,563.80992,
1820.830,552.26851,
1817.919,559.7194,
1815.009,550.88772,
1812.098,547.07973,
1809.188,593.77412,
1806.277,550.9152,
1803.366,558.19109,
1800.456,576.21551,
1797.545,563.95306,
1794.635,555.77801,
1791.724,558.40903,
1788.813,555.09326,
1785.903,603.4332,
1782.992,566.75426,
1780.082,508.1336,
1777.171,436.87875,
1774.261,441.74982,
1771.350,483.25877,
1768.439,569.59823,
1765.529,566.96574,
1762.618,582.30128,
1759.708,617.75561,
1756.797,609.05682,
1753.887,622.97995,
1750.976,629.0576,
1748.065,640.91032,
1745.155,617.63657,
1742.244,603.48278,
1739.334,606.50559,
1736.423,610.82079,
1733.512,625.9726,
1730.602,605.44242,
1727.691,606.08693,
1724.781,658.42932,
1721.870,627.61284,
1718.960,647.29759,
1716.049,644.64628,
1713.138,659.97492,
1710.228,668.09678,
1707.317,684.79729,
1704.407,639.25995,
1701.496,661.22143,
1698.586,670.34289,
1695.675,687.71776,
1692.764,727.69059,
1689.854,716.48129,
1686.943,684.95422,
1684.033,717.03057,
1681.122,717.875,
1678.211,702.02728,
1675.301,685.92433,
1672.390,758.85706,
1669.480,752.91511,
1666.569,758.09083,
1663.659,775.85494,
1660.748,834.81715,
1657.837,832.11557,
1654.927,843.90588,
1652.016,886.12173,
1649.106,855.60571,
1646.195,844.3715,
1643.285,825.17383,
1640.374,882.3175,
1637.463,950.32536,
1634.553,975.02278,
1631.642,985.6242,
1628.732,1054.0172,
1625.821,1077.9182,
1622.911,1143.5031,
1620.000,1216.9427,
1617.089,1308.0441,
1614.179,1380.8163,
1611.268,1516.7073,
1608.358,1597.176,
1605.447,1624.4466,
1602.536,1631.4663,
1599.626,1656.7132,
1596.715,1704.2551,
1593.805,1642.6944,
1590.894,1589.9608,
1587.984,1577.8124,
1585.073,1629.6256,
1582.162,1536.184,
1579.252,1515.0567,
1576.341,1510.8697,
1573.431,1502.8264,
1570.520,1532.9788,
1567.610,1486.2467,
1564.699,1474.1253,
1561.788,1421.9459,
1558.878,1417.3096,
1555.967,1380.9498,
1553.057,1375.099,
1550.146,1354.7623,
1547.235,1328.2008,
1544.325,1314.392,
1541.414,1291.1332,
1538.504,1279.9578,
1535.593,1262.4246,
1532.683,1244.0908,
1529.772,1235.8002,
1526.861,1183.6654,
1523.951,1148.1383,
1521.040,1152.1545,
1518.130,1098.6939,
1515.219,1095.8349,
1512.309,1113.7579,
1509.398,1148.7933,
1506.487,1130.4342,
1503.577,1109.2908,
1500.666,1074.8604,
1497.756,1059.7904,
1494.845,1071.0351,
1491.934,1074.7868,
1489.024,1047.837,
1486.113,1007.9319,
1483.203,984.44714,
1480.292,974.2384,
1477.382,965.60077,
1474.471,989.19851,
1471.560,960.59169,
1468.650,918.86078,
1465.739,914.20137,
1462.829,902.16411,
1459.918,908.55471,
1457.008,906.62864,
1454.097,897.80737,
1451.186,912.94463,
1448.276,925.82675,
1445.365,917.05115,
1442.455,905.36746,
1439.544,926.74865,
1436.633,837.60291,
1433.723,831.85991,
1430.812,862.36816,
1427.902,807.36328,
1424.991,869.9156,
1422.081,824.16619,
1419.170,785.31259,
1416.259,813.08759,
1413.349,844.28747,
1410.438,787.49527,
1407.528,836.48026,
1404.617,839.53741,
1401.707,803.39595,
1398.796,802.48337,
1395.885,790.85909,
1392.975,784.06334,
1390.064,809.69125,
1387.154,796.19366,
1384.243,833.8394,
1381.332,806.42432,
1378.422,819.21314,
1375.511,825.7706,
1372.601,890.38492,
1369.690,882.15944,
1366.780,925.021,
1363.869,931.06318,
1360.958,959.90517,
1358.048,1039.9527,
1355.137,1071.7843,
1352.227,1081.9209,
1349.316,1101.8202,
1346.406,1112.3951,
1343.495,1172.0545,
1340.584,1235.9105,
1337.674,1253.8414,
1334.763,1287.5101,
1331.853,1304.2003,
1328.942,1331.5589,
1326.032,1345.4781,
1323.121,1370.1039,
1320.210,1381.8705,
1317.300,1409.255,
1314.389,1435.6113,
1311.479,1469.6515,
1308.568,1524.4265,
1305.657,1561.4702,
1302.747,1559.6947,
1299.836,1580.0201,
1296.926,1678.9598,
1294.015,1788.3593,
1291.105,1784.0696,
1288.194,1861.9506,
1285.283,1912.6631,
1282.373,1938.7968,
1279.462,1980.9136,
1276.552,2027.4578,
1273.641,2077.3455,
1270.731,2119.1705,
1267.820,2098.1113,
1264.909,2060.3914,
1261.999,2055.4103,
1259.088,2015.277,
1256.178,2040.2816,
1253.267,2019.5575,
1250.356,1933.9908,
1247.446,1881.6201,
1244.535,1828.259,
1241.625,1758.6343,
1238.714,1722.9886,
1235.804,1704.5354,
1232.893,1611.6285,
1229.982,1594.9244,
1227.072,1566.8597,
1224.161,1567.3965,
1221.251,1538.0946,
1218.340,1516.8622,
1215.430,1486.1009,
1212.519,1472.2136,
1209.608,1474.5594,
1206.698,1471.7688,
1203.787,1486.5785,
1200.877,1460.1038,
1197.966,1496.0702,
1195.055,1530.2984,
1192.145,1573.4422,
1189.234,1650.1054,
1186.324,1703.4222,
1183.413,1694.144,
1180.503,1678.0515,
1177.592,1691.8444,
1174.681,1635.8339,
1171.771,1614.3187,
1168.860,1590.2052,
1165.950,1567.7178,
1163.039,1586.6207,
1160.129,1611.0315,
1157.218,1609.3373,
1154.307,1593.1647,
1151.397,1571.7556,
1148.486,1527.6761,
1145.576,1521.1834,
1142.665,1528.2867,
1139.754,1535.384,
1136.844,1512.3644,
1133.933,1487.7989,
1131.023,1480.7076,
1128.112,1476.3761,
1125.202,1458.5272,
1122.291,1447.2564,
1119.380,1464.1955,
1116.470,1496.849,
1113.559,1493.1425,
1110.649,1507.901,
1107.738,1527.5914,
1104.828,1518.9827,
1101.917,1492.0998,
1099.006,1496.2872,
1096.096,1534.3699,
1093.185,1509.7858,
1090.275,1500.5916,
1087.364,1463.1966,
1084.453,1487.3724,
1081.543,1529.3923,
1078.632,1537.8607,
1075.722,1523.4899,
1072.811,1508.5647,
1069.901,1504.1984,
1066.990,1512.7666,
1064.079,1542.0956,
1061.169,1569.2348,
1058.258,1589.7682,
1055.348,1605.6965,
1052.437,1612.0872,
1049.527,1599.3855,
1046.616,1638.4828,
1043.705,1635.1673,
1040.795,1631.598,
1037.884,1640.484,
1034.974,1662.5374,
1032.063,1691.267,
1029.153,1712.1746,
1026.242,1689.6857,
1023.331,1699.7076,
1020.421,1683.0533,
1017.510,1718.0162,
1014.600,1753.1438,
1011.689,1743.1871,
1008.778,1721.9386,
1005.868,1768.9522,
1002.957,1777.5558,
1000.047,1821.827,
997.136,1887.7977,
994.226,1946.9669,
991.315,1974.4394,
988.404,1963.6868,
985.494,1936.6065,
982.583,1924.6147,
979.673,1922.875,
976.762,1926.9847,
973.852,1935.6211,
970.941,1938.7257,
968.030,1930.8288,
965.120,1941.9824,
962.209,1967.5587,
959.299,1968.3338,
956.388,1965.1951,
953.477,1971.2735,
950.567,1980.8293,
947.656,1979.1005,
944.746,1988.4456,
941.835,1984.8259,
938.925,1978.6106,
936.014,1991.0498,
933.103,1985.7486,
930.193,1947.4767,
927.282,1940.8209,
924.372,1921.372,
921.461,1892.3646,
918.551,1864.8661,
915.640,1852.7249,
912.729,1833.4799,
909.819,1781.8784,
906.908,1812.2057,
903.998,1798.7631,
901.087,1824.7908,
898.176,1851.4189,
895.266,1877.7449,
892.355,1904.8073,
889.445,1867.0403,
886.534,1918.6371,
883.624,1955.7883,
880.713,1954.0747,
877.802,1919.7263,
874.892,1873.6019,
871.981,1832.594,
869.071,1651.3094,
866.160,1692.3208,
863.250,1793.0214,
860.339,1889.5985,
857.428,1949.0054,
854.518,1935.0696,
851.607,1872.6644,
848.697,1817.8547,
845.786,1736.637,
842.875,1707.1398,
839.965,1771.3463,
837.054,1833.2285,
834.144,1864.7211,
831.233,1877.5412,
828.323,1861.0921,
825.412,1849.246,
822.501,1859.1301,
819.591,1816.1574,
816.680,1825.2917,
813.770,1812.2124,
810.859,1783.9229,
807.949,1774.9312,
805.038,1807.2953,
802.127,1769.4315,
799.217,1753.9487,
796.306,1747.6047,
793.396,1747.8216,
790.485,1748.7692,
787.574,1741.1864,
784.664,1749.3875,
781.753,1746.8491,
778.843,1763.4981,
775.932,1772.9986,
773.022,1754.6789,
770.111,1779.2063,
767.200,1788.4881,
764.290,1775.2723,
761.379,1768.6014,
758.469,1771.6897,
755.558,1755.5832,
752.648,1745.808,
749.737,1747.1389,
746.826,1743.7466,
743.916,1723.0761,
741.005,1679.6478,
738.095,1633.3708,
735.184,1554.9389,
732.274,1495.8988,
729.363,1500.4807,
726.452,1578.9545,
723.542,1667.9878,
720.631,1688.9303,
717.721,1724.8087,
714.810,1741.0228,
711.899,1734.578,
708.989,1754.7511,
706.078,1714.8099,
703.168,1724.3061,
700.257,1718.3093,
697.347,1703.6129,
694.436,1745.1331,
691.525,1717.8037,
688.615,1710.6172,
685.704,1719.804,
682.794,1729.1304,
679.883,1716.7308,
676.973,1713.5253,
674.062,1757.5407,
671.151,1750.4386,
668.241,1723.1699,
665.330,1767.7405,
662.420,1743.7786,
659.509,1733.7956,
656.598,1722.6528,
653.688,1712.105,
650.777,1712.902,
647.867,1713.6983,
644.956,1684.7749,
642.046,1632.878,
639.135,1603.9494,
636.224,1675.9267,
633.314,1686.2479,
630.403,1735.5806,
627.493,1761.3457,
624.582,1758.4676,
621.672,1792.5233,
618.761,1794.6349,
615.850,1798.1809,
612.940,1801.5581,
610.029,1805.9,
607.119,1824.0615,
604.208,1815.2248,
601.297,1826.329,
598.387,1838.722,
595.476,1832.3606,
592.566,1848.1019,
589.655,1803.579,
586.745,1778.309,
583.834,1779.5338,
580.923,1781.8276,
578.013,1773.9803,
575.102,1752.373,
572.192,1750.0227,
569.281,1769.063,
566.371,1753.4105,
563.460,1803.3742,
560.549,1806.8457,
557.639,1795.1262,
554.728,1814.0374,
551.818,1800.772,
548.907,1824.6892,
545.996,1839.5423,
543.086,1834.8684,
540.175,1830.1965,
537.265,1840.0149,
534.354,1854.4105,
531.444,1878.2506,
528.533,1912.0473,
525.622,1900.4081,
522.712,1886.9534,
519.801,1898.5871,
516.891,1933.5701,
513.980,1956.799,
511.070,1994.0924,
508.159,2020.3366,
505.248,2039.6348,
502.338,2060.8239,
499.427,2093.2408,
496.517,2125.6326,
493.606,2141.856,
490.695,2144.0801,
487.785,2188.728,
484.874,2195.2288,
481.964,2169.9583,
479.053,2134.5073,
476.143,2132.9714,
473.232,2135.7526,
470.321,2130.5495,
467.411,2116.2772,
464.500,2094.418,
461.590,2115.8587,
458.679,2123.5259,
455.769,2131.4913,
452.858,2149.295,
449.947,2182.144,
447.037,2230.1347,
444.126,2240.978,
441.216,2222.4737,
438.305,2271.9993,
435.395,2289.3652,
432.484,2284.4562,
429.573,2261.7099,
426.663,2226.7434,
423.752,2129.026,
420.842,1929.405,
417.931,1731.1789,
415.020,1697.0528,
412.110,1856.0983,
409.199,2004.3615,
406.289,2137.9697,
403.378,2260.6573,
400.468,2196.3978,
397.557,2169.1911,
394.646,2192.2337,
391.736,2273.203,
388.825,2314.6857,
385.915,2315.6989,
383.004,2303.0196,
380.094,2298.4087,
377.183,2348.0721,
374.272,2407.4686,
371.362,2425.5664,
368.451,2379.7472,
365.541,2427.031,
362.630,2436.0513,
359.719,2462.4718,
356.809,2530.6549,
353.898,2493.9637,
350.988,2486.0449,
348.077,2488.1654,
345.167,2489.8967,
342.256,2510.0676,
339.345,2491.9605,
336.435,2479.4804,
333.524,2500.818,
330.614,2467.286,
327.703,2500.5144,
324.793,2538.0081,
321.882,2526.8786,
318.971,2528.3655,
316.061,2527.8984,
313.150,2531.2631,
310.240,2545.3633,
307.329,2563.7409,
304.418,2564.9476,
301.508,2552.9519,
298.597,2534.4415,
295.687,2574.1867,
292.776,2598.0417,
289.866,2611.9709,
286.955,2650.3846,
284.044,2686.235,
281.134,2759.4182,
278.223,2861.8508,
275.313,2916.3781,
272.402,2938.9122,
269.492,2944.9739,
266.581,2937.8271,
263.670,2895.1866,
260.760,2918.9194,
257.849,2970.8654,
254.939,3025.1727,
252.028,3054.105,
249.117,3074.9252,
246.207,3095.0197,
243.296,3126.4972,
240.386,3072.4117,
237.475,3036.4964,
234.565,3021.5481,
231.654,2981.377,
228.743,2980.3548,
225.833,2961.4833,
222.922,2906.5205,
220.012,2920.3631,
217.101,2913.0978,
214.191,2885.7943,
211.280,2835.5994,
208.369,2823.1284,
205.459,2844.0278,
202.548,2885.5101,
199.638,2906.5539,
196.727,2871.6923,
193.816,2866.3548,
190.906,2920.2655,
187.995,2902.8889,
185.085,2920.0449,
182.174,2946.8544,
179.264,2950.4682,
176.353,2964.9721,
173.442,2963.0859,
170.532,2942.7667,
167.621,2916.0906,
164.711,2848.4347,
161.800,2743.0017,
158.890,2594.0181,
155.979,2433.4995,
153.068,2268.8346,
150.158,2087.4898,
147.247,1838.3604,
144.337,1503.4977,
141.426,1169.7332,
138.516,877.24155,
135.605,627.51104,
132.694,428.82132,
129.784,278.61756,
126.873,184.93556,
123.963,121.48753,
121.052,79.659613,
118.141,58.956455,
115.231,56.032719,
112.320,50.215005,
109.410,41.966026,
106.499,31.995853,
103.589,22.031437,
100.678,14.516891,
97.767,10.962204,
94.857,16.418912,
91.946,14.44078,
89.036,7.9878979,
86.125,8.6971032,
83.215,8.875,
80.304,8.1567019,
77.393,6.0321921,
74.483,13.736619,
71.572,14.251479,
68.662,8.3598725,
65.751,13.30503,
62.840,12.948192,
59.930,9.5639966,
57.019,4.6284227,
54.109,12.235252,
51.198,16.065344,
48.288,11.824038,
45.377,5.4936354,
42.466,7.8216321,
39.556,14.184289,
36.645,9.9711472,
33.735,7.8365031,
30.824,6.875,
27.914,6.875,
25.003,7.4976375,
22.092,11.749855,
19.182,20.172477,
16.271,29.265849,
13.361,134.02491,
10.450,315.54236,
7.539,563.44432,
4.629,713.58495,
1.718,696.58824,
-1.192,379.38747,
-4.103,180.88093,
-7.013,54.55321,
-9.924,-1.125,
