,PL680D~1,
Wavenumbers [1/cm],Intensity,
3014.167,1.875,
3011.256,-6.2250215,
3008.346,36.230508,
3005.435,60.875,
3002.525,46.609899,
2999.614,72.538645,
2996.704,56.750265,
2993.793,78.01728,
2990.882,75.042885,
2987.972,77.875,
2985.061,84.081905,
2982.151,85.710289,
2979.240,80.544218,
2976.329,80.399571,
2973.419,85.797978,
2970.508,88.641673,
2967.598,85.018374,
2964.687,86.919837,
2961.777,88.592976,
2958.866,92.537707,
2955.955,98.633849,
2953.045,109.4902,
2950.134,98.875,
2947.224,105.15969,
2944.313,120.71759,
2941.403,117.44617,
2938.492,124.90754,
2935.581,118.74621,
2932.671,133.78911,
2929.760,118.30964,
2926.850,118.55432,
2923.939,126.27218,
2921.028,135.1044,
2918.118,119.89389,
2915.207,118.52699,
2912.297,135.82422,
2909.386,127.66332,
2906.476,126.90589,
2903.565,123.13278,
2900.654,134.60401,
2897.744,130.79957,
2894.833,118.27718,
2891.923,120.2276,
2889.012,108.50506,
2886.102,100.33175,
2883.191,59.918425,
2880.280,-6.9958262,
2877.370,-97.485263,
2874.459,-117.18163,
2871.549,-58.189999,
2868.638,71.064624,
2865.727,98.647998,
2862.817,130.14639,
2859.906,133.07728,
2856.996,127.37274,
2854.085,134.91703,
2851.175,140.42022,
2848.264,140.71833,
2845.353,158.52993,
2842.443,143.67361,
2839.532,134.00939,
2836.622,138.93685,
2833.711,138.56416,
2830.801,139.16985,
2827.890,142.95892,
2824.979,154.86294,
2822.069,153.0797,
2819.158,160.23348,
2816.248,142.12789,
2813.337,165.62744,
2810.427,165.91218,
2807.516,162.56578,
2804.605,154.32693,
2801.695,149.73023,
2798.784,164.80515,
2795.874,146.88028,
2792.963,156.01819,
2790.052,169.87371,
2787.142,153.09865,
2784.231,156.97126,
2781.321,163.56646,
2778.410,170.14024,
2775.500,155.68466,
2772.589,153.95297,
2769.678,165.23338,
2766.768,147.70023,
2763.857,146.98097,
2760.947,150.35924,
2758.036,163.1235,
2755.126,150.34722,
2752.215,150.77033,
2749.304,161.06563,
2746.394,169.60485,
2743.483,162.12501,
2740.573,166.97238,
2737.662,167.32174,
2734.751,163.8508,
2731.841,163.44277,
2728.930,176.81159,
2726.020,157.5434,
2723.109,145.57625,
2720.199,176.7188,
2717.288,171.59398,
2714.377,167.77926,
2711.467,169.85852,
2708.556,173.875,
2705.646,178.10036,
2702.735,165.23585,
2699.825,184.04951,
2696.914,189.63729,
2694.003,167.64573,
2691.093,174.21435,
2688.182,180.45722,
2685.272,173.63602,
2682.361,172.45142,
2679.450,178.41408,
2676.540,170.15954,
2673.629,179.22929,
2670.719,176.29829,
2667.808,177.97227,
2664.898,170.32928,
2661.987,193.24181,
2659.076,185.78234,
2656.166,195.22997,
2653.255,187.73044,
2650.345,199.04379,
2647.434,185.38943,
2644.524,192.03328,
2641.613,194.56073,
2638.702,183.06437,
2635.792,188.65765,
2632.881,184.22608,
2629.971,200.21735,
2627.060,184.20563,
2624.149,203.57813,
2621.239,205.38389,
2618.328,203.66306,
2615.418,196.88409,
2612.507,193.49555,
2609.597,200.23229,
2606.686,202.43324,
2603.775,203.11309,
2600.865,202.22655,
2597.954,216.15629,
2595.044,207.49148,
2592.133,211.53735,
2589.223,209.54974,
2586.312,206.92523,
2583.401,219.11953,
2580.491,224.05288,
2577.580,199.91131,
2574.670,223.25869,
2571.759,220.26884,
2568.848,208.28933,
2565.938,224.39884,
2563.027,212.55686,
2560.117,203.68809,
2557.206,201.35471,
2554.296,205.99399,
2551.385,223.68498,
2548.474,218.76385,
2545.564,218.84334,
2542.653,218.48574,
2539.743,210.41813,
2536.832,211.40584,
2533.922,211.08,
2531.011,225.52486,
2528.100,237.87154,
2525.190,236.17869,
2522.279,222.57847,
2519.369,234.15818,
2516.458,230.0988,
2513.548,231.06592,
2510.637,236.55131,
2507.726,243.44005,
2504.816,242.62585,
2501.905,240.57073,
2498.995,238.63612,
2496.084,234.26176,
2493.173,247.79653,
2490.263,245.51566,
2487.352,237.2506,
2484.442,245.5902,
2481.531,245.92818,
2478.621,255.32053,
2475.710,255.69097,
2472.799,238.53412,
2469.889,241.90821,
2466.978,241.91607,
2464.068,265.15548,
2461.157,248.37744,
2458.247,256.74262,
2455.336,251.89652,
2452.425,258.89859,
2449.515,273.50701,
2446.604,265.23449,
2443.694,261.27058,
2440.783,264.25563,
2437.872,263.58328,
2434.962,260.34043,
2432.051,264.58472,
2429.141,265.83958,
2426.230,273.61424,
2423.320,271.94693,
2420.409,255.41337,
2417.498,262.875,
2414.588,262.05751,
2411.677,281.55228,
2408.767,278.94586,
2405.856,300.15832,
2402.946,280.60065,
2400.035,285.15905,
2397.124,285.66109,
2394.214,285.06261,
2391.303,278.37771,
2388.393,288.60757,
2385.482,268.84436,
2382.571,256.17845,
2379.661,268.24709,
2376.750,270.61144,
2373.840,290.69991,
2370.929,287.96164,
2368.019,298.63487,
2365.108,283.64202,
2362.197,293.84763,
2359.287,293.08503,
2356.376,309.8433,
2353.466,304.95213,
2350.555,288.03511,
2347.645,304.71604,
2344.734,316.02708,
2341.823,313.92475,
2338.913,310.40784,
2336.002,310.27933,
2333.092,315.44954,
2330.181,313.82132,
2327.270,306.15003,
2324.360,311.16035,
2321.449,321.02805,
2318.539,314.44993,
2315.628,319.26988,
2312.718,325.17456,
2309.807,338.875,
2306.896,338.37109,
2303.986,337.31007,
2301.075,319.98145,
2298.165,307.27882,
2295.254,328.40105,
2292.344,326.66337,
2289.433,332.21864,
2286.522,330.76789,
2283.612,332.39542,
2280.701,341.79875,
2277.791,333.07537,
2274.880,343.86689,
2271.969,355.81738,
2269.059,344.34367,
2266.148,345.68635,
2263.238,354.77075,
2260.327,345.5991,
2257.417,347.09389,
2254.506,365.08868,
2251.595,356.5987,
2248.685,358.44997,
2245.774,362.77608,
2242.864,360.42114,
2239.953,353.41984,
2237.043,357.32999,
2234.132,363.67241,
2231.221,373.95516,
2228.311,399.75126,
2225.400,352.69122,
2222.490,376.97589,
2219.579,369.79022,
2216.669,378.9227,
2213.758,380.61619,
2210.847,396.54753,
2207.937,402.71213,
2205.026,397.98666,
2202.116,382.875,
2199.205,390.71194,
2196.294,414.80096,
2193.384,419.19099,
2190.473,391.13556,
2187.563,431.83633,
2184.652,423.57378,
2181.742,425.1254,
2178.831,444.74665,
2175.920,462.78939,
2173.010,470.67545,
2170.099,473.74157,
2167.189,517.80324,
2164.278,509.92927,
2161.368,537.58739,
2158.457,582.38215,
2155.546,590.99616,
2152.636,616.96004,
2149.725,660.33135,
2146.815,682.3411,
2143.904,694.26906,
2140.993,689.41985,
2138.083,718.68656,
2135.172,709.91698,
2132.262,708.63028,
2129.351,729.75442,
2126.441,689.04961,
2123.530,673.49338,
2120.619,636.15956,
2117.709,613.40238,
2114.798,596.22864,
2111.888,548.93829,
2108.977,514.07366,
2106.067,516.00904,
2103.156,489.96061,
2100.245,491.86935,
2097.335,477.81742,
2094.424,444.70459,
2091.514,450.43946,
2088.603,434.60313,
2085.692,439.33219,
2082.782,450.11594,
2079.871,438.73148,
2076.961,446.16464,
2074.050,419.60227,
2071.140,431.30049,
2068.229,418.96354,
2065.318,432.59201,
2062.408,442.48847,
2059.497,436.67857,
2056.587,440.00287,
2053.676,437.60853,
2050.766,431.33688,
2047.855,404.0174,
2044.944,410.07211,
2042.034,420.00798,
2039.123,434.35648,
2036.213,444.01053,
2033.302,440.04888,
2030.391,435.4345,
2027.481,436.33837,
2024.570,447.14618,
2021.660,447.93413,
2018.749,437.22916,
2015.839,418.45374,
2012.928,403.5646,
2010.017,419.83484,
2007.107,439.66377,
2004.196,438.13694,
2001.286,428.93511,
1998.375,421.44193,
1995.465,423.08839,
1992.554,390.44587,
1989.643,424.49245,
1986.733,414.80482,
1983.822,397.28563,
1980.912,404.05307,
1978.001,404.14588,
1975.090,417.875,
1972.180,417.39229,
1969.269,416.875,
1966.359,410.38843,
1963.448,417.83273,
1960.538,421.875,
1957.627,411.1753,
1954.716,411.81755,
1951.806,415.0176,
1948.895,435.9823,
1945.985,425.99428,
1943.074,413.95982,
1940.164,407.64391,
1937.253,384.45755,
1934.342,400.98622,
1931.432,400.5974,
1928.521,408.40868,
1925.611,397.69339,
1922.700,371.67197,
1919.790,388.40655,
1916.879,400.24725,
1913.968,399.87623,
1911.058,411.60173,
1908.147,416.69393,
1905.237,382.27941,
1902.326,368.53576,
1899.415,334.9067,
1896.505,335.57385,
1893.594,352.41467,
1890.684,373.16906,
1887.773,388.80586,
1884.863,405.35564,
1881.952,391.6477,
1879.041,411.62163,
1876.131,397.25802,
1873.220,392.74668,
1870.310,397.51625,
1867.399,415.58712,
1864.489,429.81099,
1861.578,381.39678,
1858.667,405.14147,
1855.757,401.87142,
1852.846,400.84937,
1849.936,396.45557,
1847.025,428.63655,
1844.114,425.57376,
1841.204,409.34703,
1838.293,408.89496,
1835.383,403.43299,
1832.472,407.68891,
1829.562,411.34662,
1826.651,421.39655,
1823.740,451.08194,
1820.830,416.1187,
1817.919,419.97691,
1815.009,449.56202,
1812.098,438.61517,
1809.188,443.44088,
1806.277,447.78647,
1803.366,427.09127,
1800.456,439.65517,
1797.545,436.61255,
1794.635,444.52001,
1791.724,445.24398,
1788.813,428.67731,
1785.903,437.75096,
1782.992,439.31463,
1780.082,392.53108,
1777.171,308.87286,
1774.261,301.24001,
1771.350,344.61602,
1768.439,409.02382,
1765.529,442.88159,
1762.618,484.875,
1759.708,496.62512,
1756.797,487.43561,
1753.887,506.54409,
1750.976,491.2402,
1748.065,486.68145,
1745.155,469.66233,
1742.244,466.10414,
1739.334,478.66794,
1736.423,470.98342,
1733.512,474.87909,
1730.602,465.90673,
1727.691,478.76353,
1724.781,508.25887,
1721.870,502.8035,
1718.960,517.14187,
1716.049,506.61243,
1713.138,499.60002,
1710.228,524.11361,
1707.317,546.451,
1704.407,517.4311,
1701.496,523.90203,
1698.586,527.64695,
1695.675,532.55354,
1692.764,554.6496,
1689.854,539.61121,
1686.943,535.97618,
1684.033,532.94951,
1681.122,584.9744,
1678.211,542.29376,
1675.301,572.77941,
1672.390,586.86902,
1669.480,584.89907,
1666.569,587.84961,
1663.659,586.4303,
1660.748,620.95478,
1657.837,675.45948,
1654.927,657.57787,
1652.016,686.41332,
1649.106,668.65839,
1646.195,698.38846,
1643.285,639.17383,
1640.374,695.6067,
1637.463,729.91103,
1634.553,732.54,
1631.642,777.51562,
1628.732,835.62021,
1625.821,792.95285,
1622.911,911.20442,
1620.000,907.92539,
1617.089,1016.666,
1614.179,1093.7035,
1611.268,1097.8006,
1608.358,1160.7847,
1605.447,1216.6754,
1602.536,1231.0576,
1599.626,1257.6331,
1596.715,1247.1686,
1593.805,1206.5244,
1590.894,1183.3809,
1587.984,1179.1428,
1585.073,1162.7095,
1582.162,1182.4169,
1579.252,1160.6894,
1576.341,1134.8484,
1573.431,1137.7067,
1570.520,1145.2256,
1567.610,1104.4038,
1564.699,1078.9996,
1561.788,1096.0016,
1558.878,1076.8817,
1555.967,1055.947,
1553.057,1039.1165,
1550.146,1030.0314,
1547.235,1017.0685,
1544.325,990.21245,
1541.414,951.57242,
1538.504,933.44401,
1535.593,932.95351,
1532.683,923.90287,
1529.772,919.03122,
1526.861,906.98884,
1523.951,883.38412,
1521.040,865.45931,
1518.130,839.92563,
1515.219,847.75508,
1512.309,849.58222,
1509.398,859.36367,
1506.487,839.97752,
1503.577,831.72445,
1500.666,853.83106,
1497.756,805.26475,
1494.845,797.63487,
1491.934,791.97579,
1489.024,822.77556,
1486.113,810.89398,
1483.203,773.46013,
1480.292,730.69198,
1477.382,727.91624,
1474.471,722.73597,
1471.560,755.70697,
1468.650,721.72911,
1465.739,697.31304,
1462.829,674.38957,
1459.918,671.47731,
1457.008,688.49048,
1454.097,698.64795,
1451.186,711.4398,
1448.276,719.34046,
1445.365,719.51955,
1442.455,730.03549,
1439.544,694.00393,
1436.633,664.06963,
1433.723,682.7534,
1430.812,674.06229,
1427.902,665.20543,
1424.991,721.12342,
1422.081,654.98169,
1419.170,659.24372,
1416.259,638.19323,
1413.349,635.89596,
1410.438,637.57478,
1407.528,617.27527,
1404.617,587.0869,
1401.707,636.40798,
1398.796,677.7142,
1395.885,641.61892,
1392.975,633.7717,
1390.064,679.52704,
1387.154,692.96812,
1384.243,676.01277,
1381.332,668.22304,
1378.422,638.97161,
1375.511,640.84517,
1372.601,688.79666,
1369.690,708.305,
1366.780,756.021,
1363.869,753.34546,
1360.958,778.90517,
1358.048,842.33994,
1355.137,848.5908,
1352.227,839.51561,
1349.316,885.64834,
1346.406,928.63982,
1343.495,932.34541,
1340.584,955.91085,
1337.674,952.66385,
1334.763,1002.4276,
1331.853,1043.2257,
1328.942,1054.6591,
1326.032,1052.6125,
1323.121,1062.2485,
1320.210,1079.8593,
1317.300,1086.2848,
1314.389,1096.6669,
1311.479,1122.603,
1308.568,1156.1651,
1305.657,1191.9562,
1302.747,1209.3283,
1299.836,1171.4771,
1296.926,1284.1569,
1294.015,1311.7366,
1291.105,1347.2161,
1288.194,1405.3908,
1285.283,1432.4791,
1282.373,1458.7577,
1279.462,1481.3062,
1276.552,1519.6074,
1273.641,1558.4303,
1270.731,1562.9347,
1267.820,1554.8363,
1264.909,1545.7976,
1261.999,1509.8403,
1259.088,1536.2919,
1256.178,1552.4348,
1253.267,1511.9121,
1250.356,1471.7848,
1247.446,1436.5794,
1244.535,1388.1697,
1241.625,1335.0936,
1238.714,1294.3546,
1235.804,1261.011,
1232.893,1231.5021,
1229.982,1221.4764,
1227.072,1209.7073,
1224.161,1178.6169,
1221.251,1154.2623,
1218.340,1155.6487,
1215.430,1137.3031,
1212.519,1114.3474,
1209.608,1114.545,
1206.698,1124.109,
1203.787,1120.6288,
1200.877,1113.7078,
1197.966,1111.0104,
1195.055,1168.0427,
1192.145,1200.4153,
1189.234,1252.6417,
1186.324,1272.5109,
1183.413,1278.5907,
1180.503,1298.9691,
1177.592,1299.309,
1174.681,1246.6079,
1171.771,1237.2774,
1168.860,1211.3778,
1165.950,1210.4876,
1163.039,1217.859,
1160.129,1223.8243,
1157.218,1214.8181,
1154.307,1209.1824,
1151.397,1212.8367,
1148.486,1186.8807,
1145.576,1153.3376,
1142.665,1163.9925,
1139.754,1192.5384,
1136.844,1146.3523,
1133.933,1133.8456,
1131.023,1149.8448,
1128.112,1152.7332,
1125.202,1129.0055,
1122.291,1097.8831,
1119.380,1119.1435,
1116.470,1146.5019,
1113.559,1134.41,
1110.649,1144.2816,
1107.738,1139.0154,
1104.828,1142.8546,
1101.917,1165.6502,
1099.006,1164.6174,
1096.096,1140.8963,
1093.185,1157.5784,
1090.275,1154.8286,
1087.364,1147.6999,
1084.453,1158.3741,
1081.543,1166.2457,
1078.632,1154.1,
1075.722,1145.9706,
1072.811,1189.5934,
1069.901,1129.3384,
1066.990,1165.2916,
1064.079,1184.4022,
1061.169,1193.2934,
1058.258,1200.2629,
1055.348,1211.0481,
1052.437,1226.203,
1049.527,1227.3379,
1046.616,1213.4367,
1043.705,1247.3302,
1040.795,1249.5744,
1037.884,1239.8176,
1034.974,1240.8338,
1032.063,1262.5592,
1029.153,1296.7591,
1026.242,1270.8104,
1023.331,1289.8737,
1020.421,1270.1736,
1017.510,1290.1299,
1014.600,1309.6457,
1011.689,1300.4542,
1008.778,1302.7242,
1005.868,1365.6974,
1002.957,1345.9092,
1000.047,1379.275,
997.136,1444.5597,
994.226,1486.6749,
991.315,1492.6572,
988.404,1485.4975,
985.494,1462.6257,
982.583,1451.4904,
979.673,1478.4092,
976.762,1470.0877,
973.852,1475.8814,
970.941,1496.3184,
968.030,1486.6727,
965.120,1479.8678,
962.209,1478.1628,
959.299,1482.8327,
956.388,1463.0364,
953.477,1470.1256,
950.567,1502.7836,
947.656,1503.0026,
944.746,1549.7282,
941.835,1530.01,
938.925,1518.9525,
936.014,1514.8633,
933.103,1511.4033,
930.193,1501.2818,
927.282,1476.5836,
924.372,1434.3032,
921.461,1421.511,
918.551,1389.2474,
915.640,1386.5725,
912.729,1406.7762,
909.819,1393.6534,
906.908,1399.5504,
903.998,1375.2187,
901.087,1391.1527,
898.176,1392.4223,
895.266,1399.5537,
892.355,1445.4874,
889.445,1464.7905,
886.534,1456.5263,
883.624,1470.3501,
880.713,1477.3646,
877.802,1457.0737,
874.892,1412.8888,
871.981,1379.0933,
869.071,1261.3001,
866.160,1255.3642,
863.250,1337.3602,
860.339,1433.797,
857.428,1478.1357,
854.518,1453.0084,
851.607,1423.0539,
848.697,1355.2836,
845.786,1308.7112,
842.875,1309.0029,
839.965,1350.0355,
837.054,1392.2378,
834.144,1424.5592,
831.233,1426.8753,
828.323,1417.4564,
825.412,1407.2993,
822.501,1403.3644,
819.591,1411.6284,
816.680,1370.2083,
813.770,1364.887,
810.859,1364.7163,
807.949,1360.3238,
805.038,1357.3816,
802.127,1345.0347,
799.217,1313.314,
796.306,1333.5239,
793.396,1342.8596,
790.485,1318.9798,
787.574,1312.9648,
784.664,1341.6687,
781.753,1340.1652,
778.843,1358.4386,
775.932,1362.9741,
773.022,1329.7221,
770.111,1373.8713,
767.200,1359.3648,
764.290,1350.9856,
761.379,1351.6321,
758.469,1353.9916,
755.558,1346.097,
752.648,1320.0297,
749.737,1316.8334,
746.826,1307.6181,
743.916,1292.2451,
741.005,1275.2635,
738.095,1207.8777,
735.184,1159.1166,
732.274,1129.7276,
729.363,1151.498,
726.452,1228.6921,
723.542,1288.5872,
720.631,1294.1686,
717.721,1310.9147,
714.810,1322.875,
711.899,1326.6374,
708.989,1342.7759,
706.078,1335.6633,
703.168,1350.8772,
700.257,1352.7984,
697.347,1337.7013,
694.436,1329.9405,
691.525,1332.3519,
688.615,1333.5039,
685.704,1330.4215,
682.794,1329.8537,
679.883,1341.3251,
676.973,1306.8662,
674.062,1336.2457,
671.151,1348.9851,
668.241,1340.3045,
665.330,1345.2153,
662.420,1352.4039,
659.509,1345.6209,
656.598,1335.2493,
653.688,1326.0347,
650.777,1320.037,
647.867,1324.815,
644.956,1301.109,
642.046,1265.1451,
639.135,1241.5344,
636.224,1262.8631,
633.314,1260.4812,
630.403,1319.5873,
627.493,1362.0272,
624.582,1365.2876,
621.672,1371.6235,
618.761,1359.716,
615.850,1368.5477,
612.940,1385.7057,
610.029,1398.3489,
607.119,1395.1904,
604.208,1392.745,
601.297,1402.8424,
598.387,1415.0215,
595.476,1418.9149,
592.566,1429.9339,
589.655,1382.6354,
586.745,1363.6864,
583.834,1375.1925,
580.923,1379.6096,
578.013,1335.6645,
575.102,1316.4184,
572.192,1331.9548,
569.281,1364.5322,
566.371,1334.7925,
563.460,1394.6617,
560.549,1403.333,
557.639,1387.5606,
554.728,1393.9388,
551.818,1379.1128,
548.907,1399.6421,
545.996,1410.9871,
543.086,1403.1974,
540.175,1395.4109,
537.265,1432.5375,
534.354,1459.4173,
531.444,1456.2702,
528.533,1417.0338,
525.622,1433.3287,
522.712,1442.9425,
519.801,1445.3475,
516.891,1450.5437,
513.980,1488.4842,
511.070,1503.8489,
508.159,1544.2149,
505.248,1577.6174,
502.338,1562.7109,
499.427,1591.2687,
496.517,1621.5012,
493.606,1638.202,
490.695,1639.9775,
487.785,1662.3015,
484.874,1644.5496,
481.964,1631.2139,
479.053,1634.7585,
476.143,1659.3333,
473.232,1605.4809,
470.321,1593.6065,
467.411,1591.7185,
464.500,1556.515,
461.590,1581.7844,
458.679,1618.5909,
455.769,1633.4231,
452.858,1616.3745,
449.947,1649.9875,
447.037,1679.3251,
444.126,1682.0447,
441.216,1663.5947,
438.305,1673.4999,
435.395,1702.4117,
432.484,1691.0364,
429.573,1660.3776,
426.663,1683.9419,
423.752,1599.395,
420.842,1412.082,
417.931,1236.2452,
415.020,1244.5871,
412.110,1428.5099,
409.199,1566.7796,
406.289,1643.8268,
403.378,1652.7188,
400.468,1606.6031,
397.557,1629.9221,
394.646,1660.2187,
391.736,1645.8891,
388.825,1677.5668,
385.915,1709.2271,
383.004,1732.3015,
380.094,1741.7963,
377.183,1759.8558,
374.272,1799.6129,
371.362,1824.4601,
368.451,1814.878,
365.541,1831.3898,
362.630,1842.4299,
359.719,1852.3145,
356.809,1864.2343,
353.898,1886.6982,
350.988,1888.5351,
348.077,1897.0722,
345.167,1925.2478,
342.256,1893.1239,
339.345,1879.6235,
336.435,1878.9285,
333.524,1885.7946,
330.614,1851.5174,
327.703,1859.871,
324.793,1881.4841,
321.882,1891.9255,
318.971,1912.7419,
316.061,1900.8308,
313.150,1896.5797,
310.240,1947.0436,
307.329,1928.1505,
304.418,1938.5691,
301.508,1946.4996,
298.597,1892.4491,
295.687,1870.944,
292.776,1896.6252,
289.866,1949.7912,
286.955,1977.8628,
284.044,2044.4924,
281.134,2112.7198,
278.223,2171.294,
275.313,2201.5051,
272.402,2203.8087,
269.492,2185.0324,
266.581,2150.0867,
263.670,2139.059,
260.760,2170.3523,
257.849,2217.2726,
254.939,2261.3056,
252.028,2260.4273,
249.117,2258.0477,
246.207,2267.0502,
243.296,2310.2404,
240.386,2312.263,
237.475,2282.4452,
234.565,2237.5652,
231.654,2241.9475,
228.743,2229.6415,
225.833,2196.0931,
222.922,2143.3019,
220.012,2173.9012,
217.101,2205.9572,
214.191,2201.9921,
211.280,2112.5142,
208.369,2105.2022,
205.459,2120.0465,
202.548,2151.0227,
199.638,2198.1899,
196.727,2154.8631,
193.816,2127.0128,
190.906,2152.0624,
187.995,2128.8936,
185.085,2162.0135,
182.174,2205.7203,
179.264,2197.7699,
176.353,2179.574,
173.442,2173.5006,
170.532,2180.211,
167.621,2183.0949,
164.711,2138.6762,
161.800,2051.6713,
158.890,1916.3625,
155.979,1801.6905,
153.068,1692.9484,
150.158,1570.0858,
147.247,1359.7258,
144.337,1098.1839,
141.426,848.71607,
138.516,642.25139,
135.605,478.46413,
132.694,334.31682,
129.784,213.26559,
126.873,133.17105,
123.963,89.559634,
121.052,61.50948,
118.141,42.948028,
115.231,35.769296,
112.320,32.451364,
109.410,29.693316,
106.499,18.298832,
103.589,14.754491,
100.678,13.603378,
97.767,12.892441,
94.857,14.260978,
91.946,10.843891,
89.036,4.7621021,
86.125,4.0528968,
83.215,7.5914425,
80.304,10.396135,
77.393,8.9797948,
74.483,12.150675,
71.572,12.063239,
68.662,8.736465,
65.751,7.3235628,
62.840,10.246914,
59.930,12.189424,
57.019,5.8436863,
54.109,5.4721608,
51.198,7.0814371,
48.288,9.8183756,
45.377,2.7845949,
42.466,4.8216321,
39.556,10.608696,
36.645,2.8846033,
33.735,2.9519939,
30.824,4.2123391,
27.914,2.1088133,
25.003,5.6108249,
22.092,9.4895228,
19.182,13.080946,
16.271,19.376357,
13.361,96.051604,
10.450,226.72054,
7.539,394.31623,
4.629,415.1567,
1.718,329.30225,
-1.192,118.7646,
-4.103,39.007755,
-7.013,3.0508658,
-9.924,-1.125,
