,Pliquid_AuCOFNPs-citrate13new_1E-1mgmL_100uL_CTR_0mgL_16h_785nm_133mW_3s_1acc_0_RamanShift__2__12-58-50-746,
Raman shift [1/cm],Intensity,
3014.167,-1.125,
3011.256,3.3249893,
3008.346,193.57092,
3005.435,227.83613,
3002.525,240.1401,
2999.614,222.29192,
2996.704,252.4152,
2993.793,253.99885,
2990.882,268.99706,
2987.972,274.94058,
2985.061,290.5351,
2982.151,267.45481,
2979.240,306.12691,
2976.329,300.38319,
2973.419,341.26011,
2970.508,320.25834,
2967.598,338.39709,
2964.687,338.42663,
2961.777,351.59298,
2958.866,355.19448,
2955.955,358.69803,
2953.045,376.40743,
2950.134,378.97123,
2947.224,393.30203,
2944.313,405.17842,
2941.403,409.69662,
2938.492,425.46037,
2935.581,433.28359,
2932.671,442.07673,
2929.760,452.47885,
2926.850,445.3453,
2923.939,459.95914,
2921.028,445.875,
2918.118,472.11682,
2915.207,480.98885,
2912.297,485.83692,
2909.386,480.51003,
2906.476,480.36378,
2903.565,495.11872,
2900.654,481.77993,
2897.744,466.56069,
2894.833,450.947,
2891.923,459.0096,
2889.012,481.49928,
2886.102,474.21015,
2883.191,462.87972,
2880.280,468.14293,
2877.370,429.60761,
2874.459,391.86259,
2871.549,444.20425,
2868.638,473.37602,
2865.727,481.875,
2862.817,495.71857,
2859.906,476.69836,
2856.996,498.83877,
2854.085,505.11449,
2851.175,497.20636,
2848.264,492.01233,
2845.353,503.27112,
2842.443,480.26734,
2839.532,493.86003,
2836.622,461.48177,
2833.711,469.60813,
2830.801,453.19191,
2827.890,472.39774,
2824.979,468.39309,
2822.069,460.11381,
2819.158,469.47337,
2816.248,465.07,
2813.337,464.0506,
2810.427,475.01413,
2807.516,450.61609,
2804.605,485.67067,
2801.695,472.9934,
2798.784,461.09677,
2795.874,467.14939,
2792.963,475.30351,
2790.052,463.87714,
2787.142,459.23027,
2784.231,452.06911,
2781.321,456.75504,
2778.410,459.91563,
2775.500,467.31913,
2772.589,475.37424,
2769.678,475.47904,
2766.768,484.00509,
2763.857,475.87693,
2760.947,493.38446,
2758.036,488.94503,
2755.126,490.2062,
2752.215,491.6204,
2749.304,487.0027,
2746.394,507.45162,
2743.483,503.67501,
2740.573,490.34176,
2737.662,486.53477,
2734.751,489.13217,
2731.841,493.09112,
2728.930,503.77328,
2726.020,502.42593,
2723.109,511.28717,
2720.199,520.07195,
2717.288,509.3312,
2714.377,501.90844,
2711.467,509.64533,
2708.556,515.83247,
2705.646,521.63558,
2702.735,533.36726,
2699.825,520.00589,
2696.914,529.25638,
2694.003,531.71891,
2691.093,522.0892,
2688.182,532.85796,
2685.272,520.14954,
2682.361,530.93395,
2679.450,536.20006,
2676.540,532.09856,
2673.629,534.57908,
2670.719,524.29829,
2667.808,534.53455,
2664.898,533.10846,
2661.987,542.37483,
2659.076,550.71335,
2656.166,555.45511,
2653.255,549.35629,
2650.345,549.09097,
2647.434,572.78926,
2644.524,567.24189,
2641.613,562.61793,
2638.702,558.95391,
2635.792,564.875,
2632.881,558.52392,
2629.971,568.7073,
2627.060,572.54063,
2624.149,573.06564,
2621.239,568.38389,
2618.328,565.70545,
2615.418,569.17501,
2612.507,601.25043,
2609.597,593.71133,
2606.686,591.96538,
2603.775,602.63293,
2600.865,613.45867,
2597.954,585.92911,
2595.044,599.27623,
2592.133,596.10442,
2589.223,619.03186,
2586.312,594.92523,
2583.401,604.875,
2580.491,609.95672,
2577.580,610.8618,
2574.670,602.32153,
2571.759,608.03167,
2568.848,617.16783,
2565.938,588.06532,
2563.027,612.53407,
2560.117,613.79088,
2557.206,620.81965,
2554.296,619.47912,
2551.385,640.81704,
2548.474,621.24488,
2545.564,626.36851,
2542.653,644.94883,
2539.743,642.36884,
2536.832,641.36472,
2533.922,629.52154,
2531.011,661.90067,
2528.100,646.20603,
2525.190,665.10533,
2522.279,642.90676,
2519.369,659.34697,
2516.458,664.44157,
2513.548,633.1847,
2510.637,675.15348,
2507.726,645.75232,
2504.816,651.25156,
2501.905,658.44024,
2498.995,668.17359,
2496.084,673.18162,
2493.173,679.40149,
2490.263,671.90888,
2487.352,668.66793,
2484.442,690.29255,
2481.531,702.03454,
2478.621,683.37729,
2475.710,707.75232,
2472.799,690.3952,
2469.889,697.02461,
2466.978,709.59664,
2464.068,703.17127,
2461.157,691.99245,
2458.247,696.18377,
2455.336,707.02179,
2452.425,701.61083,
2449.515,696.85629,
2446.604,710.92564,
2443.694,725.61925,
2440.783,709.87162,
2437.872,723.51035,
2434.962,714.66302,
2432.051,727.60359,
2429.141,741.01027,
2426.230,742.80981,
2423.320,747.16132,
2420.409,732.84274,
2417.498,749.08005,
2414.588,756.04987,
2411.677,742.76743,
2408.767,746.45177,
2405.856,765.40595,
2402.946,763.50592,
2400.035,789.84685,
2397.124,767.99799,
2394.214,778.1726,
2391.303,764.26186,
2388.393,775.25646,
2385.482,777.18343,
2382.571,760.48189,
2379.661,780.15414,
2376.750,780.24196,
2373.840,781.73751,
2370.929,819.45264,
2368.019,788.6096,
2365.108,801.80432,
2362.197,808.48595,
2359.287,793.30341,
2356.376,802.85211,
2353.466,805.875,
2350.555,819.7005,
2347.645,831.99422,
2344.734,832.17916,
2341.823,819.12375,
2338.913,821.51236,
2336.002,851.68366,
2333.092,851.32313,
2330.181,869.1921,
2327.270,841.69018,
2324.360,852.83251,
2321.449,862.50423,
2318.539,845.93923,
2315.628,872.58804,
2312.718,876.69218,
2309.807,864.78199,
2306.896,855.92196,
2303.986,884.75172,
2301.075,876.66231,
2298.165,869.25973,
2295.254,882.61648,
2292.344,871.14059,
2289.433,875.31137,
2286.522,889.55367,
2283.612,894.43625,
2280.701,890.6239,
2277.791,919.27575,
2274.880,925.23707,
2271.969,923.09311,
2269.059,944.78509,
2266.148,933.28402,
2263.238,935.07191,
2260.327,967.49524,
2257.417,925.67055,
2254.506,943.9434,
2251.595,954.01681,
2248.685,976.23454,
2245.774,978.4685,
2242.864,967.6256,
2239.953,985.36479,
2237.043,970.78499,
2234.132,987.32435,
2231.221,996.11277,
2228.311,1016.402,
2225.400,993.86009,
2222.490,1034.9305,
2219.579,1065.1912,
2216.669,1072.8321,
2213.758,1094.9208,
2210.847,1122.8322,
2207.937,1154.7349,
2205.026,1188.2074,
2202.116,1228.5098,
2199.205,1282.9614,
2196.294,1325.5449,
2193.384,1374.2686,
2190.473,1388.733,
2187.563,1488.049,
2184.652,1525.3811,
2181.742,1549.536,
2178.831,1593.0307,
2175.920,1612.5326,
2173.010,1616.5247,
2170.099,1620.941,
2167.189,1659.1835,
2164.278,1706.4237,
2161.368,1734.5891,
2158.457,1757.5146,
2155.546,1801.9346,
2152.636,1817.5718,
2149.725,1876.9622,
2146.815,1933.34,
2143.904,1920.678,
2140.993,1940.6791,
2138.083,1976.6744,
2135.172,1942.0765,
2132.262,1937.9032,
2129.351,1930.2404,
2126.441,1849.6612,
2123.530,1771.9995,
2120.619,1690.1963,
2117.709,1639.5163,
2114.798,1539.4745,
2111.888,1457.4258,
2108.977,1397.9147,
2106.067,1313.2048,
2103.156,1280.6775,
2100.245,1259.8455,
2097.335,1213.4771,
2094.424,1207.8223,
2091.514,1176.9476,
2088.603,1161.3129,
2085.692,1145.4214,
2082.782,1136.5658,
2079.871,1146.6615,
2076.961,1143.327,
2074.050,1138.2811,
2071.140,1160.4042,
2068.229,1126.1602,
2065.318,1110.4922,
2062.408,1130.0648,
2059.497,1117.2083,
2056.587,1111.1887,
2053.676,1102.3593,
2050.766,1090.5678,
2047.855,1086.5902,
2044.944,1081.5304,
2042.034,1112.823,
2039.123,1108.3935,
2036.213,1112.0062,
2033.302,1112.5927,
2030.391,1113.1965,
2027.481,1132.0579,
2024.570,1125.6038,
2021.660,1128.5794,
2018.749,1110.2169,
2015.839,1119.5476,
2012.928,1132.38,
2010.017,1153.7328,
2007.107,1134.6881,
2004.196,1130.9226,
2001.286,1134.6877,
1998.375,1119.8701,
1995.465,1103.4357,
1992.554,1125.416,
1989.643,1108.6008,
1986.733,1103.3566,
1983.822,1110.3233,
1980.912,1102.0137,
1978.001,1105.2479,
1975.090,1098.6948,
1972.180,1105.3564,
1969.269,1100.4956,
1966.359,1110.8213,
1963.448,1101.4985,
1960.538,1098.5556,
1957.627,1090.9586,
1954.716,1096.6739,
1951.806,1127.5769,
1948.895,1116.7739,
1945.985,1085.143,
1943.074,1094.7902,
1940.164,1080.8268,
1937.253,1069.4446,
1934.342,1092.5761,
1931.432,1085.2788,
1928.521,1092.0978,
1925.611,1068.2326,
1922.700,1050.5007,
1919.790,1073.1291,
1916.879,1041.5255,
1913.968,1067.8393,
1911.058,1089.7999,
1908.147,1095.3027,
1905.237,1050.2427,
1902.326,1069.9846,
1899.415,1062.425,
1896.505,1039.9654,
1893.594,1063.7744,
1890.684,1084.424,
1887.773,1073.1684,
1884.863,1067.7019,
1881.952,1069.1775,
1879.041,1076.4399,
1876.131,1069.1025,
1873.220,1059.0298,
1870.310,1034.6688,
1867.399,1054.5231,
1864.489,1069.9529,
1861.578,1069.9136,
1858.667,1054.5426,
1855.757,1077.8678,
1852.846,1088.3878,
1849.936,1098.2934,
1847.025,1100.347,
1844.114,1092.6679,
1841.204,1113.4274,
1838.293,1139.8767,
1835.383,1113.736,
1832.472,1108.2941,
1829.562,1112.487,
1826.651,1119.8154,
1823.740,1146.7141,
1820.830,1145.6151,
1817.919,1107.8568,
1815.009,1123.8496,
1812.098,1129.6703,
1809.188,1169.2703,
1806.277,1184.5873,
1803.366,1181.7752,
1800.456,1171.973,
1797.545,1110.8676,
1794.635,1170.649,
1791.724,1175.71,
1788.813,1180.6825,
1785.903,1203.6405,
1782.992,1205.2893,
1780.082,1203.1384,
1777.171,1177.5388,
1774.261,1175.2702,
1771.350,1200.5603,
1768.439,1207.0864,
1765.529,1217.0612,
1762.618,1228.4487,
1759.708,1222.6251,
1756.797,1234.4129,
1753.887,1244.4654,
1750.976,1254.2336,
1748.065,1250.9595,
1745.155,1240.8492,
1742.244,1255.4148,
1739.334,1262.1362,
1736.423,1267.9404,
1733.512,1289.7938,
1730.602,1301.3631,
1727.691,1278.3099,
1724.781,1333.8011,
1721.870,1350.875,
1718.960,1350.875,
1716.049,1363.4596,
1713.138,1391.5249,
1710.228,1342.7869,
1707.317,1349.9127,
1704.407,1385.1157,
1701.496,1385.2288,
1698.586,1412.5945,
1695.675,1382.1252,
1692.764,1413.957,
1689.854,1413.9616,
1686.943,1473.784,
1684.033,1459.2972,
1681.122,1502.1273,
1678.211,1519.7132,
1675.301,1579.69,
1672.390,1643.884,
1669.480,1647.2761,
1666.569,1697.4336,
1663.659,1742.5246,
1660.748,1841.7786,
1657.837,1838.1434,
1654.927,1896.351,
1652.016,1958.5797,
1649.106,1987.0219,
1646.195,1994.889,
1643.285,2076.7839,
1640.374,2074.7565,
1637.463,2162.2265,
1634.553,2129.668,
1631.642,2316.8631,
1628.732,2407.3668,
1625.821,2489.9404,
1622.911,2589.3115,
1620.000,2810.0655,
1617.089,2990.273,
1614.179,3126.0397,
1611.268,3298.3689,
1608.358,3477.4,
1605.447,3550.9327,
1602.536,3645.2681,
1599.626,3656.4747,
1596.715,3633.2774,
1593.805,3662.1766,
1590.894,3561.0753,
1587.984,3502.7043,
1585.073,3468.6489,
1582.162,3493.9309,
1579.252,3443.4122,
1576.341,3418.058,
1573.431,3478.3121,
1570.520,3451.5411,
1567.610,3383.482,
1564.699,3286.5718,
1561.788,3240.678,
1558.878,3200.4196,
1555.967,3085.1146,
1553.057,3010.9097,
1550.146,2959.7733,
1547.235,2899.8651,
1544.325,2853.9503,
1541.414,2836.2548,
1538.504,2818.9471,
1535.593,2803.875,
1532.683,2804.3344,
1529.772,2772.5318,
1526.861,2725.0471,
1523.951,2677.6212,
1521.040,2604.7364,
1518.130,2573.3755,
1515.219,2509.9162,
1512.309,2464.6633,
1509.398,2464.3349,
1506.487,2500.6393,
1503.577,2459.6098,
1500.666,2459.5099,
1497.756,2421.9001,
1494.845,2384.2741,
1491.934,2345.7742,
1489.024,2314.9744,
1486.113,2337.0554,
1483.203,2298.9075,
1480.292,2286.2384,
1477.382,2243.6543,
1474.471,2243.0835,
1471.560,2184.1934,
1468.650,2164.9746,
1465.739,2157.2676,
1462.829,2167.9891,
1459.918,2142.9631,
1457.008,2119.4597,
1454.097,2117.4805,
1451.186,2138.4011,
1448.276,2185.7785,
1445.365,2183.0156,
1442.455,2158.6082,
1439.544,2165.202,
1436.633,2159.0299,
1433.723,2133.273,
1430.812,2081.0571,
1427.902,2094.2965,
1424.991,2027.9531,
1422.081,1970.8264,
1419.170,1952.05,
1416.259,1953.1153,
1413.349,1911.5815,
1410.438,1906.9721,
1407.528,1887.7003,
1404.617,1906.5799,
1401.707,1894.9588,
1398.796,1905.4693,
1395.885,1927.3118,
1392.975,1921.5012,
1390.064,1910.0701,
1387.154,1748.089,
1384.243,1681.6642,
1381.332,1581.4243,
1378.422,1605.8063,
1375.511,1837.1912,
1372.601,2051.9146,
1369.690,2153.8828,
1366.780,2236.7821,
1363.869,2291.9253,
1360.958,2332.9439,
1358.048,2391.3734,
1355.137,2445.0051,
1352.227,2485.5483,
1349.316,2551.2574,
1346.406,2605.4218,
1343.495,2599.5528,
1340.584,2659.5537,
1337.674,2655.9503,
1334.763,2716.0394,
1331.853,2746.638,
1328.942,2793.2377,
1326.032,2812.7406,
1323.121,2849.2184,
1320.210,2885.5141,
1317.300,2877.8071,
1314.389,2900.8757,
1311.479,2973.8844,
1308.568,2993.4213,
1305.657,2949.5847,
1302.747,2976.5254,
1299.836,3012.0742,
1296.926,3140.3016,
1294.015,3257.0557,
1291.105,3431.8196,
1288.194,3528.3594,
1285.283,3580.5271,
1282.373,3664.7497,
1279.462,3693.2478,
1276.552,3698.2058,
1273.641,3743.5863,
1270.731,3763.5884,
1267.820,3694.5654,
1264.909,3667.348,
1261.999,3698.7099,
1259.088,3666.7857,
1256.178,3615.2005,
1253.267,3555.4729,
1250.356,3468.0861,
1247.446,3417.4466,
1244.535,3366.7278,
1241.625,3291.7529,
1238.714,3216.8342,
1235.804,3153.8605,
1232.893,3109.1277,
1229.982,3092.8887,
1227.072,2975.1981,
1224.161,2917.2853,
1221.251,2862.4599,
1218.340,2776.9113,
1215.430,2707.4945,
1212.519,2657.8787,
1209.608,2644.8219,
1206.698,2687.6626,
1203.787,2722.1112,
1200.877,2694.664,
1197.966,2755.8069,
1195.055,2848.4661,
1192.145,2970.5658,
1189.234,3015.6069,
1186.324,3106.5196,
1183.413,3160.6516,
1180.503,3152.7025,
1177.592,3166.8646,
1174.681,3110.1901,
1171.771,3016.1429,
1168.860,3027.753,
1165.950,2957.1152,
1163.039,2849.781,
1160.129,2785.5112,
1157.218,2763.0676,
1154.307,2758.246,
1151.397,2741.6702,
1148.486,2692.5753,
1145.576,2690.3739,
1142.665,2678.831,
1139.754,2690.8931,
1136.844,2663.0617,
1133.933,2645.7695,
1131.023,2618.7981,
1128.112,2590.0895,
1125.202,2590.7397,
1122.291,2603.7524,
1119.380,2610.1781,
1116.470,2641.0666,
1113.559,2679.6712,
1110.649,2667.6102,
1107.738,2676.2361,
1104.828,2690.5462,
1101.917,2688.8337,
1099.006,2693.772,
1096.096,2682.1549,
1093.185,2654.0588,
1090.275,2647.0194,
1087.364,2677.4367,
1084.453,2648.0028,
1081.543,2620.0101,
1078.632,2625.6812,
1075.722,2623.3198,
1072.811,2634.4955,
1069.901,2643.2281,
1066.990,2667.3166,
1064.079,2692.6099,
1061.169,2713.4733,
1058.258,2749.9781,
1055.348,2799.2213,
1052.437,2820.8396,
1049.527,2780.1771,
1046.616,2787.9966,
1043.705,2817.3933,
1040.795,2812.4664,
1037.884,2815.4955,
1034.974,2841.5167,
1032.063,2866.9212,
1029.153,2861.6939,
1026.242,2843.5298,
1023.331,2884.539,
1020.421,2870.5678,
1017.510,2892.2504,
1014.600,2943.9425,
1011.689,2980.875,
1008.778,2993.6302,
1005.868,3069.2418,
1002.957,3221.5245,
1000.047,3336.603,
997.136,3434.8935,
994.226,3449.9832,
991.315,3397.6522,
988.404,3351.2016,
985.494,3289.494,
982.583,3227.822,
979.673,3169.8547,
976.762,3147.1782,
973.852,3119.5644,
970.941,3100.7302,
968.030,3119.5569,
965.120,3066.9538,
962.209,3085.7097,
959.299,3085.3338,
956.388,3093.3944,
953.477,3123.0705,
950.567,3148.6008,
947.656,3132.5462,
944.746,3145.2895,
941.835,3119.961,
938.925,3126.378,
936.014,3152.0964,
933.103,3169.1095,
930.193,3161.0808,
927.282,3139.7669,
924.372,3100.869,
921.461,3054.6366,
918.551,3018.9614,
915.640,2984.7525,
912.729,2961.0219,
909.819,2957.8674,
906.908,2889.631,
903.998,2946.3227,
901.087,3003.2479,
898.176,3029.261,
895.266,3043.6188,
892.355,3072.0162,
889.445,3088.8015,
886.534,3120.6001,
883.624,3153.1155,
880.713,3202.6206,
877.802,3214.9472,
874.892,3174.4489,
871.981,3184.8689,
869.071,3142.2628,
866.160,3121.7658,
863.250,3119.0202,
860.339,3130.1084,
857.428,3131.2921,
854.518,3074.3564,
851.607,3090.9978,
848.697,3086.9968,
845.786,3075.0526,
842.875,3090.6443,
839.965,3133.2584,
837.054,3126.0146,
834.144,3138.4458,
831.233,3098.878,
828.323,3074.9076,
825.412,3079.9241,
822.501,3086.0024,
819.591,3025.6752,
816.680,3013.4583,
813.770,2956.9958,
810.859,2937.0585,
807.949,2948.0164,
805.038,2939.7666,
802.127,2955.406,
799.217,2961.3473,
796.306,2961.1723,
793.396,2939.6305,
790.485,2895.0296,
787.574,2849.7085,
784.664,2924.3387,
781.753,2894.261,
778.843,2894.9287,
775.932,2917.875,
773.022,2922.4397,
770.111,2951.8725,
767.200,2911.2415,
764.290,2898.4529,
761.379,2887.8467,
758.469,2873.1769,
755.558,2879.152,
752.648,2787.9164,
749.737,2757.472,
746.826,2686.0703,
743.916,2555.4716,
741.005,2355.2188,
738.095,1871.3403,
735.184,1418.447,
732.274,1320.3014,
729.363,1642.5231,
726.452,2233.5387,
723.542,2569.4369,
720.631,2737.7246,
717.721,2786.1664,
714.810,2823.6589,
711.899,2881.875,
708.989,2881.875,
706.078,2853.8294,
703.168,2847.4822,
700.257,2834.6727,
697.347,2808.2671,
694.436,2780.0676,
691.525,2750.3268,
688.615,2769.0314,
685.704,2783.0116,
682.794,2782.3431,
679.883,2783.6587,
676.973,2778.8505,
674.062,2767.6657,
671.151,2768.45,
668.241,2778.3045,
665.330,2782.1187,
662.420,2766.144,
659.509,2787.0024,
656.598,2789.1908,
653.688,2782.6166,
650.777,2810.7949,
647.867,2778.9418,
644.956,2776.8282,
642.046,2794.3859,
639.135,2812.7789,
636.224,2805.054,
633.314,2840.7813,
630.403,2852.8311,
627.493,2852.9546,
624.582,2862.5881,
621.672,2919.6117,
618.761,2946.1931,
615.850,2928.5296,
612.940,2922.561,
610.029,2948.7706,
607.119,2936.1365,
604.208,2922.0948,
601.297,2924.3528,
598.387,2940.1873,
595.476,2958.4238,
592.566,2932.4505,
589.655,2928.5229,
586.745,2902.8369,
583.834,2844.5012,
580.923,2757.5717,
578.013,2707.3487,
575.102,2714.5242,
572.192,2767.3899,
569.281,2843.7328,
566.371,2893.0381,
563.460,2919.039,
560.549,2948.3407,
557.639,2977.9319,
554.728,2999.2837,
551.818,2989.92,
548.907,3040.8939,
545.996,3072.1535,
543.086,3066.5329,
540.175,3060.3037,
537.265,3088.1219,
534.354,3087.3361,
531.444,3086.7427,
528.533,3119.5103,
525.622,3184.6899,
522.712,3182.4927,
519.801,3190.969,
516.891,3224.6921,
513.980,3238.6294,
511.070,3284.2489,
508.159,3322.4552,
505.248,3356.1428,
502.338,3394.5016,
499.427,3450.0735,
496.517,3465.4407,
493.606,3469.2399,
490.695,3478.2287,
487.785,3495.1641,
484.874,3484.9505,
481.964,3518.5723,
479.053,3560.0632,
476.143,3494.0184,
473.232,3503.5437,
470.321,3503.5227,
467.411,3495.5957,
464.500,3487.692,
461.590,3440.9819,
458.679,3425.6738,
455.769,3441.8337,
452.858,3486.0448,
449.947,3535.7003,
447.037,3490.6598,
444.126,3469.2932,
441.216,3492.4198,
438.305,3484.0386,
435.395,3499.9216,
432.484,3505.541,
429.573,3497.1475,
426.663,3481.1845,
423.752,3441.517,
420.842,3428.0718,
417.931,3442.8639,
415.020,3481.5402,
412.110,3509.9447,
409.199,3596.6475,
406.289,3670.2336,
403.378,3649.7623,
400.468,3616.4985,
397.557,3602.276,
394.646,3568.1696,
391.736,3481.1325,
388.825,3364.2267,
385.915,3271.3337,
383.004,3262.992,
380.094,3377.5547,
377.183,3508.4856,
374.272,3665.3723,
371.362,3794.8361,
368.451,3861.8294,
365.541,3861.0789,
362.630,3870.7073,
359.719,3875.9153,
356.809,3871.4123,
353.898,3913.345,
350.988,3942.7771,
348.077,3948.0011,
345.167,3922.929,
342.256,3904.2523,
339.345,3943.5153,
336.435,3977.6007,
333.524,3964.3213,
330.614,3978.4792,
327.703,4013.1659,
324.793,4049.8665,
321.882,4072.8714,
318.971,4071.3845,
316.061,4122.148,
313.150,4196.4297,
310.240,4262.478,
307.329,4314.8996,
304.418,4319.3726,
301.508,4273.5026,
298.597,4170.5847,
295.687,4153.0709,
292.776,4229.7088,
289.866,4430.9958,
286.955,4849.1145,
284.044,5215.6372,
281.134,5527.5489,
278.223,5786.0237,
275.313,5998.9748,
272.402,6169.931,
269.492,6326.7804,
266.581,6487.2677,
263.670,6744.5808,
260.760,6865.8895,
257.849,6965.0764,
254.939,7125.7966,
252.028,7102.5404,
249.117,7047.1923,
246.207,6985.488,
243.296,6956.9385,
240.386,6855.2732,
237.475,6764.4563,
234.565,6682.744,
231.654,6554.9269,
228.743,6414.5275,
225.833,6264.7125,
222.922,6107.5559,
220.012,5972.0446,
217.101,5861.1377,
214.191,5777.2315,
211.280,5728.4915,
208.369,5635.3908,
205.459,5602.2555,
202.548,5611.2315,
199.638,5572.7721,
196.727,5588.4999,
193.816,5587.5126,
190.906,5546.094,
187.995,5580.8471,
185.085,5614.6264,
182.174,5652.7827,
179.264,5704.0991,
176.353,5731.0207,
173.442,5720.759,
170.532,5678.5987,
167.621,5650.4807,
164.711,5567.1932,
161.800,5443.8237,
158.890,5282.6047,
155.979,4907.8694,
153.068,4517.2949,
150.158,4086.5383,
147.247,3479.1507,
144.337,2878.8038,
141.426,2282.5679,
138.516,1689.6989,
135.605,1209.2615,
132.694,833.75354,
129.784,554.17193,
126.873,376.10461,
123.963,254.51448,
121.052,170.61133,
118.141,122.066,
115.231,94.162756,
112.320,77.791369,
109.410,68.01154,
106.499,53.05628,
103.589,48.754491,
100.678,44.343918,
97.767,35.101729,
94.857,32.796033,
91.946,33.487443,
89.036,34.746021,
86.125,27.653968,
83.215,28.529602,
80.304,29.677837,
77.393,26.136987,
74.483,24.56473,
71.572,23.875,
68.662,23.528663,
65.751,19.996407,
62.840,21.28351,
59.930,24.249572,
57.019,25.659736,
54.109,18.111909,
51.198,13.779828,
48.288,15.903312,
45.377,19.420203,
42.466,19.638342,
39.556,17.990119,
36.645,18.692309,
33.735,19.394248,
30.824,18.549678,
27.914,14.342627,
25.003,17.610825,
22.092,19.552095,
19.182,19.35554,
16.271,34.044833,
13.361,125.43097,
10.450,317.39265,
7.539,750.34818,
4.629,1213.976,
1.718,1418.2197,
-1.192,1011.7844,
-4.103,611.68038,
-7.013,268.91432,
-9.924,-1.125,
