,PLAAAF~1,
Wavenumbers [1/cm],Intensity,
3014.167,2.25,
3011.256,-1.0999678,
3008.346,60.182296,
3005.435,81.366609,
3002.525,88.042506,
2999.614,71.626636,
2996.704,86.745874,
2993.793,72.86924,
2990.882,91.936945,
2987.972,86.32063,
2985.061,94.929796,
2982.151,96.176057,
2979.240,80.199617,
2976.329,96.525936,
2973.419,89.91136,
2970.508,102.18331,
2967.598,110.25,
2964.687,104.04144,
2961.777,96.344008,
2958.866,100.57987,
2955.955,109.80309,
2953.045,100.65271,
2950.134,120.25,
2947.224,113.96531,
2944.313,110.99145,
2941.403,136.63138,
2938.492,109.52642,
2935.581,109.47576,
2932.671,124.88948,
2929.760,124.38846,
2926.850,119.61579,
2923.939,123.65188,
2921.028,116.4794,
2918.118,121.25,
2915.207,118.89554,
2912.297,111.27539,
2909.386,118.64416,
2906.476,112.21911,
2903.565,122.42853,
2900.654,94.462351,
2897.744,103.74711,
2894.833,81.569267,
2891.923,97.330096,
2889.012,79.839594,
2886.102,45.356771,
2883.191,-2.7131833,
2880.280,-146.50124,
2877.370,-436.95865,
2874.459,-581.86247,
2871.549,-294.40584,
2868.638,-28.327435,
2865.727,34.753816,
2862.817,49.435827,
2859.906,87.757115,
2856.996,105.75679,
2854.085,113.05254,
2851.175,107.49092,
2848.264,104.91151,
2845.353,122.1853,
2842.443,119.6493,
2839.532,124.90669,
2836.622,127.64323,
2833.711,118.99097,
2830.801,140.32868,
2827.890,135.16608,
2824.979,139.31195,
2822.069,123.46607,
2819.158,143.39016,
2816.248,145.99711,
2813.337,140.72438,
2810.427,154.16184,
2807.516,149.51625,
2804.605,133.25,
2801.695,143.43423,
2798.784,158.65862,
2795.874,152.11016,
2792.963,144.10702,
2790.052,142.24979,
2787.142,147.43408,
2784.231,141.76552,
2781.321,134.43858,
2778.410,137.66497,
2775.500,142.07931,
2772.589,140.63532,
2769.678,147.07255,
2766.768,150.36652,
2763.857,145.46195,
2760.947,147.69011,
2758.036,150.95708,
2755.126,145.96154,
2752.215,154.84547,
2749.304,165.84531,
2746.394,141.69551,
2743.483,156.60001,
2740.573,164.12172,
2737.662,140.61094,
2734.751,157.57527,
2731.841,158.03388,
2728.930,151.43627,
2726.020,165.68345,
2723.109,160.79633,
2720.199,152.77801,
2717.288,163.81204,
2714.377,163.6041,
2711.467,167.47967,
2708.556,159.72874,
2705.646,161.78522,
2702.735,160.57989,
2699.825,164.0973,
2696.914,164.77363,
2694.003,167.47927,
2691.093,157.33906,
2688.182,175.68852,
2685.272,160.53307,
2682.361,155.79694,
2679.450,169.03598,
2676.540,171.14838,
2673.629,166.25,
2670.719,175.88494,
2667.808,166.97953,
2664.898,174.58755,
2661.987,172.74983,
2659.076,170.61422,
2656.166,180.12017,
2653.255,168.32483,
2650.345,188.98684,
2647.434,175.73557,
2644.524,170.63609,
2641.613,177.42159,
2638.702,174.34469,
2635.792,182.40653,
2632.881,183.71423,
2629.971,183.63253,
2627.060,193.91563,
2624.149,199.49375,
2621.239,178.21443,
2618.328,183.99568,
2615.418,180.90455,
2612.507,193.07606,
2609.597,210.87276,
2606.686,186.61346,
2603.775,193.21032,
2600.865,191.19197,
2597.954,194.86669,
2595.044,191.87534,
2592.133,194.52382,
2589.223,196.49106,
2586.312,205.76256,
2583.401,204.65875,
2580.491,191.53849,
2577.580,173.28796,
2574.670,196.52674,
2571.759,193.94692,
2568.848,201.1285,
2565.938,169.01171,
2563.027,197.07953,
2560.117,202.15655,
2557.206,198.72971,
2554.296,195.68249,
2551.385,203.05191,
2548.474,209.54666,
2545.564,199.8198,
2542.653,215.99833,
2539.743,206.60829,
2536.832,214.4743,
2533.922,225.34462,
2531.011,222.72572,
2528.100,207.71344,
2525.190,210.29713,
2522.279,224.40584,
2519.369,204.83505,
2516.458,204.25354,
2513.548,206.63184,
2510.637,220.20479,
2507.726,207.06042,
2504.816,216.62542,
2501.905,211.94573,
2498.995,216.2055,
2496.084,230.33013,
2493.173,223.27616,
2490.263,218.45226,
2487.352,222.70907,
2484.442,230.40204,
2481.531,227.46272,
2478.621,244.30218,
2475.710,238.21166,
2472.799,234.97644,
2469.889,240.25,
2466.978,230.147,
2464.068,214.7579,
2461.157,235.4425,
2458.247,239.6618,
2455.336,228.42219,
2452.425,237.1887,
2449.515,238.19388,
2446.604,254.31455,
2443.694,242.92434,
2440.783,238.82095,
2437.872,252.39586,
2434.962,254.93664,
2432.051,254.66364,
2429.141,260.38527,
2426.230,249.09749,
2423.320,251.77863,
2420.409,248.8718,
2417.498,253.63484,
2414.588,269.5123,
2411.677,281.21011,
2408.767,250.46752,
2405.856,248.81663,
2402.946,264.46448,
2400.035,258.36032,
2397.124,273.46391,
2394.214,264.9792,
2391.303,258.10637,
2388.393,239.08019,
2385.482,230.38219,
2382.571,189.09828,
2379.661,200.36597,
2376.750,254.71782,
2373.840,280.30934,
2370.929,294.12004,
2368.019,271.87559,
2365.108,286.50654,
2362.197,285.81989,
2359.287,294.24164,
2356.376,283.27113,
2353.466,284.21915,
2350.555,293.83006,
2347.645,298.02616,
2344.734,285.85366,
2341.823,291.10075,
2338.913,296.42761,
2336.002,300.58729,
2333.092,305.12358,
2330.181,309.53132,
2327.270,306.52503,
2324.360,318.11557,
2321.449,319.51191,
2318.539,308.92887,
2315.628,313.77838,
2312.718,326.6663,
2309.807,322.49855,
2306.896,316.02935,
2303.986,327.68507,
2301.075,328.86702,
2298.165,321.26908,
2295.254,339.7976,
2292.344,329.03837,
2289.433,327.20363,
2286.522,323.46422,
2283.612,328.48979,
2280.701,332.44281,
2277.791,335.45037,
2274.880,336.61207,
2271.969,327.89198,
2269.059,340.83584,
2266.148,348.89775,
2263.238,341.25387,
2260.327,338.31924,
2257.417,363.40334,
2254.506,353.84544,
2251.595,355.53362,
2248.685,348.41157,
2245.774,340.74458,
2242.864,363.4994,
2239.953,338.93275,
2237.043,345.92571,
2234.132,340.03448,
2231.221,359.09511,
2228.311,346.02452,
2225.400,357.81291,
2222.490,375.9503,
2219.579,372.64333,
2216.669,375.25954,
2213.758,372.59771,
2210.847,377.08627,
2207.937,385.92426,
2205.026,373.58353,
2202.116,375.3296,
2199.205,388.65047,
2196.294,389.36597,
2193.384,386.59248,
2190.473,395.11972,
2187.563,415.17266,
2184.652,404.37081,
2181.742,429.9996,
2178.831,430.60412,
2175.920,442.99863,
2173.010,447.87528,
2170.099,472.64733,
2167.189,494.15672,
2164.278,481.39673,
2161.368,489.96335,
2158.457,514.75715,
2155.546,533.46156,
2152.636,568.72865,
2149.725,588.57214,
2146.815,602.8162,
2143.904,619.65891,
2140.993,641.25,
2138.083,650.00375,
2135.172,662.27519,
2132.262,673.64525,
2129.351,661.10505,
2126.441,643.64803,
2123.530,631.98062,
2120.619,610.58935,
2117.709,611.80193,
2114.798,573.86153,
2111.888,553.77586,
2108.977,521.26324,
2106.067,515.52513,
2103.156,487.21544,
2100.245,496.23306,
2097.335,470.21335,
2094.424,475.3352,
2091.514,469.96506,
2088.603,467.45278,
2085.692,462.65893,
2082.782,463.66365,
2079.871,466.71441,
2076.961,467.25,
2074.050,478.82576,
2071.140,437.20355,
2068.229,467.97787,
2065.318,466.86725,
2062.408,446.55259,
2059.497,438.27383,
2056.587,449.79645,
2053.676,450.43338,
2050.766,432.71263,
2047.855,459.65194,
2044.944,441.11217,
2042.034,455.85697,
2039.123,462.88973,
2036.213,460.69222,
2033.302,461.79347,
2030.391,454.5214,
2027.481,480.74972,
2024.570,476.07897,
2021.660,494.89003,
2018.749,471.75612,
2015.839,460.05709,
2012.928,470.99665,
2010.017,493.17183,
2007.107,492.96961,
2004.196,491.9286,
2001.286,493.81185,
1998.375,485.37893,
1995.465,489.54286,
1992.554,503.52048,
1989.643,509.11175,
1986.733,483.82193,
1983.822,480.34084,
1980.912,499.55647,
1978.001,492.16467,
1975.090,514.66374,
1972.180,507.80186,
1969.269,503.98562,
1966.359,490.57417,
1963.448,488.63309,
1960.538,501.61114,
1957.627,509.59985,
1954.716,545.21583,
1951.806,537.44871,
1948.895,538.06179,
1945.985,514.00327,
1943.074,502.44562,
1940.164,504.14443,
1937.253,518.5283,
1934.342,520.28422,
1931.432,534.06388,
1928.521,525.01511,
1925.611,530.66544,
1922.700,529.91851,
1919.790,514.46981,
1916.879,522.48276,
1913.968,546.22172,
1911.058,511.30706,
1908.147,526.78139,
1905.237,534.22061,
1902.326,534.95522,
1899.415,480.76828,
1896.505,450.59329,
1893.594,462.50923,
1890.684,532.10592,
1887.773,575.71543,
1884.863,569.32062,
1881.952,546.11518,
1879.041,553.37981,
1876.131,574.53758,
1873.220,547.74103,
1870.310,603.58621,
1867.399,554.12965,
1864.489,561.82162,
1861.578,551.5302,
1858.667,565.83974,
1855.757,624.48151,
1852.846,589.25,
1849.936,579.57634,
1847.025,564.30595,
1844.114,580.06648,
1841.204,590.56468,
1838.293,588.7658,
1835.383,583.622,
1832.472,611.56478,
1829.562,623.77838,
1826.651,602.10423,
1823.740,583.78638,
1820.830,594.91155,
1817.919,592.73499,
1815.009,581.83143,
1812.098,609.87203,
1809.188,604.80816,
1806.277,608.16147,
1803.366,586.74909,
1800.456,616.25,
1797.545,614.95929,
1794.635,603.54002,
1791.724,614.06551,
1788.813,624.05103,
1785.903,609.19392,
1782.992,530.13071,
1780.082,435.48335,
1777.171,308.56475,
1774.261,278.30579,
1771.350,421.83828,
1768.439,558.52957,
1765.529,602.25282,
1762.618,619.76687,
1759.708,636.61974,
1756.797,651.09848,
1753.887,656.58382,
1750.976,660.48102,
1748.065,646.96122,
1745.155,631.58554,
1742.244,664.99179,
1739.334,679.45706,
1736.423,664.53226,
1733.512,680.35169,
1730.602,691.99008,
1727.691,682.50275,
1724.781,694.98153,
1721.870,704.88337,
1718.960,689.80536,
1716.049,721.48694,
1713.138,738.50995,
1710.228,701.95693,
1707.317,707.74943,
1704.407,745.18589,
1701.496,746.51536,
1698.586,746.25,
1695.675,798.64968,
1692.764,788.04917,
1689.854,803.51379,
1686.943,727.91432,
1684.033,789.61081,
1681.122,776.50489,
1678.211,804.974,
1675.301,804.25308,
1672.390,849.17523,
1669.480,824.20187,
1666.569,818.8594,
1663.659,866.57665,
1660.748,885.98006,
1657.837,872.86235,
1654.927,901.5386,
1652.016,955.3472,
1649.106,958.46661,
1646.195,927.46579,
1643.285,937.25261,
1640.374,979.8946,
1637.463,964.27683,
1634.553,1020.2943,
1631.642,1023.4997,
1628.732,1046.2974,
1625.821,1054.32,
1622.911,1160.647,
1620.000,1193.8342,
1617.089,1173.6679,
1614.179,1257.7965,
1611.268,1310.3167,
1608.358,1342.7517,
1605.447,1370.6502,
1602.536,1440.2778,
1599.626,1434.2108,
1596.715,1428.712,
1593.805,1380.8504,
1590.894,1439.5389,
1587.984,1374.6322,
1585.073,1376.0123,
1582.162,1353.2034,
1579.252,1350.7049,
1576.341,1328.8202,
1573.431,1338.1303,
1570.520,1307.853,
1567.610,1368.7805,
1564.699,1333.7976,
1561.788,1293.6445,
1558.878,1301.2708,
1555.967,1279.8414,
1553.057,1290.767,
1550.146,1265.3046,
1547.235,1207.1917,
1544.325,1223.8372,
1541.414,1222.3866,
1538.504,1181.8911,
1535.593,1193.1088,
1532.683,1208.1433,
1529.772,1203.5811,
1526.861,1199.5708,
1523.951,1163.5957,
1521.040,1131.7689,
1518.130,1117.511,
1515.219,1125.4888,
1512.309,1158.8265,
1509.398,1139.9096,
1506.487,1161.1714,
1503.577,1140.1962,
1500.666,1106.3013,
1497.756,1158.1308,
1494.845,1108.6502,
1491.934,1118.2563,
1489.024,1120.1813,
1486.113,1071.1076,
1483.203,1085.9015,
1480.292,1083.1589,
1477.382,1100.0315,
1474.471,1091.9719,
1471.560,1074.4623,
1468.650,1117.7624,
1465.739,1125.5187,
1462.829,1071.8919,
1459.918,1066.6646,
1457.008,1091.8193,
1454.097,1097.1743,
1451.186,1082.4473,
1448.276,1086.8158,
1445.365,1129.3566,
1442.455,1137.7359,
1439.544,1163.6868,
1436.633,1122.5221,
1433.723,1136.3656,
1430.812,1158.1761,
1427.902,1155.9196,
1424.991,1100.0016,
1422.081,1128.5267,
1419.170,1129.5219,
1416.259,1138.9708,
1413.349,1147.2919,
1410.438,1168.8438,
1407.528,1170.1688,
1404.617,1163.9015,
1401.707,1171.259,
1398.796,1184.4423,
1395.885,1173.7144,
1392.975,1166.5423,
1390.064,1201.8419,
1387.154,1213.6144,
1384.243,1208.7673,
1381.332,1205.6061,
1378.422,1162.8102,
1375.511,1212.4596,
1372.601,1214.1716,
1369.690,1222.8222,
1366.780,1298.7013,
1363.869,1282.6526,
1360.958,1287.0758,
1358.048,1315.8293,
1355.137,1342.3921,
1352.227,1349.2173,
1349.316,1322.6421,
1346.406,1305.2577,
1343.495,1341.9835,
1340.584,1360.8925,
1337.674,1380.3204,
1334.763,1365.2733,
1331.853,1392.163,
1328.942,1381.687,
1326.032,1370.4626,
1323.121,1337.8705,
1320.210,1385.851,
1317.300,1370.3924,
1314.389,1382.9314,
1311.479,1414.6384,
1308.568,1405.4827,
1305.657,1406.4737,
1302.747,1395.6653,
1299.836,1409.2353,
1296.926,1465.4809,
1294.015,1448.9331,
1291.105,1490.516,
1288.194,1501.8412,
1285.283,1566.9743,
1282.373,1578.961,
1279.462,1601.4455,
1276.552,1610.4547,
1273.641,1601.3606,
1270.731,1595.0798,
1267.820,1541.9649,
1264.909,1536.5141,
1261.999,1561.3485,
1259.088,1591.4485,
1256.178,1608.6662,
1253.267,1588.2341,
1250.356,1579.2182,
1247.446,1527.2047,
1244.535,1497.6919,
1241.625,1489.7167,
1238.714,1463.5796,
1235.804,1440.5802,
1232.893,1391.7554,
1229.982,1366.4221,
1227.072,1341.9786,
1224.161,1352.0171,
1221.251,1312.5575,
1218.340,1299.5456,
1215.430,1285.3855,
1212.519,1251.9703,
1209.608,1236.5269,
1206.698,1243.7604,
1203.787,1203.3957,
1200.877,1169.5933,
1197.966,1223.5428,
1195.055,1282.5644,
1192.145,1317.0443,
1189.234,1311.6254,
1186.324,1329.8888,
1183.413,1356.9911,
1180.503,1367.9598,
1177.592,1369.6741,
1174.681,1348.8425,
1171.771,1331.673,
1168.860,1306.6665,
1165.950,1280.8676,
1163.039,1268.9644,
1160.129,1242.6558,
1157.218,1220.4812,
1154.307,1237.6246,
1151.397,1267.6049,
1148.486,1239.6506,
1145.576,1235.1321,
1142.665,1209.3826,
1139.754,1232.4725,
1136.844,1220.0421,
1133.933,1227.4992,
1131.023,1211.8126,
1128.112,1170.1089,
1125.202,1158.878,
1122.291,1190.746,
1119.380,1180.25,
1116.470,1180.25,
1113.559,1219.6857,
1110.649,1212.9143,
1107.738,1192.5336,
1104.828,1202.3906,
1101.917,1218.5987,
1099.006,1197.8066,
1096.096,1219.9488,
1093.185,1231.3628,
1090.275,1202.307,
1087.364,1180.8414,
1084.453,1182.687,
1081.543,1201.5202,
1078.632,1203.774,
1075.722,1180.0799,
1072.811,1205.6844,
1069.901,1211.7972,
1066.990,1212.25,
1064.079,1223.8187,
1061.169,1244.7144,
1058.258,1253.8621,
1055.348,1254.8352,
1052.437,1268.086,
1049.527,1266.8808,
1046.616,1257.3236,
1043.705,1231.5855,
1040.795,1245.9592,
1037.884,1262.8016,
1034.974,1272.4639,
1032.063,1281.0115,
1029.153,1279.6268,
1026.242,1274.4371,
1023.331,1303.4148,
1020.421,1312.0384,
1017.510,1330.6186,
1014.600,1336.2143,
1011.689,1310.4263,
1008.778,1262.9872,
1005.868,1203.5512,
1002.957,1237.105,
1000.047,1275.738,
997.136,1382.2221,
994.226,1463.419,
991.315,1471.8985,
988.404,1451.0062,
985.494,1465.039,
982.583,1455.6169,
979.673,1419.131,
976.762,1420.3405,
973.852,1409.9175,
970.941,1398.4763,
968.030,1435.4061,
965.120,1453.1927,
962.209,1439.552,
959.299,1442.916,
956.388,1459.2491,
953.477,1457.5081,
950.567,1441.08,
947.656,1445.6929,
944.746,1441.4452,
941.835,1481.7407,
938.925,1493.2242,
936.014,1479.0752,
933.103,1465.6624,
930.193,1463.4558,
927.282,1442.2335,
924.372,1405.0268,
921.461,1400.9864,
918.551,1395.4407,
915.640,1373.8273,
912.729,1364.2045,
909.819,1400.8043,
906.908,1389.8528,
903.998,1382.8871,
901.087,1382.523,
898.176,1395.6571,
895.266,1421.3112,
892.355,1449.6059,
889.445,1462.1949,
886.534,1459.7454,
883.624,1455.213,
880.713,1447.1257,
877.802,1397.4787,
874.892,1278.2968,
871.981,1109.5153,
869.071,909.01619,
866.160,988.7833,
863.250,1170.2523,
860.339,1331.9229,
857.428,1409.2935,
854.518,1402.7947,
851.607,1317.9236,
848.697,1182.882,
845.786,1091.4034,
842.875,1128.2083,
839.965,1288.2702,
837.054,1416.7524,
834.144,1461.505,
831.233,1462.9172,
828.323,1473.098,
825.412,1476.3033,
822.501,1445.803,
819.591,1404.483,
816.680,1423.2821,
813.770,1396.9249,
810.859,1397.2021,
807.949,1407.0207,
805.038,1373.9425,
802.127,1387.9356,
799.217,1398.1947,
796.306,1392.1689,
793.396,1403.9372,
790.485,1422.9316,
787.574,1385.9314,
784.664,1430.2175,
781.753,1418.7915,
778.843,1414.6409,
775.932,1426.7314,
773.022,1437.8265,
770.111,1415.7519,
767.200,1427.9536,
764.290,1422.4261,
761.379,1418.7948,
758.469,1420.6925,
755.558,1407.4445,
752.648,1413.9613,
749.737,1419.8195,
746.826,1405.466,
743.916,1404.1204,
741.005,1444.1058,
738.095,1389.71,
735.184,1331.7657,
732.274,1289.6882,
729.363,1278.6558,
726.452,1309.8678,
723.542,1390.8071,
720.631,1406.7181,
717.721,1401.0845,
714.810,1394.25,
711.899,1395.755,
708.989,1402.2104,
706.078,1420.68,
703.168,1430.715,
700.257,1423.9357,
697.347,1411.8584,
694.436,1420.7917,
691.525,1403.9118,
688.615,1393.9609,
685.704,1391.5451,
682.794,1399.8031,
679.883,1422.115,
676.973,1441.3479,
674.062,1463.7544,
671.151,1449.7035,
668.241,1418.9647,
665.330,1420.6071,
662.420,1407.0287,
659.509,1422.0281,
656.598,1427.057,
653.688,1430.1418,
650.777,1460.5768,
647.867,1381.7403,
644.956,1341.3414,
642.046,1292.4238,
639.135,1246.6037,
636.224,1259.5842,
633.314,1326.275,
630.403,1384.6347,
627.493,1412.8659,
624.582,1424.61,
621.672,1480.0496,
618.761,1464.0115,
615.850,1480.2895,
612.940,1492.7854,
610.029,1487.1163,
607.119,1516.3327,
604.208,1532.0302,
601.297,1540.2411,
598.387,1537.2307,
595.476,1520.4673,
592.566,1501.5777,
589.655,1518.9825,
586.745,1518.9668,
583.834,1493.2708,
580.923,1454.3779,
578.013,1475.5658,
575.102,1471.499,
572.192,1467.4656,
569.281,1481.2642,
566.371,1525.8737,
563.460,1509.7914,
560.549,1502.2246,
557.639,1513.9925,
554.728,1541.2299,
551.818,1509.2369,
548.907,1505.2971,
545.996,1500.6406,
543.086,1496.9605,
540.175,1528.1063,
537.265,1555.5998,
534.354,1568.7618,
531.444,1566.3982,
528.533,1552.1329,
525.622,1564.5481,
522.712,1566.6432,
519.801,1567.3956,
516.891,1577.8578,
513.980,1620.4441,
511.070,1597.4848,
508.159,1640.6926,
505.248,1696.9953,
502.338,1688.5603,
499.427,1733.3266,
496.517,1750.9066,
493.606,1746.5012,
490.695,1727.8592,
487.785,1717.8519,
484.874,1722.066,
481.964,1709.4694,
479.053,1690.7433,
476.143,1705.3346,
473.232,1678.9127,
470.321,1686.7399,
467.411,1705.7435,
464.500,1704.2112,
461.590,1702.6797,
458.679,1703.3506,
455.769,1718.4279,
452.858,1749.8863,
449.947,1755.9977,
447.037,1746.3283,
444.126,1755.5167,
441.216,1785.4989,
438.305,1798.4517,
435.395,1771.402,
432.484,1765.8353,
429.573,1756.1747,
426.663,1657.3564,
423.752,1417.7069,
420.842,1055.1122,
417.931,720.84125,
415.020,641.972,
412.110,1101.6295,
409.199,1458.0469,
406.289,1629.636,
403.378,1557.1194,
400.468,1518.5637,
397.557,1524.2452,
394.646,1594.0417,
391.736,1739.0609,
388.825,1795.6282,
385.915,1799.4774,
383.004,1802.5272,
380.094,1839.632,
377.183,1866.7212,
374.272,1875.3356,
371.362,1881.8422,
368.451,1895.478,
365.541,1899.2306,
362.630,1924.2846,
359.719,1944.8419,
356.809,1947.1562,
353.898,1962.1321,
350.988,1931.5308,
348.077,1907.4774,
345.167,1918.8499,
342.256,1891.2083,
339.345,1931.0789,
336.435,1967.4206,
333.524,1952.344,
330.614,1955.3246,
327.703,1949.0623,
324.793,1946.3747,
321.882,1958.2734,
318.971,1967.9382,
316.061,1971.7383,
313.150,1955.6215,
310.240,1902.1891,
307.329,1970.2844,
304.418,1983.6595,
301.508,1975.5054,
298.597,2010.305,
295.687,2001.7369,
292.776,2000.8334,
289.866,2021.7292,
286.955,2090.4307,
284.044,2133.7725,
281.134,2159.5449,
278.223,2181.7826,
275.313,2260.6261,
272.402,2250.5285,
269.492,2184.3558,
266.581,2080.6225,
263.670,2043.8635,
260.760,2077.1302,
257.849,2148.3019,
254.939,2237.1017,
252.028,2242.5931,
249.117,2278.5121,
246.207,2336.4864,
243.296,2403.1017,
240.386,2417.4329,
237.475,2447.7589,
234.565,2486.4539,
231.654,2462.3512,
228.743,2427.9062,
225.833,2393.4444,
222.922,2366.866,
220.012,2422.9647,
217.101,2412.7885,
214.191,2387.6212,
211.280,2402.1705,
208.369,2418.7247,
205.459,2452.6005,
202.548,2487.9881,
199.638,2463.3161,
196.727,2491.0943,
193.816,2522.1735,
190.906,2537.5389,
187.995,2517.2663,
185.085,2534.3656,
182.174,2566.7347,
179.264,2586.9722,
176.353,2593.0947,
173.442,2587.6363,
170.532,2564.8412,
167.621,2484.0919,
164.711,2398.1307,
161.800,2285.4445,
158.890,2124.9452,
155.979,1984.4159,
153.068,1834.4565,
150.158,1660.0098,
147.247,1405.8547,
144.337,1176.9395,
141.426,939.37733,
138.516,676.27825,
135.605,497.68028,
132.694,333.70592,
129.784,197.40357,
126.873,136.61754,
123.963,96.934634,
121.052,69.451059,
118.141,52.317411,
115.231,35.906882,
112.320,28.402728,
109.410,25.341026,
106.499,15.370853,
103.589,18.29229,
100.678,21.435135,
97.767,19.302322,
94.857,16.478044,
91.946,13.637557,
89.036,11.024204,
86.125,9.6057936,
83.215,8.1881593,
80.304,5.5739712,
77.393,0.61678165,
74.483,6.8013496,
71.572,9.8876479,
68.662,9.111465,
65.751,7.6985628,
62.840,6.286596,
59.930,5.0627138,
57.019,4.3576318,
54.109,4.25,
51.198,3.3451722,
48.288,1.2726498,
45.377,4.086162,
42.466,6.486658,
39.556,7.2139328,
36.645,0.89422086,
33.735,-0.75,
30.824,-0.97088697,
27.914,-1.6720622,
25.003,-1.1273625,
22.092,1.8332365,
19.182,7.7305401,
16.271,22.419833,
13.361,70.817256,
10.450,131.77398,
7.539,146.43861,
4.629,-10.327067,
1.718,-233.23398,
-1.192,-469.56598,
-4.103,-482.73525,
-7.013,-329.16351,
-9.924,-2.75,
