,PL3EDD~1,
Wavenumbers [1/cm],Intensity,
3014.167,1.625,
3011.256,-2.8249893,
3008.346,73.94182,
3005.435,94.66387,
3002.525,82.359899,
2999.614,96.050982,
2996.704,98.580671,
2993.793,115.51958,
2990.882,115.87683,
2987.972,102.63509,
2985.061,115.70876,
2982.151,119.9376,
2979.240,129.0423,
2976.329,138.39821,
2973.419,134.14824,
2970.508,131.32498,
2967.598,145.5258,
2964.687,135.56454,
2961.777,143.18905,
2958.866,138.95932,
2955.955,149.00773,
2953.045,166.68986,
2950.134,153.625,
2947.224,150.96663,
2944.313,170.71474,
2941.403,172.80338,
2938.492,170.21037,
2935.581,161.83485,
2932.671,199.10136,
2929.760,183.29808,
2926.850,179.93853,
2923.939,198.18575,
2921.028,201.78977,
2918.118,178.50662,
2915.207,176.90963,
2912.297,175.58692,
2909.386,183.44251,
2906.476,198.68679,
2903.565,186.35018,
2900.654,190.50772,
2897.744,181.52442,
2894.833,168.67664,
2891.923,170.5449,
2889.012,163.33598,
2886.102,141.33582,
2883.191,121.63538,
2880.280,71.9599,
2877.370,-59.368957,
2874.459,-97.727211,
2871.549,-11.110751,
2868.638,143.49709,
2865.727,156.7403,
2862.817,181.6103,
2859.906,193.28312,
2856.996,191.62047,
2854.085,197.02627,
2851.175,197.10091,
2848.264,208.46833,
2845.353,213.10739,
2842.443,194.41664,
2839.532,200.07277,
2836.622,191.25977,
2833.711,193.61716,
2830.801,201.72574,
2827.890,223.45716,
2824.979,204.14309,
2822.069,208.02302,
2819.158,231.60343,
2816.248,209.88947,
2813.337,220.28476,
2810.427,220.01481,
2807.516,232.72562,
2804.605,216.28126,
2801.695,224.36184,
2798.784,212.43815,
2795.874,209.05508,
2792.963,212.76798,
2790.052,222.6235,
2787.142,210.23015,
2784.231,212.81753,
2781.321,213.05926,
2778.410,211.67956,
2775.500,213.96638,
2772.589,219.70146,
2769.678,212.625,
2766.768,215.87161,
2763.857,212.625,
2760.947,207.59348,
2758.036,225.49775,
2755.126,213.94979,
2752.215,223.32938,
2749.304,211.625,
2746.394,229.07051,
2743.483,238.47503,
2740.573,231.73783,
2737.662,215.87943,
2734.751,232.04256,
2731.841,224.94917,
2728.930,235.35815,
2726.020,221.73727,
2723.109,223.51158,
2720.199,242.4688,
2717.288,235.1688,
2714.377,208.62958,
2711.467,239.01841,
2708.556,240.625,
2705.646,241.47007,
2702.735,241.14305,
2699.825,245.41949,
2696.914,255.10185,
2694.003,231.06564,
2691.093,238.24956,
2688.182,242.66278,
2685.272,242.54534,
2682.361,241.2309,
2679.450,246.28753,
2676.540,235.66565,
2673.629,238.28867,
2670.719,251.82926,
2667.808,248.15999,
2664.898,251.35263,
2661.987,230.625,
2659.076,251.57326,
2656.166,243.91506,
2653.255,244.95663,
2650.345,259.81738,
2647.434,245.48239,
2644.524,252.30844,
2641.613,255.48232,
2638.702,254.68812,
2635.792,265.87723,
2632.881,261.90454,
2629.971,278.60491,
2627.060,255.78844,
2624.149,271.97814,
2621.239,262.12796,
2618.328,302.56532,
2615.418,272.98408,
2612.507,259.76335,
2609.597,278.60504,
2606.686,273.7294,
2603.775,267.22818,
2600.865,267.6864,
2597.954,286.00212,
2595.044,282.54529,
2592.133,294.51029,
2589.223,289.73342,
2586.312,297.47926,
2583.401,291.74905,
2580.491,296.32207,
2577.580,295.6151,
2574.670,295.71322,
2571.759,307.22089,
2568.848,293.7465,
2565.938,289.76792,
2563.027,280.16137,
2560.117,285.8867,
2557.206,294.24124,
2554.296,280.14674,
2551.385,305.05493,
2548.474,297.32872,
2545.564,291.81493,
2542.653,301.98407,
2539.743,293.41552,
2536.832,318.93155,
2533.922,295.67231,
2531.011,298.89998,
2528.100,311.88636,
2525.190,306.02295,
2522.279,306.28157,
2519.369,314.19137,
2516.458,310.52018,
2513.548,304.67973,
2510.637,296.97762,
2507.726,314.81458,
2504.816,318.75127,
2501.905,316.07439,
2498.995,317.17769,
2496.084,330.89323,
2493.173,320.44123,
2490.263,330.02952,
2487.352,321.91553,
2484.442,318.15601,
2481.531,343.8325,
2478.621,347.07053,
2475.710,334.57899,
2472.799,334.05095,
2469.889,336.5668,
2466.978,324.51157,
2464.068,341.90548,
2461.157,336.8175,
2458.247,336.34557,
2455.336,337.26297,
2452.425,339.51651,
2449.515,354.83291,
2446.604,356.17118,
2443.694,341.25332,
2440.783,343.95721,
2437.872,342.53662,
2434.962,362.42224,
2432.051,349.16201,
2429.141,368.26591,
2426.230,364.47249,
2423.320,367.11104,
2420.409,361.94535,
2417.498,381.60815,
2414.588,361.91788,
2411.677,366.97955,
2408.767,362.27263,
2405.856,398.21786,
2402.946,378.82697,
2400.035,371.52406,
2397.124,389.1758,
2394.214,382.381,
2391.303,383.12771,
2388.393,382.15987,
2385.482,375.80125,
2382.571,346.40923,
2379.661,377.15968,
2376.750,383.31227,
2373.840,385.39057,
2370.929,380.71164,
2368.019,407.85407,
2365.108,400.27683,
2362.197,396.61131,
2359.287,420.17988,
2356.376,436.60563,
2353.466,397.91447,
2350.555,398.32585,
2347.645,429.88858,
2344.734,418.7448,
2341.823,399.90691,
2338.913,419.42796,
2336.002,401.65852,
2333.092,417.46371,
2330.181,430.60711,
2327.270,421.12005,
2324.360,428.14624,
2321.449,423.79508,
2318.539,434.1143,
2315.628,431.53267,
2312.718,431.50826,
2309.807,429.80524,
2306.896,423.41217,
2303.986,438.06007,
2301.075,429.36971,
2298.165,409.25935,
2295.254,450.63402,
2292.344,463.10223,
2289.433,441.89909,
2286.522,437.91955,
2283.612,446.55484,
2280.701,443.89406,
2277.791,438.5868,
2274.880,462.69498,
2271.969,460.04887,
2269.059,460.79668,
2266.148,482.75689,
2263.238,475.03041,
2260.327,463.52167,
2257.417,478.70889,
2254.506,490.6478,
2251.595,487.34504,
2248.685,483.36154,
2245.774,492.63583,
2242.864,480.49533,
2239.953,477.71467,
2237.043,475.40428,
2234.132,490.39117,
2231.221,482.43886,
2228.311,493.76157,
2225.400,477.10347,
2222.490,494.73903,
2219.579,514.32687,
2216.669,524.21324,
2213.758,510.19102,
2210.847,527.93984,
2207.937,512.43936,
2205.026,525.18157,
2202.116,511.522,
2199.205,537.83841,
2196.294,534.23696,
2193.384,542.783,
2190.473,551.0628,
2187.563,547.712,
2184.652,570.29397,
2181.742,589.53321,
2178.831,581.8585,
2175.920,614.02574,
2173.010,624.99972,
2170.099,640.08979,
2167.189,676.81874,
2164.278,707.58681,
2161.368,739.19539,
2158.457,765.2849,
2155.546,796.85101,
2152.636,840.31642,
2149.725,880.58471,
2146.815,896.29131,
2143.904,921.73651,
2140.993,947.52979,
2138.083,944.63714,
2135.172,959.06202,
2132.262,957.86268,
2129.351,938.27664,
2126.441,932.7415,
2123.530,903.82809,
2120.619,837.20283,
2117.709,851.187,
2114.798,798.49006,
2111.888,743.91288,
2108.977,721.63824,
2106.067,694.66556,
2103.156,660.47028,
2100.245,649.61998,
2097.335,639.21663,
2094.424,612.29037,
2091.514,593.3509,
2088.603,590.31634,
2085.692,583.35724,
2082.782,597.03865,
2079.871,593.51765,
2076.961,590.75416,
2074.050,571.54621,
2071.140,590.42953,
2068.229,591.90365,
2065.318,582.71125,
2062.408,570.76117,
2059.497,585.07146,
2056.587,609.13649,
2053.676,578.3271,
2050.766,577.08614,
2047.855,575.05542,
2044.944,554.69391,
2042.034,549.57299,
2039.123,567.92803,
2036.213,601.60502,
2033.302,592.49478,
2030.391,583.84525,
2027.481,590.83227,
2024.570,602.73902,
2021.660,603.68413,
2018.749,597.28309,
2015.839,588.22146,
2012.928,584.2458,
2010.017,585.14401,
2007.107,599.97454,
2004.196,600.01784,
2001.286,598.6462,
1998.375,586.70767,
1995.465,601.86339,
1992.554,546.27259,
1989.643,584.93138,
1986.733,570.30395,
1983.822,567.16414,
1980.912,575.33728,
1978.001,560.34486,
1975.090,583.21889,
1972.180,605.41619,
1969.269,609.07609,
1966.359,591.0844,
1963.448,628.07284,
1960.538,616.65669,
1957.627,621.3247,
1954.716,606.11336,
1951.806,615.22758,
1948.895,605.58455,
1945.985,595.09722,
1943.074,610.86851,
1940.164,601.32658,
1937.253,584.38564,
1934.342,605.68489,
1931.432,590.68809,
1928.521,583.06714,
1925.611,566.72262,
1922.700,589.49102,
1919.790,601.07005,
1916.879,610.92751,
1913.968,612.62377,
1911.058,615.09647,
1908.147,601.64685,
1905.237,565.60296,
1902.326,576.83389,
1899.415,576.26525,
1896.505,566.70316,
1893.594,559.34456,
1890.684,591.6641,
1887.773,598.38385,
1884.863,593.53844,
1881.952,606.48238,
1879.041,630.53726,
1876.131,610.56488,
1873.220,599.39489,
1870.310,645.96572,
1867.399,649.625,
1864.489,641.09232,
1861.578,649.16922,
1858.667,608.58313,
1855.757,578.98419,
1852.846,614.82503,
1849.936,607.39074,
1847.025,659.38899,
1844.114,649.34731,
1841.204,639.99912,
1838.293,660.11253,
1835.383,649.04402,
1832.472,662.68413,
1829.562,644.29687,
1826.651,641.08699,
1823.740,647.44109,
1820.830,656.65658,
1817.919,636.00808,
1815.009,653.74332,
1812.098,641.46753,
1809.188,672.45438,
1806.277,681.47008,
1803.366,664.12409,
1800.456,692.63577,
1797.545,676.54694,
1794.635,685.625,
1791.724,679.18819,
1788.813,654.63529,
1785.903,679.59016,
1782.992,653.13766,
1780.082,625.24799,
1777.171,560.61321,
1774.261,514.06995,
1771.350,554.34477,
1768.439,631.13683,
1765.529,663.99266,
1762.618,697.35502,
1759.708,719.41862,
1756.797,713.79924,
1753.887,723.0113,
1750.976,727.88351,
1748.065,723.76939,
1745.155,704.63161,
1742.244,709.50269,
1739.334,728.21088,
1736.423,735.45116,
1733.512,727.16562,
1730.602,725.86905,
1727.691,727.39266,
1724.781,742.56995,
1721.870,753.06313,
1718.960,799.02554,
1716.049,800.23525,
1713.138,784.94507,
1710.228,757.38639,
1707.317,800.50728,
1704.407,813.81218,
1701.496,790.01321,
1698.586,794.09289,
1695.675,816.1463,
1692.764,834.66599,
1689.854,834.66831,
1686.943,825.92853,
1684.033,871.4577,
1681.122,878.52305,
1678.211,839.99618,
1675.301,842.61575,
1672.390,870.63995,
1669.480,875.85764,
1666.569,904.87892,
1663.659,925.01698,
1660.748,950.14826,
1657.837,1026.8814,
1654.927,994.96046,
1652.016,1049.9203,
1649.106,1022.1146,
1646.195,1041.3852,
1643.285,1031.9668,
1640.374,1047.733,
1637.463,1100.0754,
1634.553,1125.8663,
1631.642,1208.2667,
1628.732,1175.8442,
1625.821,1212.6917,
1622.911,1314.0502,
1620.000,1379.7935,
1617.089,1469.814,
1614.179,1560.0587,
1611.268,1655.0559,
1608.358,1666.2504,
1605.447,1755.2543,
1602.536,1774.6033,
1599.626,1785.7443,
1596.715,1832.0051,
1593.805,1779.3878,
1590.894,1785.8351,
1587.984,1752.1152,
1585.073,1744.0725,
1582.162,1681.8434,
1579.252,1692.5374,
1576.341,1677.5984,
1573.431,1696.9034,
1570.520,1667.6993,
1567.610,1658.8603,
1564.699,1655.2748,
1561.788,1602.9213,
1558.878,1602.1079,
1555.967,1574.6278,
1553.057,1546.6941,
1550.146,1517.6578,
1547.235,1508.5283,
1544.325,1471.9067,
1541.414,1443.8653,
1538.504,1449.7078,
1535.593,1427.3055,
1532.683,1394.1935,
1529.772,1396.1124,
1526.861,1388.5086,
1523.951,1346.3252,
1521.040,1302.6728,
1518.130,1267.0378,
1515.219,1283.6651,
1512.309,1283.3322,
1509.398,1297.4102,
1506.487,1293.7275,
1503.577,1276.6573,
1500.666,1255.5277,
1497.756,1267.6501,
1494.845,1233.9863,
1491.934,1290.4392,
1489.024,1233.6521,
1486.113,1213.0807,
1483.203,1231.1647,
1480.292,1202.2301,
1477.382,1152.1713,
1474.471,1206.8522,
1471.560,1175.8284,
1468.650,1179.8563,
1465.739,1169.4888,
1462.829,1118.2351,
1459.918,1121.4595,
1457.008,1139.0249,
1454.097,1148.3384,
1451.186,1164.5457,
1448.276,1166.4216,
1445.365,1163.0515,
1442.455,1160.2172,
1439.544,1203.4914,
1436.633,1161.9656,
1433.723,1192.8863,
1430.812,1163.9652,
1427.902,1131.527,
1424.991,1169.4375,
1422.081,1109.154,
1419.170,1173.6139,
1416.259,1131.1608,
1413.349,1139.7717,
1410.438,1127.0312,
1407.528,1153.3871,
1404.617,1108.628,
1401.707,1111.3196,
1398.796,1153.625,
1395.885,1143.2903,
1392.975,1143.1464,
1390.064,1176.6884,
1387.154,1191.9894,
1384.243,1188.3495,
1381.332,1192.641,
1378.422,1160.2386,
1375.511,1152.7443,
1372.601,1233.7232,
1369.690,1221.7661,
1366.780,1307.3329,
1363.869,1288.4893,
1360.958,1310.9175,
1358.048,1395.296,
1355.137,1406.5069,
1352.227,1403.6186,
1349.316,1448.8452,
1346.406,1467.3898,
1343.495,1467.1093,
1340.584,1488.6601,
1337.674,1522.5162,
1334.763,1498.4951,
1331.853,1547.6384,
1328.942,1543.3988,
1326.032,1533.6532,
1323.121,1548.6672,
1320.210,1575.9345,
1317.300,1588.9859,
1314.389,1613.2366,
1311.479,1645.9841,
1308.568,1684.6908,
1305.657,1735.4918,
1302.747,1745.5155,
1299.836,1714.5931,
1296.926,1783.0688,
1294.015,1878.6785,
1291.105,1869.4169,
1288.194,1965.0716,
1285.283,2016.1171,
1282.373,2047.5077,
1279.462,2095.8596,
1276.552,2141.8849,
1273.641,2150.3756,
1270.731,2134.2131,
1267.820,2124.6148,
1264.909,2081.0534,
1261.999,2071.3227,
1259.088,2117.8409,
1256.178,2135.1848,
1253.267,2066.2758,
1250.356,2017.5348,
1247.446,1974.7019,
1244.535,1921.4153,
1241.625,1850.677,
1238.714,1788.7091,
1235.804,1756.1834,
1232.893,1683.2552,
1229.982,1659.6863,
1227.072,1661.497,
1224.161,1626.3238,
1221.251,1572.7209,
1218.340,1554.0338,
1215.430,1546.0186,
1212.519,1541.9833,
1209.608,1528.0325,
1206.698,1510.3487,
1203.787,1536.4843,
1200.877,1508.9593,
1197.966,1514.3543,
1195.055,1587.1511,
1192.145,1610.8952,
1189.234,1651.6062,
1186.324,1696.7183,
1183.413,1730.4321,
1180.503,1754.7191,
1177.592,1751.8064,
1174.681,1688.9914,
1171.771,1683.842,
1168.860,1649.9046,
1165.950,1617.5986,
1163.039,1588.9745,
1160.129,1607.938,
1157.218,1629.5479,
1154.307,1621.6073,
1151.397,1591.5911,
1148.486,1549.2302,
1145.576,1518.9719,
1142.665,1526.9631,
1139.754,1537.3885,
1136.844,1548.7289,
1133.933,1516.2616,
1131.023,1492.5134,
1128.112,1482.4839,
1125.202,1456.7603,
1122.291,1447.1317,
1119.380,1464.4778,
1116.470,1449.4748,
1113.559,1480.8747,
1110.649,1483.4217,
1107.738,1494.6279,
1104.828,1491.8132,
1101.917,1474.0631,
1099.006,1488.8311,
1096.096,1506.3674,
1093.185,1469.4913,
1090.275,1515.9905,
1087.364,1488.516,
1084.453,1501.5605,
1081.543,1525.1868,
1078.632,1515.85,
1075.722,1497.3772,
1072.811,1498.8875,
1069.901,1474.4362,
1066.990,1502.5333,
1064.079,1519.1522,
1061.169,1546.8217,
1058.258,1559.2727,
1055.348,1561.5015,
1052.437,1582.0494,
1049.527,1555.5047,
1046.616,1604.1592,
1043.705,1604.2296,
1040.795,1627.5267,
1037.884,1621.9012,
1034.974,1615.6598,
1032.063,1639.0557,
1029.153,1643.2096,
1026.242,1639.7497,
1023.331,1661.2903,
1020.421,1652.3801,
1017.510,1656.1497,
1014.600,1672.9295,
1011.689,1696.7427,
1008.778,1723.7453,
1005.868,1718.8335,
1002.957,1742.0631,
1000.047,1803.137,
997.136,1865.1505,
994.226,1905.2248,
991.315,1923.5829,
988.404,1930.6794,
985.494,1919.9153,
982.583,1888.2228,
979.673,1884.3566,
976.762,1888.7347,
973.852,1886.7629,
970.941,1877.3648,
968.030,1871.7291,
965.120,1883.7825,
962.209,1921.2944,
959.299,1940.3735,
956.388,1914.267,
953.477,1909.3543,
950.567,1940.2392,
947.656,1942.8343,
944.746,1906.3034,
941.835,1902.1956,
938.925,1889.122,
936.014,1888.1891,
933.103,1895.7436,
930.193,1887.0403,
927.282,1836.6708,
924.372,1837.5164,
921.461,1813.3238,
918.551,1787.7779,
915.640,1765.0014,
912.729,1747.1364,
909.819,1738.181,
906.908,1742.3931,
903.998,1741.8296,
901.087,1760.7202,
898.176,1770.1934,
895.266,1783.8602,
892.355,1817.0962,
889.445,1819.614,
886.534,1879.7358,
883.624,1890.9522,
880.713,1908.4875,
877.802,1908.6028,
874.892,1855.8503,
871.981,1761.6719,
869.071,1678.9661,
866.160,1688.0836,
863.250,1762.5777,
860.339,1835.3019,
857.428,1860.2858,
854.518,1854.0954,
851.607,1835.7899,
848.697,1727.389,
845.786,1712.3199,
842.875,1735.634,
839.965,1735.1982,
837.054,1792.9041,
834.144,1817.7667,
831.233,1837.9572,
828.323,1820.4018,
825.412,1797.2007,
822.501,1799.0504,
819.591,1779.2169,
816.680,1742.5672,
813.770,1702.2999,
810.859,1694.906,
807.949,1702.8372,
805.038,1689.9148,
802.127,1708.8468,
799.217,1687.5179,
796.306,1689.2737,
793.396,1677.9378,
790.485,1650.9414,
787.574,1660.1543,
784.664,1674.0962,
781.753,1688.0317,
778.843,1692.1548,
775.932,1694.6373,
773.022,1702.2302,
770.111,1693.2369,
767.200,1702.5221,
764.290,1702.7356,
761.379,1705.3514,
758.469,1711.3694,
755.558,1706.3332,
752.648,1696.558,
749.737,1689.4027,
746.826,1686.625,
743.916,1682.9951,
741.005,1664.4545,
738.095,1583.2668,
735.184,1522.8558,
732.274,1465.8122,
729.363,1470.9553,
726.452,1561.5351,
723.542,1644.0932,
720.631,1648.625,
717.721,1655.4991,
714.810,1680.801,
711.899,1705.1596,
708.989,1668.848,
706.078,1687.8563,
703.168,1687.7672,
700.257,1674.7233,
697.347,1662.7987,
694.436,1670.1449,
691.525,1652.4612,
688.615,1634.789,
685.704,1635.6906,
682.794,1653.242,
679.883,1671.4087,
676.973,1666.6005,
674.062,1661.1584,
671.151,1655.5567,
668.241,1659.9637,
665.330,1686.0956,
662.420,1674.9133,
659.509,1688.4983,
656.598,1695.0285,
653.688,1685.4139,
650.777,1663.7339,
647.867,1637.4551,
644.956,1632.8633,
642.046,1612.4805,
639.135,1599.3937,
636.224,1662.5375,
633.314,1645.0708,
630.403,1683.7834,
627.493,1715.9294,
624.582,1711.8559,
621.672,1677.0081,
618.761,1713.622,
615.850,1728.9309,
612.940,1734.0157,
610.029,1736.3891,
607.119,1722.9654,
604.208,1769.1959,
601.297,1787.1294,
598.387,1777.5993,
595.476,1758.6649,
592.566,1769.6839,
589.655,1745.0615,
586.745,1733.2288,
583.834,1734.2096,
580.923,1725.5113,
578.013,1706.6777,
575.102,1678.6815,
572.192,1670.1998,
569.281,1687.5934,
566.371,1698.5501,
563.460,1710.9125,
560.549,1718.5487,
557.639,1726.1906,
554.728,1738.4772,
551.818,1736.1362,
548.907,1758.1733,
545.996,1764.4604,
543.086,1750.9539,
540.175,1747.8394,
537.265,1783.839,
534.354,1804.6487,
531.444,1813.8543,
528.533,1820.3424,
525.622,1830.4297,
522.712,1825.9507,
519.801,1839.9552,
516.891,1871.5031,
513.980,1880.7946,
511.070,1897.1206,
508.159,1926.0706,
505.248,1961.6409,
502.338,1995.2802,
499.427,2017.6633,
496.517,2051.9078,
493.606,2074.298,
490.695,2075.946,
487.785,2078.2553,
484.874,2113.5211,
481.964,2110.2,
479.053,2087.8179,
476.143,2126.216,
473.232,2092.6548,
470.321,2067.4337,
467.411,2034.0979,
464.500,1972.3898,
461.590,2042.0722,
458.679,2070.4297,
455.769,2076.9949,
452.858,2080.238,
449.947,2124.546,
447.037,2143.9399,
444.126,2153.2129,
441.216,2155.1115,
438.305,2140.6348,
435.395,2163.5392,
432.484,2189.1276,
429.573,2199.5249,
426.663,2169.1193,
423.752,2128.267,
420.842,1974.6192,
417.931,1803.8681,
415.020,1776.5672,
412.110,1899.2676,
409.199,2013.0846,
406.289,2111.6827,
403.378,2194.5482,
400.468,2171.8683,
397.557,2172.3372,
394.646,2180.433,
391.736,2184.122,
388.825,2230.8843,
385.915,2252.6079,
383.004,2255.3419,
380.094,2245.4312,
377.183,2261.2332,
374.272,2324.2453,
371.362,2375.391,
368.451,2379.4426,
365.541,2376.4405,
362.630,2387.0961,
359.719,2396.0331,
356.809,2395.5312,
353.898,2410.5071,
350.988,2438.4944,
348.077,2447.2991,
345.167,2420.7602,
342.256,2443.1723,
339.345,2406.579,
336.435,2397.217,
333.524,2469.9339,
330.614,2416.2827,
327.703,2401.1652,
324.793,2406.2341,
321.882,2416.6538,
318.971,2428.5489,
316.061,2442.3913,
313.150,2457.475,
310.240,2473.0594,
307.329,2447.8981,
304.418,2460.4227,
301.508,2482.505,
298.597,2463.2541,
295.687,2499.5505,
292.776,2521.7917,
289.866,2543.1941,
286.955,2617.0666,
284.044,2653.5575,
281.134,2713.8001,
278.223,2795.1518,
275.313,2826.0997,
272.402,2819.8451,
269.492,2822.9823,
266.581,2847.8383,
263.670,2822.8421,
260.760,2864.2066,
257.849,2924.0226,
254.939,2968.0556,
252.028,3011.3318,
249.117,2991.9925,
246.207,2963.2626,
243.296,3015.9692,
240.386,3039.9088,
237.475,3015.8165,
234.565,2962.6603,
231.654,2969.2338,
228.743,2937.2537,
225.833,2900.1242,
222.922,2872.1346,
220.012,2883.0629,
217.101,2874.3571,
214.191,2866.4333,
211.280,2882.4375,
208.369,2863.4406,
205.459,2834.8602,
202.548,2819.0345,
199.638,2890.8738,
196.727,2883.7288,
193.816,2879.6659,
190.906,2906.4314,
187.995,2872.4023,
185.085,2882.3764,
182.174,2917.7904,
179.264,2958.988,
176.353,2965.5473,
173.442,2950.6725,
170.532,2926.5733,
167.621,2960.4592,
164.711,2888.6876,
161.800,2762.0483,
158.890,2605.1477,
155.979,2468.8992,
153.068,2276.0312,
150.158,2031.1096,
147.247,1751.8262,
144.337,1440.3602,
141.426,1130.758,
138.516,838.9833,
135.605,609.79137,
132.694,423.38566,
129.784,277.53135,
126.873,179.55856,
123.963,120.35916,
121.052,79.293431,
118.141,50.737351,
115.231,45.651008,
112.320,42.354092,
109.410,39.125092,
106.499,31.291385,
103.589,23.462201,
100.678,17.810135,
97.767,15.677322,
94.857,12.853044,
91.946,11.625,
89.036,11.06051,
86.125,7.5144841,
83.215,7.6868407,
80.304,8.625,
77.393,8.625,
74.483,13.210945,
71.572,14.537944,
68.662,12.763535,
65.751,14.176437,
62.840,14.143298,
59.930,11.939424,
57.019,5.5936863,
54.109,9.4022868,
51.198,11.116954,
48.288,7.5513883,
45.377,-1.5925266,
42.466,2.0449481,
39.556,11.704051,
36.645,6.0865297,
33.735,7.2212423,
30.824,8.2996782,
27.914,4.0926267,
25.003,8.6060998,
22.092,12.270809,
19.182,14.174189,
16.271,30.961952,
13.361,142.14658,
10.450,337.54698,
7.539,639.21921,
4.629,798.68802,
1.718,714.04839,
-1.192,190.49284,
-4.103,39.766611,
-7.013,-10.118687,
-9.924,-0.375,
