,PL3AE0~1,
Wavenumbers [1/cm],Intensity,
3014.167,-2,
3011.256,-1.5500107,
3008.346,138.35008,
3005.435,161.96467,
3002.525,159.56488,
2999.614,173.32729,
2996.704,189.45154,
2993.793,202.52304,
2990.882,201.38159,
2987.972,203.08072,
2985.061,222.10345,
2982.151,210.14789,
2979.240,232.40306,
2976.329,232.53003,
2973.419,242.55379,
2970.508,253.01662,
2967.598,246.38233,
2964.687,258.77581,
2961.777,259.47004,
2958.866,270.00148,
2955.955,271.79424,
2953.045,292.34899,
2950.134,292.8834,
2947.224,290.34163,
2944.313,312.78633,
2941.403,330.34535,
2938.492,325.03254,
2935.581,330.1399,
2932.671,329.03861,
2929.760,325.2077,
2926.850,326.10451,
2923.939,335.35981,
2921.028,339.08238,
2918.118,337.01889,
2915.207,334.47476,
2912.297,361.90268,
2909.386,361.97081,
2906.476,351.61236,
2903.565,343.11035,
2900.654,368.48334,
2897.744,360.86171,
2894.833,341.34037,
2891.923,345.21801,
2889.012,334.16763,
2886.102,327.97973,
2883.191,324.00189,
2880.280,267.34448,
2877.370,203.89546,
2874.459,169.25135,
2871.549,200.89558,
2868.638,342.73601,
2865.727,349.63841,
2862.817,361.07086,
2859.906,385.97436,
2856.996,378.49774,
2854.085,385.16178,
2851.175,367.71683,
2848.264,393.20116,
2845.353,370.40977,
2842.443,394.98956,
2839.532,386.14936,
2836.622,375.24154,
2833.711,377.83674,
2830.801,395.69044,
2827.890,389.27098,
2824.979,396.41996,
2822.069,407.11372,
2819.158,410.91913,
2816.248,391.28763,
2813.337,414.93782,
2810.427,396.25757,
2807.516,412.94234,
2804.605,409.02164,
2801.695,414.13158,
2798.784,408.51746,
2795.874,407.01585,
2792.963,396.50011,
2790.052,406.99828,
2787.142,398.60515,
2784.231,405.45029,
2781.321,397.88004,
2778.410,408.92513,
2775.500,408.29759,
2772.589,400.57722,
2769.678,401.28671,
2766.768,415.66799,
2763.857,417.158,
2760.947,412.96848,
2758.036,429.17847,
2755.126,426.6624,
2752.215,422.57708,
2749.304,420.33992,
2746.394,443.45971,
2743.483,436.74999,
2740.573,456.74344,
2737.662,424.36094,
2734.751,440.20878,
2731.841,448.7033,
2728.930,435.71202,
2726.020,435.1331,
2723.109,440.47442,
2720.199,454.05942,
2717.288,444.28102,
2714.377,428.06688,
2711.467,449.95055,
2708.556,468.77642,
2705.646,477.53522,
2702.735,469.68042,
2699.825,478.59816,
2696.914,480.47637,
2694.003,459.82601,
2691.093,474.53551,
2688.182,466.70889,
2685.272,463.71693,
2682.361,465.30022,
2679.450,463.49379,
2676.540,472.02032,
2673.629,470.01347,
2670.719,480.05824,
2667.808,487.09727,
2664.898,497.03891,
2661.987,500,
2659.076,493.01725,
2656.166,494.30731,
2653.255,496.81802,
2650.345,517.79311,
2647.434,501.25722,
2644.524,501.29735,
2641.613,495.62854,
2638.702,509.76328,
2635.792,525.0319,
2632.881,515.9584,
2629.971,522.59737,
2627.060,517.49969,
2624.149,521.8375,
2621.239,517.23666,
2618.328,521.08477,
2615.418,523.66364,
2612.507,528.72331,
2609.597,527.36727,
2606.686,521.11648,
2603.775,537.36111,
2600.865,537.94197,
2597.954,552.89798,
2595.044,540.25067,
2592.133,563.89177,
2589.223,552.73472,
2586.312,568.60807,
2583.401,555.65328,
2580.491,559.08172,
2577.580,561.03631,
2574.670,579.67915,
2571.759,560.54025,
2568.848,564.34813,
2565.938,565.04755,
2563.027,564.75461,
2560.117,556.53273,
2557.206,547.53506,
2554.296,559.20824,
2551.385,587.42993,
2548.474,595.18551,
2545.564,595.22159,
2542.653,569.23154,
2539.743,583.82748,
2536.832,596.48972,
2533.922,594.98423,
2531.011,594.54995,
2528.100,601.33103,
2525.190,591.76967,
2522.279,577.21935,
2519.369,602.60374,
2516.458,616.78683,
2513.548,605.96393,
2510.637,613.35262,
2507.726,633.06319,
2504.816,633.81285,
2501.905,605.97134,
2498.995,614.43325,
2496.084,636.69338,
2493.173,636,
2490.263,632.01129,
2487.352,638,
2484.442,643.12632,
2481.531,649.68091,
2478.621,634.7867,
2475.710,656.04601,
2472.799,662.98654,
2469.889,660.66758,
2466.978,655.72164,
2464.068,673.23816,
2461.157,658.54484,
2458.247,677.04401,
2455.336,676.21136,
2452.425,671.30188,
2449.515,692.10396,
2446.604,694.00695,
2443.694,689.39558,
2440.783,696.42905,
2437.872,674.09395,
2434.962,696.43319,
2432.051,681.90131,
2429.141,688.84702,
2426.230,711.5006,
2423.320,701.14245,
2420.409,720.26919,
2417.498,719.81179,
2414.588,708.82513,
2411.677,724.96414,
2408.767,723.24114,
2405.856,731.31899,
2402.946,735.47006,
2400.035,725.70657,
2397.124,752.90908,
2394.214,762.16081,
2391.303,732.31504,
2388.393,725.95816,
2385.482,720.39656,
2382.571,739.69655,
2379.661,736.55799,
2376.750,755.0517,
2373.840,759.56874,
2370.929,784.72926,
2368.019,792.87994,
2365.108,783.60471,
2362.197,784.79179,
2359.287,786.79833,
2356.376,775.02113,
2353.466,789.22777,
2350.555,787.5302,
2347.645,808.4331,
2344.734,812.27188,
2341.823,797.23217,
2338.913,805.37465,
2336.002,815.80866,
2333.092,812.63208,
2330.181,836.61631,
2327.270,830.71507,
2324.360,823.4033,
2321.449,826.96939,
2318.539,832.06423,
2315.628,837.09233,
2312.718,820.33479,
2309.807,859.70205,
2306.896,846.0313,
2303.986,853.64931,
2301.075,827.02135,
2298.165,839.53894,
2295.254,859.6984,
2292.344,862.04555,
2289.433,869.85317,
2286.522,861.26315,
2283.612,871.05865,
2280.701,875.11657,
2277.791,877.84157,
2274.880,902.92191,
2271.969,919.45267,
2269.059,910.85558,
2266.148,915.48414,
2263.238,930.69497,
2260.327,923.37923,
2257.417,920.93055,
2254.506,935.9544,
2251.595,933.42543,
2248.685,930.84425,
2245.774,930.80217,
2242.864,957.4813,
2239.953,954.55164,
2237.043,966.10358,
2234.132,942.92995,
2231.221,953.16033,
2228.311,956.91109,
2225.400,944.02815,
2222.490,947.97075,
2219.579,967.15427,
2216.669,989.94754,
2213.758,1002.9569,
2210.847,968.53405,
2207.937,1044.4168,
2205.026,994.99883,
2202.116,1030.6709,
2199.205,1036.8753,
2196.294,1030.438,
2193.384,1025.0265,
2190.473,1060.7512,
2187.563,1055.9758,
2184.652,1061.3922,
2181.742,1118.818,
2178.831,1123.4747,
2175.920,1155.1494,
2173.010,1189.1264,
2170.099,1229.7961,
2167.189,1265.9354,
2164.278,1274.0211,
2161.368,1379.285,
2158.457,1426.3484,
2155.546,1483.575,
2152.636,1537.5052,
2149.725,1605.9328,
2146.815,1668.1981,
2143.904,1680.7174,
2140.993,1729.5184,
2138.083,1756.8358,
2135.172,1761.5462,
2132.262,1766.0141,
2129.351,1762.9379,
2126.441,1725.5436,
2123.530,1669.2817,
2120.619,1603.1102,
2117.709,1578.6715,
2114.798,1527.2035,
2111.888,1433.5143,
2108.977,1377.1987,
2106.067,1309.3633,
2103.156,1296.279,
2100.245,1227.005,
2097.335,1230.0628,
2094.424,1192.0852,
2091.514,1173.4864,
2088.603,1150.0507,
2085.692,1161.4126,
2082.782,1174.2409,
2079.871,1167.7853,
2076.961,1181.9022,
2074.050,1156.2121,
2071.140,1178.0691,
2068.229,1170.1771,
2065.318,1182.5068,
2062.408,1164.4388,
2059.497,1162.0536,
2056.587,1170.7792,
2053.676,1144.1347,
2050.766,1171.3057,
2047.855,1119.5443,
2044.944,1106.6602,
2042.034,1126.844,
2039.123,1133.9596,
2036.213,1138.4023,
2033.302,1156.6086,
2030.391,1175.881,
2027.481,1168.1221,
2024.570,1174.7997,
2021.660,1162.8869,
2018.749,1196.114,
2015.839,1191.0636,
2012.928,1142.0688,
2010.017,1154.8437,
2007.107,1165.7439,
2004.196,1175.2619,
2001.286,1177.5407,
1998.375,1158.0827,
1995.465,1177.958,
1992.554,1136.7945,
1989.643,1155.1013,
1986.733,1154.6254,
1983.822,1149.4106,
1980.912,1150.94,
1978.001,1129.8219,
1975.090,1130.4214,
1972.180,1127.3098,
1969.269,1130.7356,
1966.359,1143.9191,
1963.448,1189.9868,
1960.538,1194.2619,
1957.627,1156.3343,
1954.716,1197.6498,
1951.806,1150.1858,
1948.895,1190.4697,
1945.985,1177.3448,
1943.074,1172.0479,
1940.164,1175.7498,
1937.253,1155.5566,
1934.342,1152.0086,
1931.432,1140.877,
1928.521,1137.1952,
1925.611,1116.9353,
1922.700,1119.0801,
1919.790,1139.2252,
1916.879,1169.9075,
1913.968,1171.0012,
1911.058,1154.5285,
1908.147,1160.9372,
1905.237,1151.8162,
1902.326,1139.3082,
1899.415,1135.889,
1896.505,1140.2107,
1893.594,1111.3719,
1890.684,1141.9866,
1887.773,1161.1644,
1884.863,1146.1891,
1881.952,1159.8574,
1879.041,1211.1459,
1876.131,1178.766,
1873.220,1121.8007,
1870.310,1228.2464,
1867.399,1209.4478,
1864.489,1162.4409,
1861.578,1195.2914,
1858.667,1173.4012,
1855.757,1186.2458,
1852.846,1144.8,
1849.936,1196.3703,
1847.025,1248.7056,
1844.114,1239.9411,
1841.204,1223.1958,
1838.293,1223.4958,
1835.383,1205.7795,
1832.472,1227.5478,
1829.562,1257.194,
1826.651,1267.2053,
1823.740,1260.0804,
1820.830,1247.5117,
1817.919,1261.2875,
1815.009,1274.4186,
1812.098,1263.4331,
1809.188,1316.403,
1806.277,1317.0664,
1803.366,1308.8336,
1800.456,1297.736,
1797.545,1277.5673,
1794.635,1297.2571,
1791.724,1319.7282,
1788.813,1299.2144,
1785.903,1331.5718,
1782.992,1284.8301,
1780.082,1257.4558,
1777.171,1219.6595,
1774.261,1186.0649,
1771.350,1230.988,
1768.439,1316.2976,
1765.529,1329.9121,
1762.618,1345.135,
1759.708,1370.1199,
1756.797,1375.947,
1753.887,1408.9009,
1750.976,1415.9791,
1748.065,1415.1198,
1745.155,1420.0581,
1742.244,1387.1903,
1739.334,1371.6306,
1736.423,1386.5439,
1733.512,1417.7399,
1730.602,1395.5833,
1727.691,1431.8273,
1724.781,1463.3047,
1721.870,1453.5142,
1718.960,1462.3335,
1716.049,1483.4574,
1713.138,1476.7401,
1710.228,1508.0713,
1707.317,1532.4606,
1704.407,1542.1872,
1701.496,1488.3071,
1698.586,1480.228,
1695.675,1523.9783,
1692.764,1567.709,
1689.854,1552.7795,
1686.943,1554.8988,
1684.033,1613.5098,
1681.122,1567.8156,
1678.211,1638.3147,
1675.301,1614.0771,
1672.390,1652.9492,
1669.480,1636.6658,
1666.569,1719.6729,
1663.659,1772.0327,
1660.748,1775.0991,
1657.837,1831.1968,
1654.927,1840.4686,
1652.016,1861.2636,
1649.106,1912.2693,
1646.195,1922.5444,
1643.285,1904.9798,
1640.374,1948.1498,
1637.463,2002.9368,
1634.553,2055.1675,
1631.642,2133.9446,
1628.732,2220.1955,
1625.821,2253.0765,
1622.911,2369.3407,
1620.000,2509.2236,
1617.089,2607.0497,
1614.179,2778.093,
1611.268,2981.3413,
1608.358,3084.3177,
1605.447,3202.1438,
1602.536,3280.7553,
1599.626,3316.3578,
1596.715,3299.0328,
1593.805,3212.0385,
1590.894,3173.8186,
1587.984,3150.0799,
1585.073,3124.0279,
1582.162,3076.5859,
1579.252,3081.0928,
1576.341,3060.7692,
1573.431,3013.4918,
1570.520,2986.7125,
1567.610,2977.5293,
1564.699,2982.5253,
1561.788,2890.6347,
1558.878,2885.1382,
1555.967,2879.1981,
1553.057,2822.0694,
1550.146,2776.3346,
1547.235,2745.1096,
1544.325,2675.4468,
1541.414,2661.7031,
1538.504,2642.2992,
1535.593,2583.4449,
1532.683,2566,
1529.772,2551.769,
1526.861,2486.7322,
1523.951,2419.8636,
1521.040,2420.2594,
1518.130,2406.8987,
1515.219,2391.2398,
1512.309,2390.5585,
1509.398,2364.7701,
1506.487,2340.7324,
1503.577,2330.5914,
1500.666,2301.3065,
1497.756,2272.0763,
1494.845,2275.5614,
1491.934,2336.8709,
1489.024,2297.4087,
1486.113,2235.731,
1483.203,2217.6775,
1480.292,2151.5131,
1477.382,2160.2062,
1474.471,2186.4866,
1471.560,2124.7874,
1468.650,2114.7153,
1465.739,2104.7068,
1462.829,2099.7745,
1459.918,2075.9279,
1457.008,2075.3233,
1454.097,2090.4541,
1451.186,2104.793,
1448.276,2127.3586,
1445.365,2121.7867,
1442.455,2137.8265,
1439.544,2132.296,
1436.633,2080.2721,
1433.723,2091,
1430.812,2086.4932,
1427.902,2031.5559,
1424.991,2096.9515,
1422.081,2043.0339,
1419.170,2061.3296,
1416.259,2009.1056,
1413.349,2001.2867,
1410.438,2002.3002,
1407.528,2025.8184,
1404.617,2026.0832,
1401.707,2024.4192,
1398.796,2057.4335,
1395.885,2037.3933,
1392.975,2015.877,
1390.064,2103.5285,
1387.154,2101.1683,
1384.243,2110.8632,
1381.332,2129.5934,
1378.422,2056.85,
1375.511,2112.1201,
1372.601,2223.5884,
1369.690,2293.0056,
1366.780,2329.1372,
1363.869,2331.6411,
1360.958,2364.9915,
1358.048,2443.5178,
1355.137,2513.3869,
1352.227,2553.6406,
1349.316,2613.7712,
1346.406,2676.2103,
1343.495,2675.2178,
1340.584,2715.4991,
1337.674,2773.7504,
1334.763,2782.1877,
1331.853,2839.676,
1328.942,2874.9102,
1326.032,2870.8438,
1323.121,2905.3073,
1320.210,2963.9485,
1317.300,2998.2144,
1314.389,3049.6814,
1311.479,3100.6116,
1308.568,3149.2783,
1305.657,3222.4287,
1302.747,3245.8197,
1299.836,3269.7078,
1296.926,3392.5465,
1294.015,3468.8504,
1291.105,3522.1909,
1288.194,3648.0127,
1285.283,3728.8362,
1282.373,3821.7732,
1279.462,3894.1955,
1276.552,3937.5828,
1273.641,3997.3402,
1270.731,4042.3582,
1267.820,3995.4297,
1264.909,3980.176,
1261.999,3995.767,
1259.088,3989.3821,
1256.178,3964.1628,
1253.267,3898.6244,
1250.356,3781.1209,
1247.446,3695.8627,
1244.535,3618.951,
1241.625,3533.6853,
1238.714,3454.6661,
1235.804,3364.6944,
1232.893,3265.1279,
1229.982,3249.8842,
1227.072,3187.4177,
1224.161,3147.6988,
1221.251,3127.5988,
1218.340,3073.1185,
1215.430,3050.9548,
1212.519,3040.0589,
1209.608,3012.0775,
1206.698,2998.5959,
1203.787,3010.598,
1200.877,3007.2348,
1197.966,3075.5709,
1195.055,3096.9182,
1192.145,3187.9072,
1189.234,3300.6942,
1186.324,3371.6388,
1183.413,3395.2081,
1180.503,3396.3137,
1177.592,3385.1008,
1174.681,3352.6644,
1171.771,3307.5988,
1168.860,3246.8688,
1165.950,3211.1673,
1163.039,3220.0633,
1160.129,3184.5304,
1157.218,3159.8074,
1154.307,3150.53,
1151.397,3124.1752,
1148.486,3119,
1145.576,3119,
1142.665,3119,
1139.754,3050.6552,
1136.844,3027.2967,
1133.933,3008.7508,
1131.023,3001.3047,
1128.112,2993.216,
1125.202,2964.7536,
1122.291,2951.0243,
1119.380,3013.8354,
1116.470,2997.0674,
1113.559,3000.4127,
1110.649,3013.1324,
1107.738,3056.5073,
1104.828,3071.5238,
1101.917,3052.9174,
1099.006,3061.9177,
1096.096,3038.1613,
1093.185,3040.7953,
1090.275,3053.9483,
1087.364,3067.2918,
1084.453,3069.7501,
1081.543,3077.2026,
1078.632,3065.4954,
1075.722,3017.5732,
1072.811,3034.9236,
1069.901,3061.9947,
1066.990,3044.6,
1064.079,3086.2749,
1061.169,3143.3473,
1058.258,3188.5159,
1055.348,3196.596,
1052.437,3168.7235,
1049.527,3204.2755,
1046.616,3237.291,
1043.705,3261.8107,
1040.795,3313.3338,
1037.884,3311.1844,
1034.974,3305.9729,
1032.063,3338.2309,
1029.153,3324.7657,
1026.242,3339.4699,
1023.331,3360.832,
1020.421,3369.1826,
1017.510,3429.829,
1014.600,3440.8968,
1011.689,3417.8011,
1008.778,3483.5187,
1005.868,3504.834,
1002.957,3597.7523,
1000.047,3693.536,
997.136,3795.0664,
994.226,3861.5074,
991.315,3885.349,
988.404,3876.9491,
985.494,3793.3862,
982.583,3765.9764,
979.673,3780.2912,
976.762,3778.7806,
973.852,3779.1881,
970.941,3782.5543,
968.030,3773.052,
965.120,3779.1181,
962.209,3807.252,
959.299,3831.1227,
956.388,3798.1226,
953.477,3792.3058,
950.567,3816.9288,
947.656,3788.0216,
944.746,3849.1896,
941.835,3838.2332,
938.925,3837.6322,
936.014,3877.4428,
933.103,3896.6391,
930.193,3853.8112,
927.282,3815.8085,
924.372,3793.8227,
921.461,3724.724,
918.551,3674.858,
915.640,3639.0023,
912.729,3614.1215,
909.819,3608.6664,
906.908,3606.1391,
903.998,3658.494,
901.087,3654.1778,
898.176,3623.0034,
895.266,3619.6787,
892.355,3669.853,
889.445,3711.8163,
886.534,3789.6431,
883.624,3807.0185,
880.713,3818.2071,
877.802,3820.3574,
874.892,3800.4846,
871.981,3772.4292,
869.071,3621.2195,
866.160,3621.2185,
863.250,3698.0011,
860.339,3784.922,
857.428,3823.7128,
854.518,3775.4704,
851.607,3757.1649,
848.697,3669.3985,
845.786,3620.1017,
842.875,3610.6991,
839.965,3641.8164,
837.054,3777.8698,
834.144,3766.2672,
831.233,3761.3335,
828.323,3756.0434,
825.412,3744.5949,
822.501,3724.8297,
819.591,3701.6905,
816.680,3631.2883,
813.770,3582.6749,
810.859,3575.7323,
807.949,3572.6365,
805.038,3526.5022,
802.127,3522.3866,
799.217,3512.3099,
796.306,3498.2161,
793.396,3486.4961,
790.485,3482.0529,
787.574,3486.2802,
784.664,3493.6612,
781.753,3497.6839,
778.843,3529.3851,
775.932,3561,
773.022,3565.3111,
770.111,3593.1088,
767.200,3630.7817,
764.290,3615.9955,
761.379,3587.5472,
758.469,3569.4425,
755.558,3555.5137,
752.648,3539.2217,
749.737,3536,
746.826,3531.3378,
743.916,3523.2078,
741.005,3507.0129,
738.095,3427.449,
735.184,3312.8862,
732.274,3277.3108,
729.363,3315.2781,
726.452,3392.8869,
723.542,3469.7792,
720.631,3511.4624,
717.721,3547.0595,
714.810,3549.0115,
711.899,3535.9802,
708.989,3591.6581,
706.078,3552.7362,
703.168,3532.07,
700.257,3501.896,
697.347,3465.9568,
694.436,3455.2182,
691.525,3463.2563,
688.615,3441.7303,
685.704,3455.1967,
682.794,3498.2552,
679.883,3518.6119,
676.973,3443.2831,
674.062,3507.1222,
671.151,3516.4953,
668.241,3483.1507,
665.330,3523.7774,
662.420,3561.3177,
659.509,3548.6822,
656.598,3533.538,
653.688,3526.6996,
650.777,3518.3249,
647.867,3498.4167,
644.956,3467.3765,
642.046,3457.6336,
639.135,3467,
636.224,3467.2467,
633.314,3516.4709,
630.403,3578.6617,
627.493,3616.8407,
624.582,3622.2937,
621.672,3619.1257,
618.761,3606.081,
615.850,3635.0593,
612.940,3692.055,
610.029,3738.8206,
607.119,3671.702,
604.208,3701.2107,
601.297,3716.997,
598.387,3721.153,
595.476,3731.8226,
592.566,3761.7312,
589.655,3716.4646,
586.745,3684.6603,
583.834,3673.5104,
580.923,3653.8484,
578.013,3628.7369,
575.102,3611.6754,
572.192,3627.5808,
569.281,3661.9858,
566.371,3617.3763,
563.460,3678.6085,
560.549,3709.411,
557.639,3716.7599,
554.728,3725.2755,
551.818,3697.9644,
548.907,3741.3625,
545.996,3760.1699,
543.086,3742.0132,
540.175,3751.3569,
537.265,3736.7901,
534.354,3734.5118,
531.444,3741.3439,
528.533,3754.6353,
525.622,3819.8149,
522.712,3840.6743,
519.801,3852.2557,
516.891,3878.3985,
513.980,3949.6337,
511.070,3974.313,
508.159,4013.5194,
505.248,4050.754,
502.338,4062.5018,
499.427,4182.1357,
496.517,4207.7778,
493.606,4221.5071,
490.695,4256.0743,
487.785,4242.218,
484.874,4234.184,
481.964,4259.6542,
479.053,4291.5425,
476.143,4256.2162,
473.232,4252.5612,
470.321,4228.1578,
467.411,4194.3892,
464.500,4169.1551,
461.590,4175.2811,
458.679,4180.3018,
455.769,4194.3423,
452.858,4228.4647,
449.947,4319.3725,
447.037,4353.7758,
444.126,4363.6303,
441.216,4371.0696,
438.305,4417.5474,
435.395,4419.4105,
432.484,4445.3391,
429.573,4469.7348,
426.663,4404.3627,
423.752,4386.4465,
420.842,4219.3332,
417.931,4043.3756,
415.020,4101.0108,
412.110,4195.9149,
409.199,4348.8263,
406.289,4488.0047,
403.378,4533.9308,
400.468,4513.519,
397.557,4504.9434,
394.646,4519.6994,
391.736,4566.0141,
388.825,4597.6918,
385.915,4577.7293,
383.004,4570.5603,
380.094,4617.2303,
377.183,4621.7452,
374.272,4716.901,
371.362,4803.6525,
368.451,4821.6809,
365.541,4816.4271,
362.630,4828.656,
359.719,4851.2468,
356.809,4877.5469,
353.898,4870.0589,
350.988,4876.1373,
348.077,4891.1314,
345.167,4910.6216,
342.256,4903.1509,
339.345,4868.0512,
336.435,4829.2843,
333.524,4804.4463,
330.614,4818.6042,
327.703,4850.2105,
324.793,4878.0623,
321.882,4884.0018,
318.971,4884.7452,
316.061,4913.8105,
313.150,4938.4572,
310.240,4920.6464,
307.329,4940.0098,
304.418,4953.4714,
301.508,4973.3908,
298.597,5023.7392,
295.687,5010.3917,
292.776,5075.3337,
289.866,5182.9821,
286.955,5206.6213,
284.044,5299.1824,
281.134,5398.7671,
278.223,5489.9158,
275.313,5557.7065,
272.402,5614.4059,
269.492,5649.1191,
266.581,5658.2102,
263.670,5661.1509,
260.760,5720.5069,
257.849,5779.1325,
254.939,5793.8102,
252.028,5864.9368,
249.117,5873.2701,
246.207,5850.0529,
243.296,5846.3928,
240.386,5842.082,
237.475,5830.0111,
234.565,5805.1424,
231.654,5748.9028,
228.743,5698.4503,
225.833,5649.5719,
222.922,5601.675,
220.012,5573.2614,
217.101,5557.13,
214.191,5546.0659,
211.280,5532.9716,
208.369,5508.4515,
205.459,5481.03,
202.548,5468.0307,
199.638,5531.8878,
196.727,5539.8141,
193.816,5554.3624,
190.906,5596.4921,
187.995,5582.0116,
185.085,5577,
182.174,5579.1547,
179.264,5587.1051,
176.353,5625.1652,
173.442,5623.1589,
170.532,5583,
167.621,5583,
164.711,5426.9064,
161.800,5219.6436,
158.890,5025.3171,
155.979,4640.7779,
153.068,4249.6488,
150.158,3834.6565,
147.247,3291.8846,
144.337,2713.1781,
141.426,2141.6581,
138.516,1598.2545,
135.605,1144.5804,
132.694,777.33565,
129.784,496.24811,
126.873,328.1926,
123.963,226.28065,
121.052,152.90344,
118.141,97.219085,
115.231,90.604867,
112.320,85.034549,
109.410,77.182053,
106.499,57.241706,
103.589,49.078219,
100.678,43.283783,
97.767,36.174407,
94.857,33.228044,
91.946,29.984446,
89.036,26.209715,
86.125,21.245278,
83.215,19.46908,
80.304,18.760567,
77.393,18.052397,
74.483,21.275675,
71.572,23,
68.662,22.653663,
65.751,19.121407,
62.840,17.036596,
59.930,15.625428,
57.019,14.215264,
54.109,13.402839,
51.198,14.508046,
48.288,17.932051,
45.377,9.4915139,
42.466,12.18329,
39.556,19.158103,
36.645,7.9230593,
33.735,11.230982,
30.824,15.232904,
27.914,9.6235023,
25.003,7.754725,
22.092,7.3229046,
19.182,8.1144143,
16.271,11.611865,
13.361,74.532865,
10.450,159,
7.539,159,
4.629,-51.66059,
1.718,-361.04014,
-1.192,-726.34388,
-4.103,-523.85551,
-7.013,-251.42379,
-9.924,4,
