,Pliquid_AuCOFNPs-citrate13new_1E-1mgmL_100uL_CTR_1E-4mgL_16h_785nm_133mW_3s_1acc_2_RamanShift__0__00,
Raman shift [1/cm],Intensity,
3014.167,4.125,
3011.256,-0.42501074,
3008.346,28.894049,
3005.435,42.85645,
3002.525,38.99245,
2999.614,29.115936,
2996.704,41.717785,
2993.793,34.134216,
2990.882,38.987532,
2987.972,43.109865,
2985.061,33.918095,
2982.151,42.857787,
2979.240,37.189626,
2976.329,56.390016,
2973.419,47.46364,
2970.508,43.82498,
2967.598,44.794077,
2964.687,58.125,
2961.777,49.065079,
2958.866,50.133908,
2955.955,52.543123,
2953.045,54.20777,
2950.134,59.827645,
2947.224,50.637439,
2944.313,56.439814,
2941.403,50.815692,
2938.492,62.816046,
2935.581,50.012121,
2932.671,64.884654,
2929.760,42.809584,
2926.850,54.505073,
2923.939,59.64839,
2921.028,67.3899,
2918.118,61.006615,
2915.207,69.416081,
2912.297,51.18847,
2909.386,57.110406,
2906.476,56.768251,
2903.565,67.753888,
2900.654,68.901544,
2897.744,67.036995,
2894.833,63.836271,
2891.923,56.961495,
2889.012,70.46026,
2886.102,64.125,
2883.191,56.132552,
2880.280,56.416862,
2877.370,54.619169,
2874.459,33.112591,
2871.549,63.953982,
2868.638,56.578616,
2865.727,66.890367,
2862.817,69.024737,
2859.906,55.176276,
2856.996,69.134057,
2854.085,70.646015,
2851.175,66.028633,
2848.264,59.482834,
2845.353,69.254402,
2842.443,75.125,
2839.532,75.125,
2836.622,85.152996,
2833.711,70.443676,
2830.801,67.125,
2827.890,67.041079,
2824.979,69.260965,
2822.069,79.943046,
2819.158,68.305597,
2816.248,69.895264,
2813.337,85.351828,
2810.427,85.213156,
2807.516,73.866095,
2804.605,75.694708,
2801.695,71.256581,
2798.784,65.642462,
2795.874,63.834756,
2792.963,80.339577,
2790.052,67.12929,
2787.142,76.835539,
2784.231,75.996121,
2781.321,73.622118,
2778.410,69.859765,
2775.500,73.593276,
2772.589,70.355886,
2769.678,79.551585,
2766.768,84.066742,
2763.857,75.968933,
2760.947,85.590327,
2758.036,84.360694,
2755.126,62.394242,
2752.215,93.361206,
2749.304,81.252699,
2746.394,83.665294,
2743.483,89.825014,
2740.573,93.335204,
2737.662,79.145704,
2734.751,89.217292,
2731.841,91.47665,
2728.930,82.349571,
2726.020,88.686343,
2723.109,84.259168,
2720.199,87.065576,
2717.288,90.862224,
2714.377,80.287619,
2711.467,91.878851,
2708.556,92.699738,
2705.646,89.040508,
2702.735,89.622421,
2699.825,86.146814,
2696.914,89.982279,
2694.003,95.152639,
2691.093,94.088909,
2688.182,77.251666,
2685.272,92.682609,
2682.361,95.578056,
2679.450,85.878103,
2676.540,93.759167,
2673.629,80.107041,
2670.719,89.409659,
2667.808,98.68728,
2664.898,95.384727,
2661.987,96.125,
2659.076,94.379312,
2656.166,107.17266,
2653.255,95.237244,
2650.345,99.181262,
2647.434,96.010395,
2644.524,87.213743,
2641.613,97.610859,
2638.702,88.314373,
2635.792,90.594588,
2632.881,95.672424,
2629.971,100.63505,
2627.060,100.62344,
2624.149,105.31564,
2621.239,98.379447,
2618.328,93.760808,
2615.418,106.46591,
2612.507,96.298938,
2609.597,100.29865,
2606.686,105.54066,
2603.775,99.763887,
2600.865,94.595985,
2597.954,107.64586,
2595.044,105.72377,
2592.133,115.62176,
2589.223,103.2092,
2586.312,112.27074,
2583.401,104.98265,
2580.491,98.221162,
2577.580,112.1217,
2574.670,111.23195,
2571.759,109.17038,
2568.848,108.41783,
2565.938,123.36315,
2563.027,113.92956,
2560.117,112.03155,
2557.206,123.97371,
2554.296,117.26688,
2551.385,117.50504,
2548.474,118.90269,
2545.564,110.34659,
2542.653,125.80957,
2539.743,117.63116,
2536.832,129.20725,
2533.922,116.04615,
2531.011,110.30007,
2528.100,116.12154,
2525.190,114.42869,
2522.279,121.2188,
2519.369,122.82313,
2516.458,121.56905,
2513.548,115.46144,
2510.637,129.30945,
2507.726,125.56736,
2504.816,112.81271,
2501.905,121.42927,
2498.995,113.00556,
2496.084,109.28527,
2493.173,115.62533,
2490.263,121.73178,
2487.352,140.70767,
2484.442,129.13143,
2481.531,133.07704,
2478.621,127.30504,
2475.710,131.27836,
2472.799,146.68559,
2469.889,133.60977,
2466.978,135.56829,
2464.068,115.05614,
2461.157,147.00755,
2458.247,130.44844,
2455.336,137.27179,
2452.425,131.86083,
2449.515,137.42644,
2446.604,124.47058,
2443.694,133.79934,
2440.783,141.84122,
2437.872,137.05207,
2434.962,136.70103,
2432.051,145.02631,
2429.141,154.81904,
2426.230,148.71172,
2423.320,143.55377,
2420.409,135.8814,
2417.498,141.91152,
2414.588,150.02992,
2411.677,143.44772,
2408.767,151.87205,
2405.856,147.37264,
2402.946,151.33948,
2400.035,150.62969,
2397.124,157.5742,
2394.214,162.747,
2391.303,153.26321,
2388.393,143.61803,
2385.482,137.43343,
2382.571,147.77032,
2379.661,154.26457,
2376.750,154.59788,
2373.840,143.79069,
2370.929,140.125,
2368.019,151.01599,
2365.108,167.47317,
2362.197,168.15237,
2359.287,158.5367,
2356.376,150.13733,
2353.466,166.77745,
2350.555,160.23526,
2347.645,174.08526,
2344.734,180.85312,
2341.823,155.57275,
2338.913,176.15183,
2336.002,153.86662,
2333.092,159.06746,
2330.181,164.38842,
2327.270,164.18001,
2324.360,158.39386,
2321.449,165.29508,
2318.539,175.10359,
2315.628,172.73012,
2312.718,165.05892,
2309.807,185.51018,
2306.896,178.8887,
2303.986,180.20938,
2301.075,167.10375,
2298.165,178.08684,
2295.254,180.16809,
2292.344,166.80965,
2289.433,171.84319,
2286.522,179.47772,
2283.612,194.13651,
2280.701,196.20125,
2277.791,204.52388,
2274.880,188.62703,
2271.969,181.57767,
2269.059,189.73809,
2266.148,198.125,
2263.238,184.6308,
2260.327,182.6768,
2257.417,192.02278,
2254.506,204.59796,
2251.595,202.70689,
2248.685,197.07114,
2245.774,192.7185,
2242.864,194.76342,
2239.953,178.53873,
2237.043,199.47642,
2234.132,194.85236,
2231.221,195.46875,
2228.311,201.25516,
2225.400,189.80049,
2222.490,210.52559,
2219.579,207.6726,
2216.669,210.68939,
2213.758,195.16813,
2210.847,204.60358,
2207.937,210.96213,
2205.026,208.67981,
2202.116,223.35643,
2199.205,203.00029,
2196.294,219.60493,
2193.384,210.83646,
2190.473,212.13674,
2187.563,219.12983,
2184.652,217.41398,
2181.742,214.53563,
2178.831,235.77088,
2175.920,227.45651,
2173.010,236.37557,
2170.099,240.85814,
2167.189,248.14653,
2164.278,253.47274,
2161.368,269.12476,
2158.457,272.43049,
2155.546,290.86638,
2152.636,290.40164,
2149.725,290.61493,
2146.815,295.99152,
2143.904,317.51906,
2140.993,307.54823,
2138.083,331.24349,
2135.172,325.30973,
2132.262,309.3838,
2129.351,324.45265,
2126.441,298.08607,
2123.530,309.06888,
2120.619,304.40022,
2117.709,303.22444,
2114.798,286.19028,
2111.888,271.61252,
2108.977,269.85348,
2106.067,290.35958,
2103.156,287.44681,
2100.245,259.13629,
2097.335,276.40249,
2094.424,266.09866,
2091.514,252.98524,
2088.603,262.39687,
2085.692,261.80533,
2082.782,241.86807,
2079.871,263.05498,
2076.961,252.2874,
2074.050,236.33712,
2071.140,257.7114,
2068.229,247.84635,
2065.318,255.50775,
2062.408,252.67795,
2059.497,262.35121,
2056.587,265.45067,
2053.676,259.04192,
2050.766,264.58614,
2047.855,258.2674,
2044.944,265.2532,
2042.034,272.01508,
2039.123,258.98695,
2036.213,277.24055,
2033.302,281.01623,
2030.391,273.53209,
2027.481,272.33227,
2024.570,274.96783,
2021.660,278.88848,
2018.749,280.04902,
2015.839,277.58694,
2012.928,277.11326,
2010.017,285.50176,
2007.107,295.10446,
2004.196,299.30352,
2001.286,282.49956,
1998.375,284.99607,
1995.465,287.91161,
1992.554,302.14841,
1989.643,296.40151,
1986.733,307.05482,
1983.822,291.2284,
1980.912,303.5205,
1978.001,279.24374,
1975.090,282.29753,
1972.180,294.57314,
1969.269,297.82328,
1966.359,301.07097,
1963.448,317.46582,
1960.538,330.42859,
1957.627,317.85873,
1954.716,313.21118,
1951.806,312.11856,
1948.895,327.5542,
1945.985,307.82271,
1943.074,321.35755,
1940.164,323.00031,
1937.253,357.16394,
1934.342,355.00522,
1931.432,331.31112,
1928.521,329.96956,
1925.611,327.35883,
1922.700,336.99654,
1919.790,348.73762,
1916.879,338.96199,
1913.968,360.09795,
1911.058,354.14301,
1908.147,329.04765,
1905.237,343.75732,
1902.326,331.13536,
1899.415,354.96648,
1896.505,363.76944,
1893.594,341.5823,
1890.684,358.32747,
1887.773,376.81471,
1884.863,363.64436,
1881.952,359.21748,
1879.041,354.82957,
1876.131,367.78382,
1873.220,353.6913,
1870.310,367.83349,
1867.399,351.41288,
1864.489,372.20289,
1861.578,372.35041,
1858.667,355.85853,
1855.757,361.91856,
1852.846,368.37116,
1849.936,369.14802,
1847.025,372.94982,
1844.114,357.06614,
1841.204,360.618,
1838.293,374.63914,
1835.383,364.4855,
1832.472,366.09022,
1829.562,367.4862,
1826.651,389.68965,
1823.740,394.30123,
1820.830,391.35334,
1817.919,369.95121,
1815.009,396.80566,
1812.098,409.3061,
1809.188,354.78404,
1806.277,415.6643,
1803.366,368.491,
1800.456,389.13577,
1797.545,373.41571,
1794.635,387.28602,
1791.724,393.30949,
1788.813,387.52937,
1785.903,397.60758,
1782.992,390.68537,
1780.082,399.50985,
1777.171,391.45851,
1774.261,395.04506,
1771.350,402.4995,
1768.439,393.35726,
1765.529,385.21762,
1762.618,401.92251,
1759.708,435.71223,
1756.797,423.39773,
1753.887,417.20371,
1750.976,409.23168,
1748.065,416.16032,
1745.155,417.79608,
1742.244,403.82791,
1739.334,405.23323,
1736.423,408.53808,
1733.512,444.05193,
1730.602,458.62103,
1727.691,429.9539,
1724.781,431.3505,
1721.870,411.59154,
1718.960,444.76991,
1716.049,436.34551,
1713.138,453.6449,
1710.228,446.68144,
1707.317,451.317,
1704.407,475.48333,
1701.496,458.07095,
1698.586,462.59289,
1695.675,426.63236,
1692.764,438.32583,
1689.854,492.69983,
1686.943,432.31717,
1684.033,443.77729,
1681.122,488.36034,
1678.211,521.81093,
1675.301,512.15583,
1672.390,463.21771,
1669.480,494.21324,
1666.569,504.98535,
1663.659,494.95795,
1660.748,544.81649,
1657.837,529.29996,
1654.927,536.75013,
1652.016,522.02407,
1649.106,557.48849,
1646.195,532.19693,
1643.285,535.6263,
1640.374,556.7487,
1637.463,540.00771,
1634.553,587.90333,
1631.642,573.30958,
1628.732,590.08945,
1625.821,584.13416,
1622.911,598.04611,
1620.000,628.73444,
1617.089,659.50808,
1614.179,706.77135,
1611.268,701.38525,
1608.358,765.94103,
1605.447,743.66765,
1602.536,738.39745,
1599.626,785.04158,
1596.715,773.69578,
1593.805,759.60435,
1590.894,795.99382,
1587.984,787.26753,
1585.073,763.00376,
1582.162,748.27148,
1579.252,734.66878,
1576.341,756.1569,
1573.431,768.39039,
1570.520,731.14177,
1567.610,722.10544,
1564.699,728.92524,
1561.788,726.19547,
1558.878,736.41474,
1555.967,718.34107,
1553.057,694.00443,
1550.146,696.9577,
1547.235,703.125,
1544.325,693.51096,
1541.414,694.76592,
1538.504,706.23542,
1535.593,687.72694,
1532.683,664.125,
1529.772,671.02489,
1526.861,673.68774,
1523.951,671.20669,
1521.040,663.59846,
1518.130,643.57387,
1515.219,681.28506,
1512.309,685.56646,
1509.398,704.05087,
1506.487,700.66828,
1503.577,698.86336,
1500.666,677.7066,
1497.756,705.89616,
1494.845,701.80428,
1491.934,670.20374,
1489.024,694.26606,
1486.113,695.125,
1483.203,681.80248,
1480.292,664.00328,
1477.382,665.97449,
1474.471,684.77472,
1471.560,690.125,
1468.650,716.0894,
1465.739,691.61706,
1462.829,659.78547,
1459.918,667.04226,
1457.008,688.77128,
1454.097,711.98974,
1451.186,706.08438,
1448.276,671.80428,
1445.365,679.94885,
1442.455,694.36574,
1439.544,671.27765,
1436.633,731.14486,
1433.723,744.14311,
1430.812,704.04595,
1427.902,728.4407,
1424.991,741.70937,
1422.081,753.13473,
1419.170,760.17342,
1416.259,717.3816,
1413.349,741.86609,
1410.438,767.82037,
1407.528,723.91315,
1404.617,723.72003,
1401.707,744.18488,
1398.796,727.18798,
1395.885,736.47564,
1392.975,751.56139,
1390.064,700.18191,
1387.154,691.9567,
1384.243,673.812,
1381.332,605.89966,
1378.422,617.05211,
1375.511,712.60377,
1372.601,739.0074,
1369.690,794.27279,
1366.780,782.53209,
1363.869,800.37226,
1360.958,795.26046,
1358.048,799.99124,
1355.137,822.31847,
1352.227,846.10546,
1349.316,852.90374,
1346.406,839.61257,
1343.495,837.85498,
1340.584,852.0895,
1337.674,840.91222,
1334.763,863.70158,
1331.853,852.5748,
1328.942,828.99893,
1326.032,825.30938,
1323.121,808.82378,
1320.210,802.45908,
1317.300,825.73428,
1314.389,806.66597,
1311.479,769.62988,
1308.568,771.23125,
1305.657,773.97723,
1302.747,746.25053,
1299.836,727.35604,
1296.926,786.97958,
1294.015,805.36605,
1291.105,801.72229,
1288.194,841.06215,
1285.283,837.52094,
1282.373,847.31244,
1279.462,875.88933,
1276.552,879.58164,
1273.641,871.57831,
1270.731,876.2444,
1267.820,862.33274,
1264.909,864.4548,
1261.999,872.82678,
1259.088,837.25405,
1256.178,871.09617,
1253.267,874.05622,
1250.356,831.81251,
1247.446,807.43118,
1244.535,796.19645,
1241.625,792.16203,
1238.714,795.01138,
1235.804,777.85808,
1232.893,745.24364,
1229.982,772.71446,
1227.072,731.07011,
1224.161,723.92248,
1221.251,712.70187,
1218.340,676.08659,
1215.430,671.33785,
1212.519,693.89675,
1209.608,700.68311,
1206.698,692.48683,
1203.787,702.36117,
1200.877,671.23644,
1197.966,673.03476,
1195.055,689.33672,
1192.145,718.42202,
1189.234,733.61292,
1186.324,740.39804,
1183.413,748.4245,
1180.503,747.36812,
1177.592,737.93321,
1174.681,756.23802,
1171.771,749.87774,
1168.860,739.16066,
1165.950,729.25582,
1163.039,708.96653,
1160.129,715.28152,
1157.218,722.24058,
1154.307,720.23808,
1151.397,712.74056,
1148.486,688.07314,
1145.576,699.8574,
1142.665,716.72775,
1139.754,696.15702,
1136.844,714.23499,
1133.933,700.07825,
1131.023,681.23662,
1128.112,674.83991,
1125.202,664.70955,
1122.291,659.50641,
1119.380,676.40216,
1116.470,704.64307,
1113.559,688.79377,
1110.649,700.80583,
1107.738,701.01609,
1104.828,697.70209,
1101.917,706.49196,
1099.006,705.99114,
1096.096,678.68385,
1093.185,704.14592,
1090.275,711.78989,
1087.364,679.50498,
1084.453,673.12443,
1081.543,676.61923,
1078.632,666.17051,
1075.722,655.75785,
1072.811,667.99373,
1069.901,680.21938,
1066.990,692.44164,
1064.079,693.08346,
1061.169,693.2296,
1058.258,686.92575,
1055.348,685.35583,
1052.437,705.45298,
1049.527,706.6215,
1046.616,693.58906,
1043.705,708.31107,
1040.795,695.88538,
1037.884,710.90615,
1034.974,729.53866,
1032.063,717.74047,
1029.153,707.94389,
1026.242,689.77981,
1023.331,735.78868,
1020.421,722.81775,
1017.510,707.52224,
1014.600,717.92755,
1011.689,737.55486,
1008.778,740.23011,
1005.868,764.24855,
1002.957,778.01422,
1000.047,801.96501,
997.136,830.09407,
994.226,835.20206,
991.315,826.8651,
988.404,825.34274,
985.494,785.37434,
982.583,796.50957,
979.673,806.90476,
976.762,812.47341,
973.852,804.84278,
970.941,798.16347,
968.030,807.26946,
965.120,791.11784,
962.209,789.41276,
959.299,790.5415,
956.388,801.20436,
953.477,809.94705,
950.567,812.95497,
947.656,815.67397,
944.746,796.98374,
941.835,796.93481,
938.925,791.20255,
936.014,784.07839,
933.103,786.4807,
930.193,792.33205,
927.282,769.39997,
924.372,774.47361,
921.461,790.58941,
918.551,783.9254,
915.640,772.15039,
912.729,770.80856,
909.819,776.12331,
906.908,760.95966,
903.998,765.69255,
901.087,782.40115,
898.176,790.17061,
895.266,788.4902,
892.355,791.67973,
889.445,816.01848,
886.534,816.95987,
883.624,822.50766,
880.713,821.04215,
877.802,815.73543,
874.892,813.86039,
871.981,817.36174,
869.071,827.38669,
866.160,827.05512,
863.250,813.54413,
860.339,802.125,
857.428,805.75987,
854.518,820.88428,
851.607,812.56359,
848.697,832.44733,
845.786,820.84739,
842.875,796.93042,
839.965,792.71733,
837.054,809.45992,
834.144,839.29501,
831.233,820.46012,
828.323,812.08157,
825.412,817.73481,
822.501,819.78454,
819.591,812.34695,
816.680,796.09933,
813.770,786.48648,
810.859,777.25887,
807.949,777.01528,
805.038,792.33738,
802.127,769.28981,
799.217,785.75978,
796.306,775.66542,
793.396,783.36949,
790.485,810.91339,
787.574,795.15614,
784.664,795.97625,
781.753,815.58354,
778.843,791.7994,
775.932,782.12458,
773.022,830.26355,
770.111,779.5737,
767.200,792.87387,
764.290,790.61259,
761.379,785.91274,
758.469,785.03233,
755.558,777.125,
752.648,777.125,
749.737,757.54132,
746.826,724.74639,
743.916,686.00143,
741.005,637.2688,
738.095,505.74475,
735.184,359.98413,
732.274,368.0773,
729.363,471.55088,
726.452,587.39719,
723.542,688.57136,
720.631,752.22996,
717.721,760.95947,
714.810,760.97723,
711.899,774.57055,
708.989,785.06058,
706.078,810.76669,
703.168,786.76395,
700.257,774.13872,
697.347,789.34184,
694.436,807.31759,
691.525,777.5768,
688.615,794.39471,
685.704,798.62774,
682.794,793.61428,
679.883,818.44939,
676.973,825.66173,
674.062,801.60172,
671.151,786.68667,
668.241,788.98398,
665.330,798.42753,
662.420,804.81738,
659.509,810.56952,
656.598,810.96125,
653.688,810.65547,
650.777,819.31402,
647.867,824.88831,
644.956,816.83775,
642.046,815.68558,
639.135,818.14243,
636.224,803.26028,
633.314,830.25419,
630.403,835.35137,
627.493,824.13906,
624.582,809.53757,
621.672,815.87352,
618.761,817.64488,
615.850,819.22698,
612.940,826.61416,
610.029,835.70541,
607.119,815.17502,
604.208,835.84542,
601.297,837.14872,
598.387,823.39236,
595.476,808.53077,
592.566,802.23422,
589.655,834.16739,
586.745,837.37007,
583.834,815.48999,
580.923,805.98283,
578.013,782.44081,
575.102,768.66835,
572.192,782.41836,
569.281,818.3904,
566.371,825.43401,
563.460,841.6453,
560.549,836.43031,
557.639,834.86753,
554.728,864.86407,
551.818,876.56881,
548.907,868.76498,
545.996,873.3999,
543.086,888.4408,
540.175,875.98247,
537.265,862.08797,
534.354,857.62669,
531.444,863.14084,
528.533,875.46281,
525.622,866.15145,
522.712,884.75461,
519.801,894.68808,
516.891,885.36888,
513.980,866.78578,
511.070,876.39456,
508.159,895.45199,
505.248,913.62862,
502.338,920.06318,
499.427,883.78707,
496.517,931.25625,
493.606,962.33831,
490.695,936.91103,
487.785,935.37145,
484.874,922.84675,
481.964,916.95556,
479.053,915.18327,
476.143,902.89587,
473.232,926.58473,
470.321,939.53103,
467.411,931.98155,
464.500,899.72619,
461.590,923.46414,
458.679,924.62205,
455.769,928.9468,
452.858,945.26174,
449.947,917.76022,
447.037,938.2157,
444.126,948.84015,
441.216,938.38958,
438.305,939.91344,
435.395,954.549,
432.484,969.20979,
429.573,981.61003,
426.663,992.252,
423.752,968.01791,
420.842,972.19564,
417.931,992.49516,
415.020,1000.8371,
412.110,976.98177,
409.199,977.90494,
406.289,980.74562,
403.378,958.05328,
400.468,936.88544,
397.557,926.52595,
394.646,923.39435,
391.736,921.49321,
388.825,839.282,
385.915,799.15919,
383.004,818.81911,
380.094,904.96768,
377.183,941.08654,
374.272,948.4111,
371.362,956.13213,
368.451,981.49274,
365.541,1004.0088,
362.630,1020.5036,
359.719,1011.3669,
356.809,971.57169,
353.898,1012.0068,
350.988,1036.6872,
348.077,1035.6374,
345.167,1005.1628,
342.256,1005.9099,
339.345,1006.125,
336.435,1003.6267,
333.524,997.14849,
330.614,997.89364,
327.703,983.74965,
324.793,980.95223,
321.882,1012.1196,
318.971,1009.8893,
316.061,1012.0549,
313.150,1012.3536,
310.240,1003.4482,
307.329,980.25662,
304.418,958.35831,
301.508,938.79268,
298.597,922.50351,
295.687,858.81888,
292.776,836.20837,
289.866,859.82576,
286.955,924.83361,
284.044,959.42497,
281.134,988.19594,
278.223,1018.4841,
275.313,1061.9585,
272.402,1097.2656,
269.492,1116.7587,
266.581,1120.0694,
263.670,1147.271,
260.760,1162.9607,
257.849,1161.6563,
254.939,1137.4382,
252.028,1108.1712,
249.117,1127.2756,
246.207,1157.8215,
243.296,1137.3245,
240.386,1141.6549,
237.475,1138.2096,
234.565,1128.2753,
231.654,1135.5792,
228.743,1127.9191,
225.833,1112.283,
222.922,1092.0231,
220.012,1089.8374,
217.101,1100.9022,
214.191,1103.2898,
211.280,1070.554,
208.369,1074.8531,
205.459,1065.349,
202.548,1045.6236,
199.638,1042.721,
196.727,1076.698,
193.816,1097.6097,
190.906,1086.1346,
187.995,1057.8976,
185.085,1067.9849,
182.174,1090.9085,
179.264,1093.7996,
176.353,1082.591,
173.442,1087.0017,
170.532,1097.2202,
167.621,1020.7968,
164.711,1001.1761,
161.800,985.90454,
158.890,938.40252,
155.979,921.74605,
153.068,855.79481,
150.158,753.58945,
147.247,668.15314,
144.337,555.99924,
141.426,430.17695,
138.516,294.68451,
135.605,213.12751,
132.694,144.94834,
129.784,90.574622,
126.873,56.96352,
123.963,43.865229,
121.052,33.742505,
118.141,20.178367,
115.231,20.125,
112.320,19.701364,
109.410,18.852289,
106.499,17.427979,
103.589,13.203219,
100.678,9.8533783,
97.767,9.1424407,
94.857,6.3530438,
91.946,4.3187783,
89.036,3.4636937,
86.125,5.5913095,
83.215,2.4085575,
80.304,1.2798942,
77.393,7.6534236,
74.483,0.91851546,
71.572,-2.5126479,
68.662,-1.5286625,
65.751,2.0035929,
62.840,1.679894,
59.930,1.6232896,
57.019,7.2639455,
54.109,10.513643,
51.198,10.013735,
48.288,5.1023502,
45.377,2.288838,
42.466,1.125,
39.556,1.125,
36.645,1.125,
33.735,3.7212423,
30.824,3.0325824,
27.914,-6.7838711,
25.003,1.4645621,
22.092,6.4791909,
19.182,4.8275228,
16.271,-4.2658489,
13.361,23.734348,
10.450,84.792895,
7.539,187.44525,
4.629,298.8023,
1.718,363.37162,
-1.192,315.26865,
-4.103,247.75038,
-7.013,144.58432,
-9.924,-0.875,
