,Pliquid_AuCOFNPs-citrate13new_1E-1mgmL_100uL_CTR_0E-1mgL_16h_785nm_133mW_3s_1acc_1_RamanShift__2__26,
Raman shift [1/cm],Intensity,
3014.167,-3.25,
3011.256,0.24989263,
3008.346,79.470689,
3005.435,90.05742,
3002.525,99.845078,
2999.614,86.3643,
2996.704,86.572683,
2993.793,99.245392,
2990.882,103.31488,
2987.972,93.896304,
2985.061,116.09975,
2982.151,121.84077,
2979.240,115.48384,
2976.329,124.77184,
2973.419,138.16566,
2970.508,140.93326,
2967.598,140.93755,
2964.687,126.18274,
2961.777,118.69008,
2958.866,133.07245,
2955.955,142.43806,
2953.045,149.64932,
2950.134,141.11151,
2947.224,162.14856,
2944.313,173.05342,
2941.403,178.44069,
2938.492,173.85567,
2935.581,164.49722,
2932.671,178.47104,
2929.760,179.47307,
2926.850,185.22744,
2923.939,184.67056,
2921.028,175.04404,
2918.118,190.53212,
2915.207,199.50939,
2912.297,191.75846,
2909.386,196.70622,
2906.476,208.57861,
2903.565,191.79815,
2900.654,205.53765,
2897.744,181.56142,
2894.833,187.78054,
2891.923,193.42299,
2889.012,185.62283,
2886.102,189.72973,
2883.191,180.75661,
2880.280,167.11841,
2877.370,123.92451,
2874.459,124.20927,
2871.549,158.80274,
2868.638,175.29638,
2865.727,202.72308,
2862.817,197.83556,
2859.906,204.75,
2856.996,198.77717,
2854.085,209.47482,
2851.175,189.65363,
2848.264,204.94149,
2845.353,199.59903,
2842.443,194.34721,
2839.532,196.75,
2836.622,184.48047,
2833.711,190.80964,
2830.801,177.35441,
2827.890,199.91784,
2824.979,189.70011,
2822.069,188.72726,
2819.158,189.79043,
2816.248,203.71526,
2813.337,200.75,
2810.427,195.49243,
2807.516,197.32547,
2804.605,209.70673,
2801.695,192.13156,
2798.784,194.01077,
2795.874,197.16951,
2792.963,198.03553,
2790.052,194.74979,
2787.142,196.61838,
2784.231,194.87888,
2781.321,187.56718,
2778.410,193.11042,
2775.500,192.17448,
2772.589,208.48013,
2769.678,206.17659,
2766.768,201.76357,
2763.857,201.69798,
2760.947,205.24054,
2758.036,196.12575,
2755.126,210.46795,
2752.215,204.47277,
2749.304,210.3669,
2746.394,204.65522,
2743.483,217.79997,
2740.573,206.7809,
2737.662,214.97337,
2734.751,221.33244,
2731.841,205.23534,
2728.930,209.79227,
2726.020,220.96933,
2723.109,216.09025,
2720.199,213.24066,
2717.288,215.36314,
2714.377,212.17098,
2711.467,211.53681,
2708.556,224.654,
2705.646,235.44015,
2702.735,227.08505,
2699.825,235.10821,
2696.914,244.17864,
2694.003,229.00691,
2691.093,228.0713,
2688.182,243.07889,
2685.272,236.63478,
2682.361,227.29694,
2679.450,236.28908,
2676.540,237.48579,
2673.629,221.0998,
2670.719,226.59659,
2667.808,220.4309,
2664.898,236.19164,
2661.987,232.88336,
2659.076,238.98707,
2656.166,245.91023,
2653.255,242.37585,
2650.345,243.34165,
2647.434,238.63625,
2644.524,251.80033,
2641.613,251.72172,
2638.702,238.04984,
2635.792,256.53265,
2632.881,247.48211,
2629.971,248.75,
2627.060,242.58219,
2624.149,256.34374,
2621.239,252.73221,
2618.328,247.58045,
2615.418,244.74546,
2612.507,257.91992,
2609.597,268.38273,
2606.686,261.24396,
2603.775,251.55159,
2600.865,270.51114,
2597.954,271.12712,
2595.044,258.08924,
2592.133,270.20237,
2589.223,269.8342,
2586.312,271.50381,
2583.401,255.75,
2580.491,263.73555,
2577.580,292.73185,
2574.670,278.42915,
2571.759,256.53768,
2568.848,270.44626,
2565.938,275.08338,
2563.027,272.04316,
2560.117,268.21727,
2557.206,274.50277,
2554.296,281.72025,
2551.385,274.99798,
2548.474,274.15744,
2545.564,280.56007,
2542.653,269.38087,
2539.743,282.28081,
2536.832,281.26028,
2533.922,295.56077,
2531.011,284.57493,
2528.100,280.88587,
2525.190,283.65574,
2522.279,283.17208,
2519.369,294.76869,
2516.458,296.74646,
2513.548,277.37749,
2510.637,289.99593,
2507.726,290.93958,
2504.816,280.81201,
2501.905,280.99634,
2498.995,297.7945,
2496.084,289.49568,
2493.173,303.6447,
2490.263,304.34548,
2487.352,289.41773,
2484.442,302.75643,
2481.531,295.11705,
2478.621,298.12443,
2475.710,308.75767,
2472.799,305.55722,
2469.889,311.65585,
2466.978,330.30671,
2464.068,289.52764,
2461.157,310.59503,
2458.247,307.88238,
2455.336,304.81457,
2452.425,316.01417,
2449.515,316.1554,
2446.604,308.98038,
2443.694,312.09867,
2440.783,323.32433,
2437.872,296.58869,
2434.962,315.8606,
2432.051,318.47859,
2429.141,335.44404,
2426.230,333.07596,
2423.320,329.17877,
2420.409,330.96134,
2417.498,328.60391,
2414.588,338.63963,
2411.677,335.78586,
2408.767,335.48524,
2405.856,338.78568,
2402.946,346.06546,
2400.035,341.25469,
2397.124,345.6377,
2394.214,344.4256,
2391.303,342.14228,
2388.393,343.73605,
2385.482,350.48563,
2382.571,355.28202,
2379.661,342.37791,
2376.750,362.58731,
2373.840,358.14071,
2370.929,362.6417,
2368.019,358.67733,
2365.108,364.77356,
2362.197,374.88978,
2359.287,368.58175,
2356.376,354.76761,
2353.466,361.91606,
2350.555,370.75,
2347.645,371.34205,
2344.734,368.59792,
2341.823,365.78317,
2338.913,372.65749,
2336.002,383.70461,
2333.092,376.81888,
2330.181,381.50447,
2327.270,376.08003,
2324.360,392.27124,
2321.449,383.07313,
2318.539,388.85704,
2315.628,395.14488,
2312.718,393.98348,
2309.807,386.56976,
2306.896,395.73435,
2303.986,391.49028,
2301.075,392.51596,
2298.165,399.73092,
2295.254,390.98697,
2292.344,389.27698,
2289.433,391.78864,
2286.522,412.53116,
2283.612,422.05995,
2280.701,420.01906,
2277.791,413.11067,
2274.880,422.60598,
2271.969,418.4002,
2269.059,420.7146,
2266.148,441.23414,
2263.238,439.35232,
2260.327,429.95692,
2257.417,429.42889,
2254.506,424.41384,
2251.595,428.18275,
2248.685,431.37882,
2245.774,451.77167,
2242.864,435.00935,
2239.953,440.34307,
2237.043,446.13964,
2234.132,439.59159,
2231.221,447.96196,
2228.311,462.44844,
2225.400,453.00331,
2222.490,465.09209,
2219.579,482.82714,
2216.669,503.18084,
2213.758,502.74737,
2210.847,516.51319,
2207.937,549.56918,
2205.026,557.74883,
2202.116,590.01221,
2199.205,604.36153,
2196.294,619.81601,
2193.384,644.45954,
2190.473,685.77935,
2187.563,700.779,
2184.652,709.46102,
2181.742,733.91023,
2178.831,739.92114,
2175.920,737.23635,
2173.010,759.17574,
2170.099,750.61805,
2167.189,772.52038,
2164.278,742.36407,
2161.368,760.32039,
2158.457,778.36098,
2155.546,769.82595,
2152.636,797.40949,
2149.725,799.93122,
2146.815,796.78337,
2143.904,829.94703,
2140.993,824.61241,
2138.083,829.29104,
2135.172,826.75,
2132.262,834.88644,
2129.351,797.46009,
2126.441,786.40049,
2123.530,766.71633,
2120.619,754.94303,
2117.709,695.79469,
2114.798,661.05358,
2111.888,618.62523,
2108.977,609.29967,
2106.067,590.06569,
2103.156,570.67264,
2100.245,559.7362,
2097.335,534.01702,
2094.424,509.86154,
2091.514,522.96777,
2088.603,536.34444,
2085.692,520.51594,
2082.782,528.4888,
2079.871,518.21325,
2076.961,522.1688,
2074.050,501.42879,
2071.140,512.49731,
2068.229,508.91404,
2065.318,515.05723,
2062.408,504.52306,
2059.497,504.11902,
2056.587,505.80794,
2053.676,496.86752,
2050.766,478.98169,
2047.855,517.46521,
2044.944,505.08975,
2042.034,491.77896,
2039.123,493.18771,
2036.213,487.11229,
2033.302,500.68489,
2030.391,495.39405,
2027.481,519.55466,
2024.570,526.90717,
2021.660,493.81952,
2018.749,504.56005,
2015.839,501.49869,
2012.928,514.81879,
2010.017,514.9324,
2007.107,499.07523,
2004.196,511.59529,
2001.286,511.8525,
1998.375,498.5748,
1995.465,481.01786,
1992.554,499.53804,
1989.643,487.30302,
1986.733,479.17807,
1983.822,483.78767,
1980.912,470.76031,
1978.001,481.47912,
1975.090,472.93016,
1972.180,463.85508,
1969.269,485.37657,
1966.359,509.91209,
1963.448,502.36691,
1960.538,469.91263,
1957.627,468.09985,
1954.716,462.92236,
1951.806,477.1971,
1948.895,483.0719,
1945.985,463.72876,
1943.074,465.63921,
1940.164,477.19223,
1937.253,468.59787,
1934.342,458.18583,
1931.432,456.52287,
1928.521,443.21632,
1925.611,442.39926,
1922.700,443.37569,
1919.790,461.69776,
1916.879,445.21474,
1913.968,475.71065,
1911.058,426.45872,
1908.147,459.43609,
1905.237,427.92649,
1902.326,446.55147,
1899.415,457.17316,
1896.505,436.3523,
1893.594,420.84146,
1890.684,406.32525,
1887.773,416.27529,
1884.863,433.38781,
1881.952,428.86755,
1879.041,456.25312,
1876.131,464.93562,
1873.220,452.54641,
1870.310,452.6065,
1867.399,431.10186,
1864.489,471.28268,
1861.578,458.53581,
1858.667,448.21706,
1855.757,450.17363,
1852.846,433.54997,
1849.936,461.84309,
1847.025,466.80595,
1844.114,464.05818,
1841.204,456.08566,
1838.293,465.76497,
1835.383,458.936,
1832.472,453.63348,
1829.562,457.69323,
1826.651,470.95533,
1823.740,449.999,
1820.830,462.35649,
1817.919,470.37875,
1815.009,469.03753,
1812.098,476.82874,
1809.188,464.61825,
1806.277,492.10818,
1803.366,460.03282,
1800.456,478.72846,
1797.545,509.89199,
1794.635,485.36206,
1791.724,509.58495,
1788.813,510.55231,
1785.903,503.68033,
1782.992,452.38486,
1780.082,432.9298,
1777.171,425.75214,
1774.261,443.6052,
1771.350,473.41401,
1768.439,486.79172,
1765.529,486.0241,
1762.618,512.14253,
1759.708,521.55426,
1756.797,511.13636,
1753.887,526.6742,
1750.976,523.23953,
1748.065,530.18318,
1745.155,523.22755,
1742.244,511.42573,
1739.334,498.4253,
1736.423,526.66397,
1733.512,514.5548,
1730.602,540.65481,
1727.691,576.54748,
1724.781,548.35405,
1721.870,556.45487,
1718.960,545.94982,
1716.049,554.49565,
1713.138,567.00995,
1710.228,552.21436,
1707.317,593.97857,
1704.407,598.8516,
1701.496,541.32249,
1698.586,560.69758,
1695.675,603.92118,
1692.764,549.94669,
1689.854,564.92718,
1686.943,606.33352,
1684.033,583.37091,
1681.122,626.00233,
1678.211,629.72145,
1675.301,657.66366,
1672.390,620.84869,
1669.480,654.53615,
1666.569,751.02633,
1663.659,694.71734,
1660.748,693.65624,
1657.837,739.83748,
1654.927,745.67119,
1652.016,824.60794,
1649.106,779.19066,
1646.195,797.90087,
1643.285,846.57293,
1640.374,923.91377,
1637.463,884.76801,
1634.553,886.91745,
1631.642,964.81515,
1628.732,971.26551,
1625.821,1057.7886,
1622.911,1116.4175,
1620.000,1157.2335,
1617.089,1207.7351,
1614.179,1303.0145,
1611.268,1409.7348,
1608.358,1419.4691,
1605.447,1484.8077,
1602.536,1478.4992,
1599.626,1534.7858,
1596.715,1473.4951,
1593.805,1483.7423,
1590.894,1469.8979,
1587.984,1450.4282,
1585.073,1454.5565,
1582.162,1398.9777,
1579.252,1436.0298,
1576.341,1399.4873,
1573.431,1372.0865,
1570.520,1395.2676,
1567.610,1373.9456,
1564.699,1332.5737,
1561.788,1278.4969,
1558.878,1258.0189,
1555.967,1209.1821,
1553.057,1190.4913,
1550.146,1175.3137,
1547.235,1159.6177,
1544.325,1111.5075,
1541.414,1077.8301,
1538.504,1080.2914,
1535.593,1109.0172,
1532.683,1110.6457,
1529.772,1068.4002,
1526.861,1062.7966,
1523.951,1041.2051,
1521.040,966.59375,
1518.130,932.99635,
1515.219,945.82925,
1512.309,970.01576,
1509.398,964.53517,
1506.487,960.67142,
1503.577,949.68906,
1500.666,962.49686,
1497.756,929.58909,
1494.845,939.46985,
1491.934,932.7437,
1489.024,930.81871,
1486.113,900.15189,
1483.203,877.32214,
1480.292,848.44614,
1477.382,880.12117,
1474.471,877.23932,
1471.560,825.13037,
1468.650,812.21619,
1465.739,782.72549,
1462.829,818.46357,
1459.918,833.75534,
1457.008,806.08833,
1454.097,798.98511,
1451.186,799.42311,
1448.276,791.06031,
1445.365,785.07148,
1442.455,801.60254,
1439.544,835.44933,
1436.633,794.51565,
1433.723,743.97812,
1430.812,791.05587,
1427.902,744.7951,
1424.991,746.69062,
1422.081,702.7111,
1419.170,677.14849,
1416.259,712.63303,
1413.349,740.63103,
1410.438,699.86476,
1407.528,693.26858,
1404.617,670.80646,
1401.707,650.27994,
1398.796,688.98417,
1395.885,713.14748,
1392.975,666.91584,
1390.064,612.50283,
1387.154,555.89866,
1384.243,499.09211,
1381.332,434.28327,
1378.422,483.87033,
1375.511,583.16912,
1372.601,700.86786,
1369.690,709.03556,
1366.780,773.69688,
1363.869,832.15919,
1360.958,864.25541,
1358.048,850.20415,
1355.137,903.08893,
1352.227,967.0376,
1349.316,974.41595,
1346.406,994.84179,
1343.495,1037.9469,
1340.584,1081.7859,
1337.674,1069.534,
1334.763,1045.1847,
1331.853,1109.1636,
1328.942,1101.9659,
1326.032,1130.928,
1323.121,1161.4609,
1320.210,1153.102,
1317.300,1214.3974,
1314.389,1255.5554,
1311.479,1245.2549,
1308.568,1230.6926,
1305.657,1231.5742,
1302.747,1268.2252,
1299.836,1235.8951,
1296.926,1332.0574,
1294.015,1381.7008,
1291.105,1461.2377,
1288.194,1500.5047,
1285.283,1571.4743,
1282.373,1613.2031,
1279.462,1618.9069,
1276.552,1646.4115,
1273.641,1671.121,
1270.731,1642.5769,
1267.820,1615.9577,
1264.909,1623.1572,
1261.999,1667.1203,
1259.088,1595.0627,
1256.178,1612.1614,
1253.267,1590.4325,
1250.356,1549.5646,
1247.446,1527.296,
1244.535,1476.1698,
1241.625,1431.1722,
1238.714,1429.7682,
1235.804,1412.1966,
1232.893,1383.8825,
1229.982,1348.4315,
1227.072,1309.503,
1224.161,1292.4614,
1221.251,1259.2251,
1218.340,1187.2079,
1215.430,1160.3564,
1212.519,1167.1083,
1209.608,1171.9394,
1206.698,1189.2396,
1203.787,1224.152,
1200.877,1232.6415,
1197.966,1247.0281,
1195.055,1304.9177,
1192.145,1357.5766,
1189.234,1393.8089,
1186.324,1435.7529,
1183.413,1455.8921,
1180.503,1452.7853,
1177.592,1458.2853,
1174.681,1451.4281,
1171.771,1414.07,
1168.860,1384.5981,
1165.950,1351.9173,
1163.039,1310.5283,
1160.129,1293.3906,
1157.218,1302.3262,
1154.307,1313.379,
1151.397,1301.8015,
1148.486,1270.3004,
1145.576,1266.3237,
1142.665,1233.471,
1139.754,1274.686,
1136.844,1258.1385,
1133.933,1261.9992,
1131.023,1253.3941,
1128.112,1253.5326,
1125.202,1293.4746,
1122.291,1288.7311,
1119.380,1240.3823,
1116.470,1304.8068,
1113.559,1306.564,
1110.649,1294.2725,
1107.738,1273.7471,
1104.828,1257.0051,
1101.917,1265.36,
1099.006,1300.2035,
1096.096,1309.9224,
1093.185,1280.0703,
1090.275,1306.8837,
1087.364,1314.4361,
1084.453,1301.2509,
1081.543,1307.4024,
1078.632,1322.4821,
1075.722,1306.6813,
1072.811,1297.2536,
1069.901,1290.2675,
1066.990,1318.8499,
1064.079,1327.111,
1061.169,1323.3316,
1058.258,1315.9386,
1055.348,1323.9781,
1052.437,1363.1295,
1049.527,1400.8843,
1046.616,1404.3596,
1043.705,1404.75,
1040.795,1381.1253,
1037.884,1403.6574,
1034.974,1426.4601,
1032.063,1407.1807,
1029.153,1411.5423,
1026.242,1409.8124,
1023.331,1397.2508,
1020.421,1405.9036,
1017.510,1417.4733,
1014.600,1448.5487,
1011.689,1480.0441,
1008.778,1474.5619,
1005.868,1497.0743,
1002.957,1533.2092,
1000.047,1588.982,
997.136,1647.1008,
994.226,1675.6423,
991.315,1646.9134,
988.404,1584.7488,
985.494,1614.5608,
982.583,1561.4544,
979.673,1534.7272,
976.762,1517.1822,
973.852,1520.8003,
970.941,1530.3043,
968.030,1517.6459,
965.120,1505.6927,
962.209,1492.052,
959.299,1514.5387,
956.388,1534.8294,
953.477,1533.2964,
950.567,1525.5013,
947.656,1543.0869,
944.746,1553.2816,
941.835,1541.6028,
938.925,1547.3047,
936.014,1554.2791,
933.103,1552.5129,
930.193,1541.7536,
927.282,1527.9627,
924.372,1494.984,
921.461,1472.34,
918.551,1461.6835,
915.640,1471.9233,
912.729,1491.3601,
909.819,1492.4139,
906.908,1467.1411,
903.998,1457.7964,
901.087,1459.569,
898.176,1486.0869,
895.266,1513.0674,
892.355,1520.3465,
889.445,1555.5957,
886.534,1570.7777,
883.624,1568.3673,
880.713,1570.8536,
877.802,1585.477,
874.892,1587.7553,
871.981,1516.316,
869.071,1497.9369,
866.160,1516.1387,
863.250,1536.7583,
860.339,1558.9211,
857.428,1579.9848,
854.518,1575.7149,
851.607,1539.9359,
848.697,1543.3794,
845.786,1531.1431,
842.875,1517.4977,
839.965,1523.6239,
837.054,1536.9175,
834.144,1551.835,
831.233,1556.7499,
828.323,1542.9128,
825.412,1536.121,
822.501,1551.0691,
819.591,1536.1939,
816.680,1510.1089,
813.770,1533.8221,
810.859,1535.5053,
807.949,1519.6086,
805.038,1528.3562,
802.127,1516.8324,
799.217,1491.1521,
796.306,1478.2094,
793.396,1479.4218,
790.485,1488.0135,
787.574,1491.8781,
784.664,1468.915,
781.753,1513.0608,
778.843,1502.9343,
775.932,1466.8241,
773.022,1468.6807,
770.111,1494.0256,
767.200,1497.2726,
764.290,1506.4182,
761.379,1500.934,
758.469,1475.6349,
755.558,1446.9022,
752.648,1384.9923,
749.737,1373.4028,
746.826,1331.3239,
743.916,1237.2363,
741.005,1085.1772,
738.095,779.09967,
735.184,514.64595,
732.274,468.97718,
729.363,659.70878,
726.452,1006.4736,
723.542,1287.3331,
720.631,1362.384,
717.721,1412.2565,
714.810,1461.2555,
711.899,1489.2054,
708.989,1431.1068,
706.078,1459.5969,
703.168,1472.8222,
700.257,1454.4711,
697.347,1422.5326,
694.436,1421.2481,
691.525,1402.7606,
688.615,1411.3282,
685.704,1426.5205,
682.794,1427.1544,
679.883,1396.2546,
676.973,1407.4738,
674.062,1413.5785,
671.151,1415.3117,
668.241,1407.3643,
665.330,1385.4895,
662.420,1422.2312,
659.509,1436.7342,
656.598,1430.364,
653.688,1423.6513,
650.777,1446.534,
647.867,1440.1634,
644.956,1433.1776,
642.046,1427.2624,
639.135,1426.0557,
636.224,1434.8654,
633.314,1457.8896,
630.403,1482.0775,
627.493,1482.0755,
624.582,1461.0437,
621.672,1457.8757,
618.761,1455.4702,
615.850,1464.6678,
612.940,1476.1653,
610.029,1481.4348,
607.119,1473.5385,
604.208,1493.3404,
601.297,1519.1981,
598.387,1519.2654,
595.476,1473.7445,
592.566,1452.4936,
589.655,1481.1445,
586.745,1478.3535,
583.834,1446.2604,
580.923,1426.5036,
578.013,1385.6974,
575.102,1391.9576,
572.192,1418.3268,
569.281,1443.5936,
566.371,1448.2893,
563.460,1464.9758,
560.549,1478.0846,
557.639,1493.344,
554.728,1518.4252,
551.818,1544.956,
548.907,1534.2958,
545.996,1529.5818,
543.086,1542.7763,
540.175,1561.4638,
537.265,1571.4414,
534.354,1559.1976,
531.444,1557.6829,
528.533,1595.1847,
525.622,1615.3594,
522.712,1622.7838,
519.801,1631.6238,
516.891,1643.063,
513.980,1644.6116,
511.070,1640.5239,
508.159,1663.1059,
505.248,1700.7659,
502.338,1734.0211,
499.427,1743.2831,
496.517,1725.3864,
493.606,1713.1149,
490.695,1724.4573,
487.785,1758.3281,
484.874,1777.9669,
481.964,1769.9694,
479.053,1742.9697,
476.143,1723.0027,
473.232,1725.347,
470.321,1715.0722,
467.411,1704.7761,
464.500,1710.7112,
461.590,1709.1797,
458.679,1706.5488,
455.769,1716.4074,
452.858,1738.8072,
449.947,1710.5417,
447.037,1717.492,
444.126,1728.3379,
441.216,1730.1042,
438.305,1714.8656,
435.395,1687.8358,
432.484,1696.0044,
429.573,1720.0699,
426.663,1695.7454,
423.752,1665.8532,
420.842,1654.2067,
417.931,1648.9323,
415.020,1628.4567,
412.110,1706.0326,
409.199,1765.0678,
406.289,1778.0556,
403.378,1720.7269,
400.468,1713.923,
397.557,1714.3207,
394.646,1703.5521,
391.736,1664.7319,
388.825,1570.453,
385.915,1498.0457,
383.004,1481.5935,
380.094,1543.7406,
377.183,1641.5625,
374.272,1732.2553,
371.362,1798.9947,
368.451,1830.2941,
365.541,1822.7887,
362.630,1840.4147,
359.719,1869.4766,
356.809,1899.161,
353.898,1889.4266,
350.988,1870.4754,
348.077,1857.3308,
345.167,1858.3337,
342.256,1850.116,
339.345,1866.8816,
336.435,1887.6363,
333.524,1897.5621,
330.614,1891.6009,
327.703,1894.3706,
324.793,1900.8123,
321.882,1906.777,
318.971,1917.9287,
316.061,1955.4437,
313.150,1989.3643,
310.240,1984.9116,
307.329,1976.1744,
304.418,1961.3512,
301.508,1917.4238,
298.597,1803.3996,
295.687,1723.317,
292.776,1718.0835,
289.866,1809.5949,
286.955,2055.5905,
284.044,2217.2499,
281.134,2372.9539,
278.223,2522.2347,
275.313,2587.078,
272.402,2669.2966,
269.492,2752.3364,
266.581,2826.7469,
263.670,2854.6838,
260.760,2925.9584,
257.849,2983.2367,
254.939,2981.769,
252.028,3009.2561,
249.117,3024.7751,
246.207,3022.2265,
243.296,2989.2849,
240.386,2923.0628,
237.475,2875.5351,
234.565,2844.0074,
231.654,2788.4983,
228.743,2753.7353,
225.833,2714.7975,
222.922,2661.7603,
220.012,2597.6475,
217.101,2574.2964,
214.191,2544.6485,
211.280,2454.4431,
208.369,2455.1509,
205.459,2434.3957,
202.548,2404.5188,
199.638,2443.7039,
196.727,2405.0765,
193.816,2370.148,
190.906,2370.3753,
187.995,2416.7128,
185.085,2442.2071,
182.174,2444.5229,
179.264,2414.1667,
176.353,2425.4879,
173.442,2422.1481,
170.532,2400.5739,
167.621,2390.4802,
164.711,2342.0256,
161.800,2283.5465,
158.890,2233.1655,
155.979,2117.0878,
153.068,1933.5778,
150.158,1702.8615,
147.247,1486.0399,
144.337,1223.6165,
141.426,966.34534,
138.516,738.37393,
135.605,527.61493,
132.694,351.05355,
129.784,214.92798,
126.873,149.13604,
123.963,101.03672,
121.052,64.551588,
118.141,38.851116,
115.231,38.03943,
112.320,30.124553,
109.410,19.613645,
106.499,18.90149,
103.589,17.629491,
100.678,17.564865,
97.767,19.697678,
94.857,16.978044,
91.946,17.362443,
89.036,19.072613,
86.125,14.817381,
83.215,14.811841,
80.304,14.073971,
77.393,9.1167816,
74.483,7.4397301,
71.572,6.0252958,
68.662,5.3734075,
65.751,11.731467,
62.840,9.4146821,
59.930,2.877138,
57.019,-4.1736818,
54.109,4.3045736,
51.198,9.8451722,
48.288,7.7726498,
45.377,10.586162,
42.466,12.986658,
39.556,14.174407,
36.645,10.663456,
33.735,11.826994,
30.824,14.854435,
27.914,18.360311,
25.003,23.7311,
22.092,30.947759,
19.182,40.528017,
16.271,64.310682,
13.361,258.77005,
10.450,690.87122,
7.539,1725.7746,
4.629,2594.7196,
1.718,3023.1143,
-1.192,2587.399,
-4.103,1569.8092,
-7.013,661.14484,
-9.924,2.75,
