,PLF92A~1,
Wavenumbers [1/cm],Intensity,
3014.167,-1.875,
3011.256,0.22502147,
3008.346,54.865033,
3005.435,70.358219,
3002.525,91.635067,
2999.614,68.461355,
2996.704,71.98376,
2993.793,92.638824,
2990.882,88.90359,
2987.972,99.044281,
2985.061,84.898401,
2982.151,87.125,
2979.240,83.441539,
2976.329,93.892746,
2973.419,87.678787,
2970.508,91.358327,
2967.598,78.033032,
2964.687,91.826767,
2961.777,95.278929,
2958.866,103.45041,
2955.955,114.125,
2953.045,105.84088,
2950.134,102.55066,
2947.224,113.06806,
2944.313,112.47329,
2941.403,124.55383,
2938.492,106.71037,
2935.581,103.96919,
2932.671,108.16361,
2929.760,117.16349,
2926.850,114.0656,
2923.939,109.40538,
2921.028,98.107252,
2918.118,121.96379,
2915.207,116.2453,
2912.297,112.15462,
2909.386,112.9644,
2906.476,119.45086,
2903.565,106.02871,
2900.654,98.736728,
2897.744,105.92384,
2894.833,103.32063,
2891.923,101.85249,
2889.012,84.130779,
2886.102,55.460145,
2883.191,37.136328,
2880.280,-65.717135,
2877.370,-265.58386,
2874.459,-381.72992,
2871.549,-186.96557,
2868.638,-14.549291,
2865.727,50.655734,
2862.817,63.667782,
2859.906,83.771712,
2856.996,116.10689,
2854.085,106.04094,
2851.175,116.0075,
2848.264,114.4925,
2845.353,128.03873,
2842.443,126.12152,
2839.532,136.11003,
2836.622,123.88346,
2833.711,133.38403,
2830.801,135.42721,
2827.890,128.66696,
2824.979,131.40899,
2822.069,130.17049,
2819.158,134.125,
2816.248,139.35474,
2813.337,149.10427,
2810.427,138.25723,
2807.516,138.49187,
2804.605,137.8774,
2801.695,137.04607,
2798.784,138.49462,
2795.874,128.11443,
2792.963,141.33936,
2790.052,155.12243,
2787.142,149.46692,
2784.231,140.7694,
2781.321,135.37644,
2778.410,137.4651,
2775.500,141.25189,
2772.589,139.66323,
2769.678,141.23078,
2766.768,146.31335,
2763.857,147.7011,
2760.947,137.20696,
2758.036,140.80647,
2755.126,150.50534,
2752.215,151.06135,
2749.304,156.23111,
2746.394,146.30037,
2743.483,154.82501,
2740.573,160.10955,
2737.662,133.36908,
2734.751,149.24149,
2731.841,145.66529,
2728.930,154.29013,
2726.020,176.57407,
2723.109,173.03233,
2720.199,158.2031,
2717.288,164.30018,
2714.377,174.8332,
2711.467,160.14148,
2708.556,159.77384,
2705.646,170.73065,
2702.735,158.13016,
2699.825,173.88504,
2696.914,163.26724,
2694.003,165.73964,
2691.093,152.41021,
2688.182,167.38204,
2685.272,184.41661,
2682.361,160.21889,
2679.450,164.04684,
2676.540,163.18597,
2673.629,167.12051,
2670.719,164.62869,
2667.808,167.83319,
2664.898,169.82636,
2661.987,163.85829,
2659.076,179.58188,
2656.166,187.10774,
2653.255,177.45663,
2650.345,182.90903,
2647.434,187.69631,
2644.524,182.35281,
2641.613,179.75354,
2638.702,169.28281,
2635.792,182.03227,
2632.881,180.47608,
2629.971,179.01758,
2627.060,195.45937,
2624.149,193.09687,
2621.239,191.10721,
2618.328,188.70113,
2615.418,184.10228,
2612.507,194.125,
2609.597,196.84955,
2606.686,197.37198,
2603.775,189.64484,
2600.865,183.77345,
2597.954,186.84371,
2595.044,201.45538,
2592.133,208.85118,
2589.223,206.88394,
2586.312,204.27074,
2583.401,200.57391,
2580.491,204.7548,
2577.580,192.16131,
2574.670,215.23195,
2571.759,212.61987,
2568.848,207.30179,
2565.938,194.83917,
2563.027,211.125,
2560.117,205.40536,
2557.206,214.78182,
2554.296,200.871,
2551.385,212.37298,
2548.474,219.27333,
2545.564,223.125,
2542.653,217.58809,
2539.743,214.18661,
2536.832,225.73809,
2533.922,219.50346,
2531.011,238.4504,
2528.100,218.66156,
2525.190,216.07787,
2522.279,231.70292,
2519.369,217.3895,
2516.458,216.35588,
2513.548,219.65236,
2510.637,228.18648,
2507.726,227.56366,
2504.816,221.87472,
2501.905,233.11037,
2498.995,236.94584,
2496.084,238.11109,
2493.173,241.59851,
2490.263,239.51822,
2487.352,229.54233,
2484.442,233.71388,
2481.531,228.55045,
2478.621,237.66055,
2475.710,237.08666,
2472.799,236.81105,
2469.889,250.64023,
2466.978,252.28993,
2464.068,229.18312,
2461.157,245.66496,
2458.247,252.55148,
2455.336,257.74144,
2452.425,254.77594,
2449.515,248.06888,
2446.604,265.24715,
2443.694,266.26482,
2440.783,255.93131,
2437.872,262.16146,
2434.962,266.53974,
2432.051,275.63734,
2429.141,279.39553,
2426.230,277.38576,
2423.320,254.42458,
2420.409,276.66337,
2417.498,278.14185,
2414.588,272.49003,
2411.677,274.76642,
2408.767,267.90748,
2405.856,269.08932,
2402.946,277.55395,
2400.035,276.13438,
2397.124,292.58488,
2394.214,294.71741,
2391.303,279.41226,
2388.393,271.18079,
2385.482,255.65374,
2382.571,209.27672,
2379.661,225.9155,
2376.750,266.11994,
2373.840,298.5968,
2370.929,299.16832,
2368.019,303.05233,
2365.108,306.77683,
2362.197,305.50037,
2359.287,307.52834,
2356.376,302.13381,
2353.466,300.70032,
2350.555,308.31004,
2347.645,313.08526,
2344.734,310.39688,
2341.823,321.90942,
2338.913,306.88171,
2336.002,308.17039,
2333.092,324.63067,
2330.181,322.84368,
2327.270,320.18001,
2324.360,320.78068,
2321.449,320.84951,
2318.539,332.48584,
2315.628,317.75569,
2312.718,325.60738,
2309.807,332.78343,
2306.896,329.63674,
2303.986,334.125,
2301.075,340.29519,
2298.165,340.93263,
2295.254,333.2758,
2292.344,352.59802,
2289.433,350.42227,
2286.522,340.09822,
2283.612,339.81505,
2280.701,341.85594,
2277.791,357.56395,
2274.880,344.125,
2271.969,350.3143,
2269.059,359.56642,
2266.148,360.5841,
2263.238,358.42616,
2260.327,359.71115,
2257.417,357.92055,
2254.506,369.72044,
2251.595,374.26315,
2248.685,361.18468,
2245.774,365.03692,
2242.864,376.93049,
2239.953,374.80775,
2237.043,384.5282,
2234.132,386.21336,
2231.221,388.78397,
2228.311,387.90593,
2225.400,379.99751,
2222.490,404.92619,
2219.579,387.59546,
2216.669,395.63692,
2213.758,395.73415,
2210.847,407.60358,
2207.937,390.93936,
2205.026,400.12529,
2202.116,394.74708,
2199.205,401.30006,
2196.294,413.05096,
2193.384,421.704,
2190.473,408.25528,
2187.563,446.05733,
2184.652,435.8903,
2181.742,449.44223,
2178.831,435.52191,
2175.920,450.45105,
2173.010,454.94983,
2170.099,469.72322,
2167.189,491.27569,
2164.278,507.57625,
2161.368,497.40875,
2158.457,546.17391,
2155.546,557.125,
2152.636,568.27391,
2149.725,575.62164,
2146.815,607.05719,
2143.904,616.92797,
2140.993,625.28901,
2138.083,622.19494,
2135.172,619.54523,
2132.262,651.03081,
2129.351,636.93863,
2126.441,639.61047,
2123.530,645.5638,
2120.619,595.98739,
2117.709,594.59762,
2114.798,586.13261,
2111.888,560.26315,
2108.977,525.14485,
2106.067,494.92393,
2103.156,520.79906,
2100.245,484.14445,
2097.335,511.15119,
2094.424,483.32175,
2091.514,494.2756,
2088.603,492.41078,
2085.692,484.99112,
2082.782,480.52266,
2079.871,475.30353,
2076.961,491.9626,
2074.050,488.125,
2071.140,489.25135,
2068.229,496.21354,
2065.318,500.656,
2062.408,486.87464,
2059.497,474.93453,
2056.587,473.15996,
2053.676,496.44012,
2050.766,479.04952,
2047.855,481.55219,
2044.944,497.72115,
2042.034,507.65101,
2039.123,502.04419,
2036.213,488.37609,
2033.302,482.75541,
2030.391,489.92145,
2027.481,508.74681,
2024.570,483.78294,
2021.660,513.87809,
2018.749,524.83332,
2015.839,493.33563,
2012.928,512.6183,
2010.017,540.08699,
2007.107,517.96238,
2004.196,514.51784,
2001.286,515.56315,
1998.375,525.3878,
1995.465,525.76518,
1992.554,527.75439,
1989.643,548.39916,
1986.733,524.96447,
1983.822,523.6767,
1980.912,527.88695,
1978.001,514.82816,
1975.090,531.10211,
1972.180,546.88297,
1969.269,536.01,
1966.359,531.85486,
1963.448,528.35881,
1960.538,508.0833,
1957.627,526.41604,
1954.716,536.89519,
1951.806,530.06888,
1948.895,548.25253,
1945.985,544.22304,
1943.074,525.96632,
1940.164,533.81744,
1937.253,549.29011,
1934.342,559.65494,
1931.432,570.05245,
1928.521,573.82621,
1925.611,564.47574,
1922.700,555.58495,
1919.790,537.76102,
1916.879,550.93926,
1913.968,550.12746,
1911.058,554.59647,
1908.147,547.78924,
1905.237,553.71325,
1902.326,551.15909,
1899.415,521.20426,
1896.505,512.69128,
1893.594,514.67073,
1890.684,533.22945,
1887.773,569.60729,
1884.863,574.83343,
1881.952,553.38517,
1879.041,575.62812,
1876.131,590.01127,
1873.220,572.81962,
1870.310,593.33124,
1867.399,577.41288,
1864.489,568.51444,
1861.578,578.3118,
1858.667,581.88547,
1855.757,594.11784,
1852.846,603.38141,
1849.936,601.07896,
1847.025,597.00333,
1844.114,615.125,
1841.204,611.96766,
1838.293,598.6408,
1835.383,589.125,
1832.472,606.9163,
1829.562,619.125,
1826.651,632.80055,
1823.740,607.82226,
1820.830,613.10153,
1817.919,614.86749,
1815.009,627.82474,
1812.098,664.23521,
1809.188,628.72974,
1806.277,625.14713,
1803.366,636.25809,
1800.456,645.38901,
1797.545,662.69969,
1794.635,621.96304,
1791.724,644.75602,
1788.813,654.31369,
1785.903,609.27623,
1782.992,563.9804,
1780.082,512.76061,
1777.171,451.44458,
1774.261,417.28035,
1771.350,516.77703,
1768.439,615.46435,
1765.529,623.76487,
1762.618,675.59568,
1759.708,694.86401,
1756.797,679.35985,
1753.887,686.27952,
1750.976,673.48692,
1748.065,667.72715,
1745.155,648.2155,
1742.244,672.52892,
1739.334,705.81911,
1736.423,681.74373,
1733.512,690.95433,
1730.602,702.11707,
1727.691,754.55826,
1724.781,732.36932,
1721.870,726.9536,
1718.960,689.48009,
1716.049,714.68399,
1713.138,749.33986,
1710.228,738.45965,
1707.317,761.77757,
1704.407,768.71859,
1701.496,764.56726,
1698.586,779.83274,
1695.675,764.28224,
1692.764,799.10043,
1689.854,810.69193,
1686.943,799.52971,
1684.033,819.60344,
1681.122,806.36289,
1678.211,810.08693,
1675.301,820.09417,
1672.390,842.08612,
1669.480,829.34962,
1666.569,857.21387,
1663.659,864.84362,
1660.748,907.99003,
1657.837,900.88443,
1654.927,891.64789,
1652.016,954.49322,
1649.106,929.39429,
1646.195,939.69343,
1643.285,923.33269,
1640.374,974.22605,
1637.463,933.81837,
1634.553,1025.9033,
1631.642,1011.6896,
1628.732,1062.7813,
1625.821,1005.1813,
1622.911,1090.6404,
1620.000,1101.9864,
1617.089,1139.3688,
1614.179,1158.5892,
1611.268,1273.7008,
1608.358,1321.018,
1605.447,1292.0105,
1602.536,1326.4686,
1599.626,1337.4044,
1596.715,1329.049,
1593.805,1343.3286,
1590.894,1315.1822,
1587.984,1324.1164,
1585.073,1320.1693,
1582.162,1300.7575,
1579.252,1295.4884,
1576.341,1275.0984,
1573.431,1290.4875,
1570.520,1253.3199,
1567.610,1273.6549,
1564.699,1236.548,
1561.788,1219.5334,
1558.878,1212.6146,
1555.967,1212.4283,
1553.057,1223.0559,
1550.146,1214.605,
1547.235,1198.4508,
1544.325,1191.9939,
1541.414,1162.502,
1538.504,1154.5667,
1535.593,1150.1615,
1532.683,1135.5565,
1529.772,1143.9875,
1526.861,1140.2971,
1523.951,1120.0798,
1521.040,1093.329,
1518.130,1099.7043,
1515.219,1131.6052,
1512.309,1121.9043,
1509.398,1104.8209,
1506.487,1085.5498,
1503.577,1114.8634,
1500.666,1087.7746,
1497.756,1070.8032,
1494.845,1092.0455,
1491.934,1114.0463,
1489.024,1089.9839,
1486.113,1075.2168,
1483.203,1080.3422,
1480.292,1078.5795,
1477.382,1061.1518,
1474.471,1030.2667,
1471.560,1051.1516,
1468.650,1070.3243,
1465.739,1047.2244,
1462.829,1047.0454,
1459.918,1067.6223,
1457.008,1050.7401,
1454.097,1041.3762,
1451.186,1047.065,
1448.276,1042.67,
1445.365,1064.125,
1442.455,1078.6109,
1439.544,1111.0678,
1436.633,1097.2908,
1433.723,1130.5019,
1430.812,1122.8742,
1427.902,1081.6515,
1424.991,1061.7484,
1422.081,1097.8241,
1419.170,1097.6688,
1416.259,1115.7565,
1413.349,1131.4536,
1410.438,1113.4318,
1407.528,1118.2873,
1404.617,1112.0339,
1401.707,1123.8526,
1398.796,1144.5411,
1395.885,1139.5108,
1392.975,1127.6457,
1390.064,1136.3689,
1387.154,1166.9567,
1384.243,1155.8823,
1381.332,1119.133,
1378.422,1106.2648,
1375.511,1167.1556,
1372.601,1138.6347,
1369.690,1186.7011,
1366.780,1253.7356,
1363.869,1253.869,
1360.958,1258.6885,
1358.048,1274.8046,
1355.137,1287.9075,
1352.227,1278.4844,
1349.316,1286.3989,
1346.406,1317.1843,
1343.495,1310.3324,
1340.584,1343.9109,
1337.674,1327.4098,
1334.763,1313.5131,
1331.853,1323.7127,
1328.942,1348.1405,
1326.032,1357.65,
1323.121,1358.384,
1320.210,1351.4658,
1317.300,1318.0232,
1314.389,1330.5284,
1311.479,1374.7948,
1308.568,1389.329,
1305.657,1376.0105,
1302.747,1357.8082,
1299.836,1390.582,
1296.926,1409.3641,
1294.015,1436.0245,
1291.105,1462.6607,
1288.194,1478.1061,
1285.283,1534.8252,
1282.373,1570.6796,
1279.462,1604.3794,
1276.552,1598.6446,
1273.641,1573.0599,
1270.731,1569.9519,
1267.820,1543.3327,
1264.909,1538.0804,
1261.999,1495.5231,
1259.088,1533.8322,
1256.178,1548.1154,
1253.267,1570.8393,
1250.356,1562.9027,
1247.446,1537.9365,
1244.535,1515.2143,
1241.625,1495.4361,
1238.714,1475.2091,
1235.804,1456.0085,
1232.893,1430.0064,
1229.982,1399.7451,
1227.072,1359.0061,
1224.161,1381.3401,
1221.251,1324.3307,
1218.340,1327.094,
1215.430,1312.0477,
1212.519,1287.7667,
1209.608,1286.125,
1206.698,1288.1676,
1203.787,1291.0094,
1200.877,1275.6295,
1197.966,1299.9068,
1195.055,1333.5484,
1192.145,1372.9355,
1189.234,1376.3395,
1186.324,1439.2223,
1183.413,1457.5869,
1180.503,1425.3015,
1177.592,1446.7612,
1174.681,1420.5188,
1171.771,1428.6414,
1168.860,1364.339,
1165.950,1337.1615,
1163.039,1343.9978,
1160.129,1326.7105,
1157.218,1319.7782,
1154.307,1341.3688,
1151.397,1353.7833,
1148.486,1329.3757,
1145.576,1324.6624,
1142.665,1314.0075,
1139.754,1335.093,
1136.844,1326.1189,
1133.933,1328.3361,
1131.023,1312.8807,
1128.112,1294.4814,
1125.202,1300.2603,
1122.291,1291.2584,
1119.380,1313.177,
1116.470,1318.4721,
1113.559,1304.4333,
1110.649,1298.1605,
1107.738,1320.1652,
1104.828,1338.8767,
1101.917,1333.2787,
1099.006,1327.6301,
1096.096,1343.91,
1093.185,1340.398,
1090.275,1313.4191,
1087.364,1307.125,
1084.453,1306.0001,
1081.543,1313.013,
1078.632,1316.8571,
1075.722,1308.5788,
1072.811,1333.2419,
1069.901,1348.9606,
1066.990,1333.9584,
1064.079,1341.6937,
1061.169,1337.1836,
1058.258,1348.1819,
1055.348,1372.0673,
1052.437,1371.3887,
1049.527,1392.4537,
1046.616,1375.0771,
1043.705,1373.125,
1040.795,1384.6181,
1037.884,1391.125,
1034.974,1395.9665,
1032.063,1410.0863,
1029.153,1431.8254,
1026.242,1454.3143,
1023.331,1419.294,
1020.421,1414.9134,
1017.510,1423.4086,
1014.600,1437.1607,
1011.689,1448.9802,
1008.778,1437.4902,
1005.868,1358.3876,
1002.957,1387.6396,
1000.047,1435.077,
997.136,1498.1111,
994.226,1560.1245,
991.315,1584.8602,
988.404,1564.151,
985.494,1589.1085,
982.583,1543.711,
979.673,1524.687,
976.762,1516.6024,
973.852,1512.799,
970.941,1530.0934,
968.030,1564.6046,
965.120,1505.2754,
962.209,1541.0821,
959.299,1564.123,
956.388,1571.685,
953.477,1569.2478,
950.567,1567.4778,
947.656,1572.5653,
944.746,1560.6715,
941.835,1588.4685,
938.925,1604.3377,
936.014,1588.892,
933.103,1569.4781,
930.193,1569.9252,
927.282,1568.85,
924.372,1563.7764,
921.461,1551.3426,
918.551,1532.0207,
915.640,1513.901,
912.729,1504.6617,
909.819,1506.7922,
906.908,1511.8468,
903.998,1514.5111,
901.087,1522.7631,
898.176,1528.0794,
895.266,1535.473,
892.355,1551.795,
889.445,1566.0626,
886.534,1587.8317,
883.624,1594.8163,
880.713,1591.0214,
877.802,1561.8076,
874.892,1484.5034,
871.981,1340.9488,
869.071,1206.4473,
866.160,1276.2696,
863.250,1410.9089,
860.339,1513.7397,
857.428,1552.2903,
854.518,1571.429,
851.607,1478.2372,
848.697,1416.0413,
845.786,1347.8991,
842.875,1347.469,
839.965,1446.9848,
837.054,1533.2459,
834.144,1544.0197,
831.233,1566.1236,
828.323,1594.9187,
825.412,1599.9586,
822.501,1571.0186,
819.591,1575.977,
816.680,1552.0865,
813.770,1524.1974,
810.859,1528.7234,
807.949,1545.7152,
805.038,1535.3197,
802.127,1545.1972,
799.217,1545.3796,
796.306,1554.2061,
793.396,1558.7891,
790.485,1563.1271,
787.574,1592.5957,
784.664,1578.6538,
781.753,1554.6535,
778.843,1559.3176,
775.932,1583.1496,
773.022,1599.9838,
770.111,1592.6256,
767.200,1584.5119,
764.290,1593.1047,
761.379,1595.217,
758.469,1593.0308,
755.558,1617.5933,
752.648,1566.2733,
749.737,1548.2915,
746.826,1565.105,
743.916,1606.1577,
741.005,1642.8803,
738.095,1578.742,
735.184,1502.4793,
732.274,1442.5194,
729.363,1429.6003,
726.452,1474.8424,
723.542,1545.2597,
720.631,1571.2966,
717.721,1585.572,
714.810,1594.5511,
711.899,1598.9963,
708.989,1594.1547,
706.078,1613.3563,
703.168,1618.125,
700.257,1611.1113,
697.347,1599.6034,
694.436,1594.1468,
691.525,1594.9506,
688.615,1593.8672,
685.704,1590.5348,
682.794,1586.6569,
679.883,1587.5399,
676.973,1641.2317,
674.062,1627.2398,
671.151,1613.5633,
668.241,1606.9776,
665.330,1584.2763,
662.420,1587.4712,
659.509,1633.84,
656.598,1644.1133,
653.688,1615.9937,
650.777,1591.909,
647.867,1585.5384,
644.956,1554.4058,
642.046,1523.6871,
639.135,1503.4001,
636.224,1493.4234,
633.314,1552.9688,
630.403,1581.7228,
627.493,1596.118,
624.582,1614.3661,
621.672,1660.3018,
618.761,1657.5654,
615.850,1655.574,
612.940,1656.8327,
610.029,1669.9892,
607.119,1729.2115,
604.208,1737.255,
601.297,1725.6621,
598.387,1711.1186,
595.476,1704.788,
592.566,1690.6207,
589.655,1686.8292,
586.745,1689.5967,
583.834,1687.7571,
580.923,1665.0824,
578.013,1658.0197,
575.102,1656.6986,
572.192,1649.9793,
569.281,1643.0302,
566.371,1675.9004,
563.460,1676.3031,
560.549,1671.2268,
557.639,1685.1187,
554.728,1731.3165,
551.818,1686.8385,
548.907,1707.5957,
545.996,1724.0147,
543.086,1717.9507,
540.175,1712.5001,
537.265,1717.195,
534.354,1710.0946,
531.444,1704.7476,
528.533,1713.2973,
525.622,1701.6581,
522.712,1707.0128,
519.801,1721.2901,
516.891,1742.5417,
513.980,1774.2878,
511.070,1815.8641,
508.159,1823.0512,
505.248,1816.8804,
502.338,1829.6838,
499.427,1882.9403,
496.517,1903.9129,
493.606,1897.6843,
490.695,1880.1533,
487.785,1916.3334,
484.874,1922.125,
481.964,1913.8194,
479.053,1890.1742,
476.143,1840.2567,
473.232,1839.2832,
470.321,1854.7223,
467.411,1861.7674,
464.500,1837.3189,
461.590,1844.9763,
458.679,1860.3321,
455.769,1868.9196,
452.858,1865.3976,
449.947,1877.6205,
447.037,1877.0912,
444.126,1890.2826,
441.216,1914.1407,
438.305,1902.7117,
435.395,1901.7806,
432.484,1903.3753,
429.573,1899.4449,
426.663,1875.1204,
423.752,1672.2683,
420.842,1412.041,
417.931,1180.6997,
415.020,1091.2134,
412.110,1454.6632,
409.199,1705.5063,
406.289,1811.3823,
403.378,1762.9022,
400.468,1697.1306,
397.557,1709.0306,
394.646,1773.5239,
391.736,1864.7769,
388.825,1885.1412,
385.915,1894.3182,
383.004,1914.8287,
380.094,1958.7411,
377.183,1951.2163,
374.272,1957.2667,
371.362,1988.2598,
368.451,2046.9912,
365.541,2061.2514,
362.630,2037.813,
359.719,2034.0669,
356.809,2079.3515,
353.898,2083.0955,
350.988,2047.2359,
348.077,2021.6428,
345.167,2033.9519,
342.256,2010.7928,
339.345,2002.5307,
336.435,2010.2855,
333.524,2034.0076,
330.614,2030.2818,
327.703,2034.7725,
324.793,2041.6717,
321.882,2046.1953,
318.971,2075.1896,
316.061,2079.7535,
313.150,2061.1917,
310.240,2019.6332,
307.329,2074.5813,
304.418,2081.1666,
301.508,2074.925,
298.597,2123.0521,
295.687,2110.194,
292.776,2107.125,
289.866,2126.4246,
286.955,2184.7839,
284.044,2210.2025,
281.134,2233.0851,
278.223,2259.0051,
275.313,2285.5319,
272.402,2292.8677,
269.492,2267.5094,
266.581,2209.5995,
263.670,2202.2477,
260.760,2213.707,
257.849,2260.513,
254.939,2358.8533,
252.028,2310.1797,
249.117,2301.1752,
246.207,2333.392,
243.296,2411.7199,
240.386,2450.8156,
237.475,2486.3343,
234.565,2507.2321,
231.654,2444.4191,
228.743,2440.3309,
225.833,2431.2704,
222.922,2397.5711,
220.012,2450.0271,
217.101,2433.7563,
214.191,2417.7026,
211.280,2479.537,
208.369,2482.7794,
205.459,2493.304,
202.548,2502.9801,
199.638,2461.6181,
196.727,2492.8839,
193.816,2518.5127,
190.906,2510.8107,
187.995,2530.3593,
185.085,2529.5593,
182.174,2521.3209,
179.264,2522.0436,
176.353,2521.4842,
173.442,2491.0327,
170.532,2428.8842,
167.621,2349.5769,
164.711,2270.3126,
161.800,2171.6755,
158.890,2035.647,
155.979,1873.6954,
153.068,1704.8558,
150.158,1526.313,
147.247,1321.6966,
144.337,1105.4874,
141.426,874.19976,
138.516,624.00472,
135.605,436.35203,
132.694,291.89075,
129.784,186.16361,
126.873,119.65654,
123.963,90.760106,
121.052,67.793431,
118.141,39.237351,
115.231,38.41443,
112.320,34.312277,
109.410,26.943316,
106.499,15.548832,
103.589,13.685254,
100.678,15.211487,
97.767,18.055237,
94.857,18.125,
91.946,15.303224,
89.036,10.899204,
86.125,9.4807936,
83.215,11.248681,
80.304,10.251808,
77.393,1.7537685,
74.483,5.0558097,
71.572,8.2120563,
68.662,9.709395,
65.751,5.4706885,
62.840,9.4237218,
59.930,11.941135,
57.019,-0.045259119,
54.109,0.51364339,
51.198,0.31534435,
48.288,-3.8070507,
45.377,4.6334861,
42.466,10.186097,
39.556,10.592391,
36.645,-4.8557934,
33.735,-2.1247699,
30.824,3.0205651,
27.914,-0.48531109,
25.003,0.37027495,
22.092,2.4166182,
19.182,5.4911258,
16.271,16.682968,
13.361,78.021827,
10.450,174.75441,
7.539,282.99329,
4.629,59.158412,
1.718,-272.87886,
-1.192,-585.89676,
-4.103,-538.37059,
-7.013,-335.33622,
-9.924,0.125,
