,PLA9BE~1,
Wavenumbers [1/cm],Intensity,
3014.167,-2,
3011.256,-2.2499463,
3008.346,22.870017,
3005.435,43.579509,
3002.525,33.809843,
2999.614,40.425982,
2996.704,33.415468,
2993.793,51.027648,
2990.882,45.251827,
2987.972,48.984865,
2985.061,53.980306,
2982.151,45.505867,
2979.240,60.935374,
2976.329,59.016381,
2973.419,58.892427,
2970.508,55.84999,
2967.598,61.904418,
2964.687,58.567256,
2961.777,63.341945,
2958.866,61.32393,
2955.955,62.617271,
2953.045,80.881416,
2950.134,67,
2947.224,75.113875,
2944.313,81.696581,
2941.403,71.963961,
2938.492,83.308954,
2935.581,77.096967,
2932.671,77.077228,
2929.760,73.692324,
2926.850,81.104511,
2923.939,83.280377,
2921.028,87.394172,
2918.118,88.037779,
2915.207,68.82277,
2912.297,73.974612,
2909.386,76.613135,
2906.476,83.612357,
2903.565,76.127395,
2900.654,93.212351,
2897.744,65.150867,
2894.833,63.392005,
2891.923,61.028907,
2889.012,56.462427,
2886.102,38.771626,
2883.191,2.0320966,
2880.280,-53.387584,
2877.370,-163.22074,
2874.459,-240.70442,
2871.549,-159.69633,
2868.638,11.919498,
2865.727,30.692244,
2862.817,59.185827,
2859.906,76.88604,
2856.996,69.031701,
2854.085,71.68279,
2851.175,83.048183,
2848.264,94.99033,
2845.353,76.21567,
2842.443,90.392341,
2839.532,89.238853,
2836.622,86.634767,
2833.711,87.940357,
2830.801,100.49632,
2827.890,102.2902,
2824.979,96.283991,
2822.069,104.01137,
2819.158,97.398914,
2816.248,85,
2813.337,99.412202,
2810.427,95.125337,
2807.516,103.15828,
2804.605,93.612982,
2801.695,104.48686,
2798.784,106.36962,
2795.874,85.84431,
2792.963,97.357128,
2790.052,100.99914,
2787.142,95.644731,
2784.231,101.38664,
2781.321,101.93714,
2778.410,103.90482,
2775.500,105.70241,
2772.589,95.923544,
2769.678,97.430061,
2766.768,98.304864,
2763.857,100,
2760.947,98.490544,
2758.036,113.09564,
2755.126,83.423081,
2752.215,95.872701,
2749.304,107.08452,
2746.394,113.40125,
2743.483,104.94998,
2740.573,118.75889,
2737.662,106.12721,
2734.751,114.76702,
2731.841,106.75641,
2728.930,106.85601,
2726.020,100.44907,
2723.109,95.134168,
2720.199,107.56876,
2717.288,110.89416,
2714.377,107.16262,
2711.467,111.01648,
2708.556,110.64884,
2705.646,108.92956,
2702.735,118.68042,
2699.825,124.66361,
2696.914,118.61909,
2694.003,107.77073,
2691.093,105.85681,
2688.182,105.40074,
2685.272,116.88478,
2682.361,107.54694,
2679.450,118.66253,
2676.540,87.243889,
2673.629,100.65918,
2670.719,111.06562,
2667.808,113.09727,
2664.898,120.40273,
2661.987,110.73329,
2659.076,126.45688,
2656.166,113.83977,
2653.255,119.78061,
2650.345,123.76044,
2647.434,132.62818,
2644.524,112.98079,
2641.613,107.0572,
2638.702,115.87375,
2635.792,123.59422,
2632.881,125.19634,
2629.971,135.10742,
2627.060,129.3325,
2624.149,126.81251,
2621.239,132.53261,
2618.328,133.87284,
2615.418,126.35454,
2612.507,135.61653,
2609.597,129.74451,
2606.686,133.38956,
2603.775,133.55952,
2600.865,124.35492,
2597.954,138.42503,
2595.044,131.29495,
2592.133,142.44588,
2589.223,137.75894,
2586.312,121.39193,
2583.401,134.34672,
2580.491,135.27404,
2577.580,138.9967,
2574.670,136.16979,
2571.759,143.35873,
2568.848,129.59657,
2565.938,135.76185,
2563.027,133.12052,
2560.117,125.53273,
2557.206,140.04059,
2554.296,137.71625,
2551.385,142.05796,
2548.474,148.9632,
2545.564,131.72808,
2542.653,151.98994,
2539.743,137.55545,
2536.832,144.32711,
2533.922,133.26808,
2531.011,151.92484,
2528.100,150.60277,
2525.190,134.72254,
2522.279,130.98486,
2519.369,146.47197,
2516.458,143.78328,
2513.548,146.76368,
2510.637,131.84448,
2507.726,158.43866,
2504.816,159.50057,
2501.905,142.71036,
2498.995,146.94028,
2496.084,147.53311,
2493.173,151.55265,
2490.263,149.60678,
2487.352,165.08187,
2484.442,145.70877,
2481.531,153.68613,
2478.621,158.53555,
2475.710,158.96933,
2472.799,157.46634,
2469.889,165,
2466.978,149.12386,
2464.068,151.61908,
2461.157,162.92495,
2458.247,163.74992,
2455.336,155.31898,
2452.425,164.02359,
2449.515,161.1705,
2446.604,182.53923,
2443.694,171.06991,
2440.783,182.90653,
2437.872,162.92707,
2434.962,161,
2432.051,167.33962,
2429.141,166.88244,
2426.230,171.47847,
2423.320,178.74302,
2420.409,165.94883,
2417.498,155.40168,
2414.588,161.5399,
2411.677,175.64142,
2408.767,169.03543,
2405.856,182.22141,
2402.946,189.05362,
2400.035,170.22064,
2397.124,175.90908,
2394.214,185.80961,
2391.303,170.17683,
2388.393,165.25349,
2385.482,147.79311,
2382.571,156.17734,
2379.661,160.1859,
2376.750,165.31779,
2373.840,174.68743,
2370.929,181.96751,
2368.019,190.2654,
2365.108,190.51047,
2362.197,194.83285,
2359.287,200.37828,
2356.376,196.01233,
2353.466,196.53266,
2350.555,178.5906,
2347.645,193.34306,
2344.734,201.76041,
2341.823,189.28191,
2338.913,192.17761,
2336.002,195.22486,
2333.092,203.50567,
2330.181,213.79026,
2327.270,195.21012,
2324.360,202.88205,
2321.449,210.47618,
2318.539,205.59634,
2315.628,208.60512,
2312.718,210.64978,
2309.807,220.59012,
2306.896,216.51174,
2303.986,214.90904,
2301.075,197.74471,
2298.165,183.22099,
2295.254,218.18136,
2292.344,231.16188,
2289.433,207.93818,
2286.522,196.6205,
2283.612,214.11099,
2280.701,215.67265,
2277.791,211.92172,
2274.880,235.71197,
2271.969,233.10288,
2269.059,230.73026,
2266.148,228.32721,
2263.238,232.99613,
2260.327,225.13795,
2257.417,231.03278,
2254.506,238.74072,
2251.595,224.14913,
2248.685,235.94032,
2245.774,249.20867,
2242.864,238.57359,
2239.953,219.59307,
2237.043,228.89642,
2234.132,230.04418,
2231.221,233.81658,
2228.311,243.08891,
2225.400,236.08444,
2222.490,238.81433,
2219.579,242.10285,
2216.669,253.98092,
2213.758,265.17517,
2210.847,239.17636,
2207.937,256.94134,
2205.026,248.55539,
2202.116,254.31104,
2199.205,256.35012,
2196.294,274.23194,
2193.384,276.50048,
2190.473,241.82863,
2187.563,280.029,
2184.652,285.09633,
2181.742,281.18196,
2178.831,293.67319,
2175.920,301.91985,
2173.010,306.97562,
2170.099,313.46627,
2167.189,332.9426,
2164.278,327.78794,
2161.368,355.99855,
2158.457,377.95109,
2155.546,375.40867,
2152.636,400.81378,
2149.725,416.48993,
2146.815,437.33262,
2143.904,460.88849,
2140.993,435.56081,
2138.083,448.37688,
2135.172,457.4874,
2132.262,459.62588,
2129.351,461.51035,
2126.441,439.02906,
2123.530,446.59594,
2120.619,410.31196,
2117.709,399.6715,
2114.798,374.23068,
2111.888,348.16311,
2108.977,345.17219,
2106.067,328.24867,
2103.156,306.92264,
2100.245,326.98432,
2097.335,299.71205,
2094.424,284.67545,
2091.514,295.00542,
2088.603,291.65904,
2085.692,282.7286,
2082.782,300.84328,
2079.871,299.60677,
2076.961,273.67903,
2074.050,262.50303,
2071.140,293.93088,
2068.229,296.10809,
2065.318,279.97576,
2062.408,276.67399,
2059.497,281.83336,
2056.587,295.83716,
2053.676,279.85105,
2050.766,274.15396,
2047.855,289.4589,
2044.944,270.46795,
2042.034,271.50295,
2039.123,292.46128,
2036.213,298.36664,
2033.302,280.21754,
2030.391,280.37265,
2027.481,290.95116,
2024.570,298.89984,
2021.660,266.12865,
2018.749,283.02574,
2015.839,302.5433,
2012.928,262.3792,
2010.017,268.94788,
2007.107,272.58131,
2004.196,275.07144,
2001.286,301.56533,
1998.375,284.29428,
1995.465,284.15893,
1992.554,276.60598,
1989.643,288.51611,
1986.733,270.39474,
1983.822,243.12851,
1980.912,252.96064,
1978.001,266.44898,
1975.090,276.78932,
1972.180,282.93085,
1969.269,275.3764,
1966.359,279.02717,
1963.448,320.06474,
1960.538,298.10508,
1957.627,294.45821,
1954.716,275.57454,
1951.806,320.80773,
1948.895,296.85224,
1945.985,287.97876,
1943.074,285.96307,
1940.164,285.30756,
1937.253,279.30426,
1934.342,276.93155,
1931.432,257.45426,
1928.521,259.39033,
1925.611,278.69466,
1922.700,272.12846,
1919.790,308.61805,
1916.879,283.37148,
1913.968,270.01353,
1911.058,298.06607,
1908.147,292.889,
1905.237,255.38237,
1902.326,260.78075,
1899.415,242.76706,
1896.505,228.82529,
1893.594,235.63113,
1890.684,277.49652,
1887.773,301.22428,
1884.863,288.07062,
1881.952,292.06741,
1879.041,315.66875,
1876.131,295.93988,
1873.220,246.41575,
1870.310,300.33621,
1867.399,304.01599,
1864.489,307.53268,
1861.578,295.533,
1858.667,289.97306,
1855.757,288.9821,
1852.846,304.22566,
1849.936,297.25525,
1847.025,311.53042,
1844.114,299.75762,
1841.204,311.10139,
1838.293,332.50915,
1835.383,309.51202,
1832.472,323.46609,
1829.562,310.42109,
1826.651,293.36755,
1823.740,298.36782,
1820.830,319.29151,
1817.919,309.52685,
1815.009,335.11195,
1812.098,292.42523,
1809.188,316.07745,
1806.277,316.04426,
1803.366,290.93163,
1800.456,344.51616,
1797.545,320.5673,
1794.635,333.16196,
1791.724,312.34954,
1788.813,302.99871,
1785.903,300.17247,
1782.992,291.66017,
1780.082,220.04093,
1777.171,141.33834,
1774.261,161.46003,
1771.350,211.49002,
1768.439,281.87204,
1765.529,304.91397,
1762.618,337.9325,
1759.708,342.0435,
1756.797,342.38636,
1753.887,377.66909,
1750.976,369.44111,
1748.065,340.9278,
1745.155,358.16116,
1742.244,359.73009,
1739.334,336.51295,
1736.423,343.5439,
1733.512,327.44303,
1730.602,325.73215,
1727.691,365.61537,
1724.781,363.6282,
1721.870,379.3144,
1718.960,377.42214,
1716.049,360.05948,
1713.138,389.48984,
1710.228,368.89109,
1707.317,389.768,
1704.407,362.4545,
1701.496,361.73464,
1698.586,392.49149,
1695.675,402.48567,
1692.764,421.93444,
1689.854,429.69685,
1686.943,398.11295,
1684.033,455.50983,
1681.122,408.83263,
1678.211,396.11421,
1675.301,384.037,
1672.390,409.03888,
1669.480,422.18451,
1666.569,445.03809,
1663.659,448.049,
1660.748,451.38564,
1657.837,471.15309,
1654.927,478.25772,
1652.016,488.53832,
1649.106,470.09792,
1646.195,474.45555,
1643.285,492.40755,
1640.374,468.33797,
1637.463,531.19816,
1634.553,542.25122,
1631.642,559.58633,
1628.732,612.96445,
1625.821,607.02552,
1622.911,645.78023,
1620.000,663.77322,
1617.089,705.16418,
1614.179,759.44894,
1611.268,790.84748,
1608.358,807.25083,
1605.447,857.97183,
1602.536,876.84208,
1599.626,848.56215,
1596.715,875.04324,
1593.805,872.63401,
1590.894,839.41521,
1587.984,818.54425,
1585.073,819.40327,
1582.162,824.17443,
1579.252,777.53853,
1576.341,796.63935,
1573.431,817.31396,
1570.520,818.70687,
1567.610,806.07825,
1564.699,812.87545,
1561.788,769.81735,
1558.878,741.80684,
1555.967,742.62465,
1553.057,731.60358,
1550.146,721.54182,
1547.235,732.98718,
1544.325,696.75745,
1541.414,665.7804,
1538.504,667.97239,
1535.593,663.5916,
1532.683,658.62182,
1529.772,680.28714,
1526.861,687.26262,
1523.951,649.01824,
1521.040,633.72288,
1518.130,611.19572,
1515.219,607.23983,
1512.309,615.47749,
1509.398,620.20727,
1506.487,607.82689,
1503.577,601.08602,
1500.666,616.87343,
1497.756,602.7461,
1494.845,634.47917,
1491.934,598.00945,
1489.024,600.89693,
1486.113,558.34809,
1483.203,595.85571,
1480.292,557.72591,
1477.382,541.10927,
1474.471,571.9973,
1471.560,562.40702,
1468.650,554.31673,
1465.739,565.52882,
1462.829,547.53049,
1459.918,531.55249,
1457.008,537.07699,
1454.097,537.37842,
1451.186,542.39652,
1448.276,538.92051,
1445.365,527.61058,
1442.455,559.98045,
1439.544,539.14079,
1436.633,544.23238,
1433.723,526.34671,
1430.812,587.3454,
1427.902,530.01474,
1424.991,572.66405,
1422.081,548.31064,
1419.170,574.51399,
1416.259,546.59748,
1413.349,552.59434,
1410.438,547.20308,
1407.528,566.1747,
1404.617,512.06738,
1401.707,510.04494,
1398.796,561.80067,
1395.885,543.16902,
1392.975,525.98033,
1390.064,579.06016,
1387.154,573.95259,
1384.243,535.99907,
1381.332,508.01605,
1378.422,478.22203,
1375.511,521.31396,
1372.601,560.70595,
1369.690,566.57167,
1366.780,643.82741,
1363.869,587.71991,
1360.958,595.97211,
1358.048,664.83819,
1355.137,677.44695,
1352.227,658.91504,
1349.316,679.44145,
1346.406,717.34418,
1343.495,728.7648,
1340.584,722.60668,
1337.674,752.8928,
1334.763,752.52928,
1331.853,766.43775,
1328.942,749.21072,
1326.032,741.29066,
1323.121,770.37954,
1320.210,786.99329,
1317.300,781.73675,
1314.389,793.47256,
1311.479,815.67957,
1308.568,830.18382,
1305.657,840.47138,
1302.747,817.4204,
1299.836,761.21385,
1296.926,830.54651,
1294.015,906.85037,
1291.105,900.31404,
1288.194,959.70447,
1285.283,992.90008,
1282.373,1019.6171,
1279.462,1036.4901,
1276.552,1053.0788,
1273.641,1051.0565,
1270.731,1030.5866,
1267.820,1028.0041,
1264.909,966.75822,
1261.999,966.6311,
1259.088,1011.325,
1256.178,1033.6985,
1253.267,1052.3439,
1250.356,1017.7193,
1247.446,980.81146,
1244.535,948.67416,
1241.625,905.18155,
1238.714,865.64093,
1235.804,850.10198,
1232.893,826.87828,
1229.982,811.63203,
1227.072,800.76829,
1224.161,783.18992,
1221.251,756.92022,
1218.340,743.16969,
1215.430,738.89893,
1212.519,747.05519,
1209.608,751.97561,
1206.698,744.0639,
1203.787,751.13065,
1200.877,740.49851,
1197.966,732.40608,
1195.055,775.51568,
1192.145,799.52955,
1189.234,828.35652,
1186.324,859.00173,
1183.413,873.11675,
1180.503,872.33726,
1177.592,860.22195,
1174.681,820.53424,
1171.771,837.73213,
1168.860,826.12197,
1165.950,799.19874,
1163.039,801.38083,
1160.129,813.84783,
1157.218,814.7119,
1154.307,804.5477,
1151.397,786.57284,
1148.486,756.10086,
1145.576,751.96369,
1142.665,774.16151,
1139.754,786.57717,
1136.844,773.59334,
1133.933,758.20241,
1131.023,748.22323,
1128.112,731.50181,
1125.202,711.17391,
1122.291,721.25877,
1119.380,744.1559,
1116.470,760.04141,
1113.559,758.13375,
1110.649,739.97401,
1107.738,744.39545,
1104.828,745.18141,
1101.917,740.0596,
1099.006,764.87627,
1096.096,768.78499,
1093.185,765.27298,
1090.275,744.76824,
1087.364,735.19714,
1084.453,746.49914,
1081.543,765.3262,
1078.632,765.0312,
1075.722,747.206,
1072.811,771.1456,
1069.901,730.9756,
1066.990,744.16663,
1064.079,765.69336,
1061.169,775.6569,
1058.258,769.37726,
1055.348,766.64292,
1052.437,783.5241,
1049.527,777.27552,
1046.616,810.29104,
1043.705,807.83388,
1040.795,811.10804,
1037.884,813.49426,
1034.974,817.46907,
1032.063,819.51558,
1029.153,804.18111,
1026.242,822.34519,
1023.331,839.6656,
1020.421,810.93333,
1017.510,836.77958,
1014.600,849.39108,
1011.689,824.57014,
1008.778,830.25172,
1005.868,854.94594,
1002.957,848.92346,
1000.047,874.93601,
997.136,924.93815,
994.226,951.21541,
991.315,959.04702,
988.404,973.56922,
985.494,930.26852,
982.583,942.26031,
979.673,944,
976.762,935.19347,
973.852,941.37629,
970.941,953.73981,
968.030,945.84971,
965.120,945.12172,
962.209,974.10815,
959.299,953.50303,
956.388,936.28043,
953.477,948.26315,
950.567,977.70563,
947.656,989.55166,
944.746,978.50743,
941.835,951.27616,
938.925,957.50295,
936.014,962.98835,
933.103,959.17525,
930.193,950.40438,
927.282,934.85428,
924.372,913.71412,
921.461,932.35561,
918.551,915.6008,
915.640,889.07618,
912.729,875.92657,
909.819,874.77928,
906.908,888.25808,
903.998,886.61391,
901.087,883.45398,
898.176,895.83866,
895.266,911.6348,
892.355,913.47118,
889.445,915.98898,
886.534,926.85333,
883.624,941.11098,
880.713,928.62719,
877.802,904.74695,
874.892,885.09459,
871.981,846.33059,
869.071,690.94379,
866.160,719.19677,
863.250,805.33173,
860.339,887.13212,
857.428,928.83466,
854.518,906.10934,
851.607,875.32278,
848.697,812.22336,
845.786,766.27929,
842.875,759.88465,
839.965,800.14128,
837.054,883.49308,
834.144,927.41696,
831.233,933.33353,
828.323,925.07599,
825.412,920.5757,
822.501,920.04241,
819.591,886.98644,
816.680,900.4231,
813.770,865.15684,
810.859,847.86613,
807.949,852.24389,
805.038,844.60177,
802.127,841.30926,
799.217,846.96313,
796.306,843.32428,
793.396,842.50385,
790.485,845.8942,
787.574,838.77844,
784.664,859.28125,
781.753,865.01295,
778.843,884.13304,
775.932,894.97544,
773.022,877.38039,
770.111,879.83313,
767.200,876.19344,
764.290,865.17608,
761.379,860.75707,
758.469,855.583,
755.558,820.46195,
752.648,835.93941,
749.737,832.47211,
746.826,824.80401,
743.916,810.22713,
741.005,779.03918,
738.095,726.26718,
735.184,665.65546,
732.274,628.74898,
729.363,649.96797,
726.452,729.52478,
723.542,787.8011,
720.631,793.29362,
717.721,834.67204,
714.810,853.19894,
711.899,839.07922,
708.989,860.8662,
706.078,852.18567,
703.168,854.25055,
700.257,851.63656,
697.347,839.2179,
694.436,822.78559,
691.525,851.72258,
688.615,834.10137,
685.704,829.06557,
682.794,844.5106,
679.883,855.38726,
676.973,841.76396,
674.062,852.39972,
671.151,849.04175,
668.241,836.19124,
665.330,840.71851,
662.420,855.89441,
659.509,858.36507,
656.598,856.70175,
653.688,853.61974,
650.777,848.00091,
647.867,818.53678,
644.956,797.75955,
642.046,756.24675,
639.135,726.76873,
636.224,790.02387,
633.314,794.7875,
630.403,830.29022,
627.493,862.44964,
624.582,879.35486,
621.672,894.40275,
618.761,865.36237,
615.850,866.46877,
612.940,881.14762,
610.029,892.07934,
607.119,886.55193,
604.208,861.85955,
601.297,883.40662,
598.387,912.13368,
595.476,905,
592.566,905,
589.655,879.0844,
586.745,867.60381,
583.834,867.70624,
580.923,855.80097,
578.013,822.84214,
575.102,813.42641,
572.192,821.93211,
569.281,839.6872,
566.371,849.07868,
563.460,863.4039,
560.549,884.59292,
557.639,898.85149,
554.728,892.90146,
551.818,891.34083,
548.907,906.84474,
545.996,913.88968,
543.086,900.10859,
540.175,858.84035,
537.265,882.79833,
534.354,909.55579,
531.444,915.96831,
528.533,893.0902,
525.622,936.54325,
522.712,938.11221,
519.801,935.29128,
516.891,944.47767,
513.980,971.57803,
511.070,983.86086,
508.159,996.5962,
505.248,1011.508,
502.338,1028.0678,
499.427,1030.3833,
496.517,1044.5757,
493.606,1052.3081,
490.695,1046.3581,
487.785,1041.7393,
484.874,1071.3725,
481.964,1085.9236,
479.053,1085.2063,
476.143,1094.4218,
473.232,1058.3104,
470.321,1052.2718,
467.411,1046.5642,
464.500,1004.9503,
461.590,1042.4715,
458.679,1057.4024,
455.769,1059.7397,
452.858,1061.0563,
449.947,1100.0168,
447.037,1094.6513,
444.126,1091.5455,
441.216,1098.8834,
438.305,1086.6925,
435.395,1100.0796,
432.484,1113.4178,
429.573,1113.8999,
426.663,1083.4943,
423.752,988.94069,
420.842,811.9942,
417.931,630.46968,
415.020,565.25089,
412.110,731.27102,
409.199,875.6405,
406.289,965.19773,
403.378,975.07428,
400.468,996.99812,
397.557,1000.9151,
394.646,1010.3899,
391.736,1045.497,
388.825,1092.2593,
385.915,1087.9054,
383.004,1071.4289,
380.094,1071.4588,
377.183,1100.0529,
374.272,1135.6818,
371.362,1171.0674,
368.451,1199.4529,
365.541,1190.4465,
362.630,1197.2861,
359.719,1198.1927,
356.809,1183.6764,
353.898,1211.382,
350.988,1221.7124,
348.077,1225.7425,
345.167,1229.1296,
342.256,1211.9471,
339.345,1194.2456,
336.435,1198.5452,
333.524,1238.2719,
330.614,1215.172,
327.703,1217.7547,
324.793,1229.0623,
321.882,1234.9676,
318.971,1221.5856,
316.061,1218.9533,
313.150,1224.4643,
310.240,1235.596,
307.329,1229.5683,
304.418,1237.9429,
301.508,1248.0461,
298.597,1236.9399,
295.687,1221.778,
292.776,1222.0834,
289.866,1232.3114,
286.955,1233.7888,
284.044,1282.07,
281.134,1335.1796,
278.223,1386.5147,
275.313,1444.7263,
272.402,1429.1166,
269.492,1391.2562,
266.581,1349.1638,
263.670,1295.4956,
260.760,1345.2979,
257.849,1406.2831,
254.939,1409.9525,
252.028,1432.4392,
249.117,1440.0863,
246.207,1451.5011,
243.296,1499.8155,
240.386,1482.7983,
237.475,1464.853,
234.565,1456.0353,
231.654,1462.6088,
228.743,1450.7665,
225.833,1432.4629,
222.922,1413.7134,
220.012,1429.0131,
217.101,1428.1114,
214.191,1418.0659,
211.280,1404.9716,
208.369,1400.6359,
205.459,1372.2502,
202.548,1347.7939,
199.638,1439.2257,
196.727,1404.9881,
193.816,1402.1227,
190.906,1483.0034,
187.995,1397.5685,
185.085,1411.0299,
182.174,1464.2889,
179.264,1483.8035,
176.353,1460.3688,
173.442,1441.2867,
170.532,1431.4879,
167.621,1418.5103,
164.711,1372.429,
161.800,1316.0592,
158.890,1263.5191,
155.979,1122.6882,
153.068,1044.0666,
150.158,997.44836,
147.247,853.13996,
144.337,684.37837,
141.426,528.72453,
138.516,405.41923,
135.605,301.34835,
132.694,208.98981,
129.784,133.6134,
126.873,95.711522,
123.963,61.822774,
121.052,37.184083,
118.141,25.047749,
115.231,20.026008,
112.320,22.659995,
109.410,27.091026,
106.499,17.120853,
103.589,13.879491,
100.678,13.271622,
97.767,13.982559,
94.857,12.614022,
91.946,11.596889,
89.036,10.548408,
86.125,7.7115873,
83.215,4.3453982,
80.304,1.0422693,
77.393,-1.7904105,
74.483,9.1372943,
71.572,12.101183,
68.662,7.138535,
65.751,8.5514372,
62.840,11.40851,
59.930,11.752566,
57.019,3.2915818,
54.109,5.5829651,
51.198,7.0951722,
48.288,4.9716878,
45.377,1.4547975,
42.466,2.8855354,
39.556,6.8848814,
36.645,6.1826912,
33.735,4.9615031,
30.824,5.5462088,
27.914,10.454436,
25.003,12.867912,
22.092,14.322905,
19.182,15.32036,
16.271,25.113222,
13.361,149.95844,
10.450,365.2778,
7.539,651.5871,
4.629,634.09415,
1.718,422.27557,
-1.192,12.35458,
-4.103,-105.6283,
-7.013,-101.7886,
-9.924,4,
