,PLA0A2~1,
Wavenumbers [1/cm],Intensity,
3014.167,-0.75,
3011.256,-1.75,
3008.346,80.961017,
3005.435,92.751769,
3002.525,97.287472,
2999.614,86.151309,
2996.704,101.7902,
2993.793,102.75461,
2990.882,108.28812,
2987.972,121.20964,
2985.061,108.37315,
2982.151,119.86346,
2979.240,110.09885,
2976.329,124.51502,
2973.419,111.94191,
2970.508,125.16668,
2967.598,103.30141,
2964.687,124.72758,
2961.777,119.81405,
2958.866,135.25297,
2955.955,134.28539,
2953.045,143.25,
2950.134,144.46283,
2947.224,142.67703,
2944.313,154.55342,
2941.403,152.11907,
2938.492,141.96274,
2935.581,141.25,
2932.671,151.72636,
2929.760,145.01156,
2926.850,139.13835,
2923.939,163.65188,
2921.028,147.23225,
2918.118,162.72859,
2915.207,150.66139,
2912.297,143.27962,
2909.386,160.43249,
2906.476,148.41293,
2903.565,162.25,
2900.654,146.9568,
2897.744,133.18714,
2894.833,132.786,
2891.923,140.0609,
2889.012,147.18063,
2886.102,97.625679,
2883.191,99.246224,
2880.280,27.900692,
2877.370,-141.48219,
2874.459,-251.743,
2871.549,-54.972698,
2868.638,93.122092,
2865.727,120.16925,
2862.817,123.72192,
2859.906,137.5292,
2856.996,149.27717,
2854.085,159.09457,
2851.175,143.77409,
2848.264,152.956,
2845.353,166.01276,
2842.443,157.24652,
2839.532,158.69777,
2836.622,156.40169,
2833.711,168.81987,
2830.801,176.55221,
2827.890,169.08216,
2824.979,167.10197,
2822.069,172.19314,
2819.158,167.63005,
2816.248,182.445,
2813.337,168.47683,
2810.427,175.50757,
2807.516,169.46594,
2804.605,174.06731,
2801.695,184.60528,
2798.784,166.172,
2795.874,179.10488,
2792.963,181.89287,
2790.052,194.24743,
2787.142,172.11838,
2784.231,171.08851,
2781.321,190.43282,
2778.410,173.27031,
2775.500,177.73793,
2772.589,163.8662,
2769.678,180.89162,
2766.768,171.64027,
2763.857,178.67197,
2760.947,182.22478,
2758.036,185.87425,
2755.126,190.10257,
2752.215,207.56825,
2749.304,197.42088,
2746.394,190.55647,
2743.483,188.64998,
2740.573,194.02434,
2737.662,172.7278,
2734.751,194.13351,
2731.841,199.49359,
2728.930,194.00429,
2726.020,195.70428,
2723.109,204.13658,
2720.199,191.69991,
2717.288,191.74269,
2714.377,210.85789,
2711.467,203.08626,
2708.556,204.67526,
2705.646,209.17956,
2702.735,202.08763,
2699.825,212.60821,
2696.914,214.39272,
2694.003,211.25,
2691.093,202.76746,
2688.182,203.70556,
2685.272,204.13478,
2682.361,196.37336,
2679.450,197.87965,
2676.540,200.25,
2673.629,202.90469,
2670.719,211.46165,
2667.808,199.9309,
2664.898,217.48346,
2661.987,219.9497,
2659.076,209.12284,
2656.166,224.39297,
2653.255,203.50681,
2650.345,222.01044,
2647.434,217.76443,
2644.524,215.14205,
2641.613,224.19343,
2638.702,231.29734,
2635.792,216.09347,
2632.881,222.2916,
2629.971,233.97489,
2627.060,219.74782,
2624.149,239.54687,
2621.239,235.48666,
2618.328,247.85122,
2615.418,223.55001,
2612.507,240.7322,
2609.597,244.97455,
2606.686,245.05522,
2603.775,241.36905,
2600.865,242.83705,
2597.954,250.44166,
2595.044,251.60695,
2592.133,254.8106,
2589.223,249.55104,
2586.312,242.27511,
2583.401,253.08579,
2580.491,247.18273,
2577.580,229.28136,
2574.670,252.40106,
2571.759,257.74487,
2568.848,267.24455,
2565.938,229.24986,
2563.027,256.29995,
2560.117,258.17521,
2557.206,265.71494,
2554.296,250.96625,
2551.385,256.18397,
2548.474,273.36153,
2545.564,258.04139,
2542.653,272.61913,
2539.743,258.23768,
2536.832,261.51542,
2533.922,281.15538,
2531.011,272.77521,
2528.100,268.91551,
2525.190,268.08771,
2522.279,280.21824,
2519.369,257.13692,
2516.458,263.92493,
2513.548,248.97761,
2510.637,290.89738,
2507.726,271.49907,
2504.816,274.25,
2501.905,275.87317,
2498.995,303.83197,
2496.084,296.63676,
2493.173,287.51291,
2490.263,272.47484,
2487.352,293.95787,
2484.442,287.25,
2481.531,288.30318,
2478.621,293.08888,
2475.710,319.18099,
2472.799,306.79712,
2469.889,300.61289,
2466.978,300.1985,
2464.068,305.9114,
2461.157,296.67251,
2458.247,302.77951,
2455.336,304.35762,
2452.425,304.59906,
2449.515,304.21259,
2446.604,321.42279,
2443.694,320.27301,
2440.783,305.53378,
2437.872,318.77596,
2434.962,308.87672,
2432.051,315.76234,
2429.141,330.90862,
2426.230,339.11962,
2423.320,335.89316,
2420.409,328.54477,
2417.498,324.68538,
2414.588,326.05984,
2411.677,333.42526,
2408.767,316.56201,
2405.856,322.40005,
2402.946,322.20264,
2400.035,337.13968,
2397.124,338.57621,
2394.214,331.9524,
2391.303,342.64769,
2388.393,326.629,
2385.482,337.3247,
2382.571,291.90813,
2379.661,301.94755,
2376.750,330.03561,
2373.840,351.66246,
2370.929,358.20668,
2368.019,362.6718,
2365.108,360.64529,
2362.197,361.84726,
2359.287,357.46003,
2356.376,386.19717,
2353.466,374.34256,
2350.555,358.5453,
2347.645,371.84205,
2344.734,365.15782,
2341.823,383.90175,
2338.913,368.57839,
2336.002,388.05866,
2333.092,376.43396,
2330.181,385.5671,
2327.270,369.40511,
2324.360,379.34194,
2321.449,398.60374,
2318.539,391.63225,
2315.628,393.22442,
2312.718,384.76762,
2309.807,394.2253,
2306.896,388.56457,
2303.986,404.98369,
2301.075,405.35634,
2298.165,409.85572,
2295.254,420.99148,
2292.344,404.30396,
2289.433,399.58591,
2286.522,412.57133,
2283.612,410.44896,
2280.701,412.03922,
2277.791,402.17172,
2274.880,424.67799,
2271.969,429.34465,
2269.059,432.57425,
2266.148,431.25,
2263.238,444.7442,
2260.327,426.49155,
2257.417,444.19889,
2254.506,445.63176,
2251.595,447.24634,
2248.685,439.20196,
2245.774,431.64567,
2242.864,441.7313,
2239.953,437.89131,
2237.043,441.67787,
2234.132,434.85776,
2231.221,446.64538,
2228.311,448.38016,
2225.400,444.84105,
2222.490,463.9503,
2219.579,464.74618,
2216.669,466.80008,
2213.758,474.51407,
2210.847,479.41373,
2207.937,473.45359,
2205.026,467.02843,
2202.116,458.95168,
2199.205,484.18765,
2196.294,478.44001,
2193.384,494.01253,
2190.473,486.66432,
2187.563,493.29834,
2184.652,503.85245,
2181.742,509.02295,
2178.831,518.52629,
2175.920,547.98225,
2173.010,566.42517,
2170.099,560.31746,
2167.189,581.47244,
2164.278,611.07613,
2161.368,609.10656,
2158.457,628.02803,
2155.546,666.40005,
2152.636,705.27655,
2149.725,727.22985,
2146.815,744.74947,
2143.904,741.96373,
2140.993,773.15479,
2138.083,781.56907,
2135.172,816.18283,
2132.262,812.35827,
2129.351,796.18788,
2126.441,779.11403,
2123.530,800.59901,
2120.619,738.29608,
2117.709,710.41425,
2114.798,696.33051,
2111.888,662.29991,
2108.977,634.36919,
2106.067,627.10891,
2103.156,610.01379,
2100.245,595.24435,
2097.335,584.44372,
2094.424,576.03699,
2091.514,586.24458,
2088.603,572.02882,
2085.692,556.79281,
2082.782,560.14552,
2079.871,565.89294,
2076.961,582.15218,
2074.050,576.95909,
2071.140,575.43358,
2068.229,593.16798,
2065.318,578.80525,
2062.408,560.44668,
2059.497,563.48217,
2056.587,562.90135,
2053.676,580.29865,
2050.766,552.94432,
2047.855,580.02217,
2044.944,573.58012,
2042.034,577.98405,
2039.123,567.65067,
2036.213,581.32559,
2033.302,575.57631,
2030.391,587.07986,
2027.481,588.34767,
2024.570,564.8648,
2021.660,574.42219,
2018.749,600.13603,
2015.839,596.03937,
2012.928,589.16946,
2010.017,589.00353,
2007.107,593.97339,
2004.196,600.52378,
2001.286,598.50087,
1998.375,595.59547,
1995.465,624.50089,
1992.554,594.68563,
1989.643,599.8698,
1986.733,584.78509,
1983.822,597.3534,
1980.912,609.87325,
1978.001,593.58025,
1975.090,611.62558,
1972.180,608.69949,
1969.269,596.94828,
1966.359,604.08791,
1963.448,614.55515,
1960.538,611.56943,
1957.627,624.51627,
1954.716,634.02019,
1951.806,652.70354,
1948.895,640.08202,
1945.985,621.98202,
1943.074,608.40868,
1940.164,618.34642,
1937.253,633.36319,
1934.342,629.79706,
1931.432,627.74527,
1928.521,639.78368,
1925.611,661.50312,
1922.700,655.16989,
1919.790,623.82836,
1916.879,649.94827,
1913.968,639.26598,
1911.058,646.12687,
1908.147,633.83689,
1905.237,656.45588,
1902.326,646.65742,
1899.415,626.9378,
1896.505,615.63544,
1893.594,614.06102,
1890.684,637.02772,
1887.773,659.11172,
1884.863,651.39123,
1881.952,636.36755,
1879.041,651.64928,
1876.131,669.46568,
1873.220,671.37832,
1870.310,677.74775,
1867.399,689.07407,
1864.489,656.56155,
1861.578,668.73317,
1858.667,717.5314,
1855.757,736.09368,
1852.846,689.26025,
1849.936,687.69245,
1847.025,673.77798,
1844.114,679.44529,
1841.204,681.40734,
1838.293,700.22505,
1835.383,713.6105,
1832.472,715.21522,
1829.562,719.16641,
1826.651,719.56622,
1823.740,721.43391,
1820.830,738.45487,
1817.919,725.33372,
1815.009,694.70675,
1812.098,727.95076,
1809.188,767.89333,
1806.277,739.93609,
1803.366,705.89881,
1800.456,744.35991,
1797.545,742.37786,
1794.635,709.28108,
1791.724,741.59954,
1788.813,732.84949,
1785.903,723.51168,
1782.992,698.51826,
1780.082,674.24521,
1777.171,596.23928,
1774.261,579.24546,
1771.350,658.82502,
1768.439,724.3571,
1765.529,746.70745,
1762.618,756.55373,
1759.708,743.67388,
1756.797,760.15152,
1753.887,780.0707,
1750.976,760.4326,
1748.065,756.92434,
1745.155,754.03072,
1742.244,799.23452,
1739.334,807.44765,
1736.423,778.05377,
1733.512,786.71346,
1730.602,822.42266,
1727.691,839.15894,
1724.781,833.38423,
1721.870,859.41683,
1718.960,826.78286,
1716.049,841.74129,
1713.138,871.04488,
1710.228,856.10347,
1707.317,856.78829,
1704.407,865.33557,
1701.496,887.2156,
1698.586,880.01016,
1695.675,913.87122,
1692.764,923.82377,
1689.854,938.6004,
1686.943,930.55353,
1684.033,924.39902,
1681.122,916.38594,
1678.211,940.02158,
1675.301,930.28083,
1672.390,964.26495,
1669.480,969.36231,
1666.569,984.27837,
1663.659,1063.907,
1660.748,1042.6715,
1657.837,1014.1029,
1654.927,1053.4449,
1652.016,1102.5696,
1649.106,1076.2782,
1646.195,1117.274,
1643.285,1118.888,
1640.374,1145.0793,
1637.463,1092.4658,
1634.553,1213.2352,
1631.642,1212.2609,
1628.732,1213.3152,
1625.821,1224.3036,
1622.911,1305.7879,
1620.000,1359.5697,
1617.089,1416.1157,
1614.179,1425.9962,
1611.268,1543.7143,
1608.358,1608.3001,
1605.447,1605.5928,
1602.536,1674.2096,
1599.626,1627.7338,
1596.715,1661.3692,
1593.805,1614.2731,
1590.894,1642.5961,
1587.984,1603.9454,
1585.073,1581.9353,
1582.162,1565.8918,
1579.252,1551.7938,
1576.341,1570.8787,
1573.431,1571.551,
1570.520,1549.6118,
1567.610,1538.0342,
1564.699,1527.5496,
1561.788,1528.4753,
1558.878,1507.7188,
1555.967,1495.9287,
1553.057,1510.5602,
1550.146,1470.701,
1547.235,1450.8759,
1544.325,1461.6432,
1541.414,1445.348,
1538.504,1408.1841,
1535.593,1383.3809,
1532.683,1394.7882,
1529.772,1387.9442,
1526.861,1352.043,
1523.951,1334.5957,
1521.040,1322.638,
1518.130,1349.6268,
1515.219,1340.1306,
1512.309,1322.4707,
1509.398,1330.3166,
1506.487,1322.7067,
1503.577,1315.2536,
1500.666,1288.7123,
1497.756,1304.5885,
1494.845,1261.2105,
1491.934,1284.2185,
1489.024,1274.5936,
1486.113,1241.7975,
1483.203,1274.7767,
1480.292,1270.7649,
1477.382,1275.716,
1474.471,1270.3436,
1471.560,1258.0907,
1468.650,1260.3995,
1465.739,1248.5187,
1462.829,1221.7487,
1459.918,1250.6868,
1457.008,1265.9728,
1454.097,1259.3418,
1451.186,1281.3989,
1448.276,1273.2188,
1445.365,1238.8574,
1442.455,1273.6818,
1439.544,1339.5269,
1436.633,1278.7743,
1433.723,1282.1224,
1430.812,1289.6538,
1427.902,1305.6715,
1424.991,1239.3281,
1422.081,1254.6821,
1419.170,1296.8608,
1416.259,1296.7695,
1413.349,1305.8234,
1410.438,1287.5568,
1407.528,1302.0684,
1404.617,1317.0114,
1401.707,1319.8398,
1398.796,1344.8513,
1395.885,1365.8759,
1392.975,1353.2915,
1390.064,1336.598,
1387.154,1330.8677,
1384.243,1367.9389,
1381.332,1344.3727,
1378.422,1320.5254,
1375.511,1306.4737,
1372.601,1346.7991,
1369.690,1410.2556,
1366.780,1462.2279,
1363.869,1466.7117,
1360.958,1460.2887,
1358.048,1498.0019,
1355.137,1523.1473,
1352.227,1509.812,
1349.316,1499.7495,
1346.406,1505.25,
1343.495,1516.4608,
1340.584,1552.5713,
1337.674,1563.1428,
1334.763,1563.0968,
1331.853,1585.3504,
1328.942,1620.0496,
1326.032,1587.5471,
1323.121,1592.5874,
1320.210,1605.241,
1317.300,1595.0844,
1314.389,1621.7368,
1311.479,1663.2402,
1308.568,1684.1033,
1305.657,1703.2833,
1302.747,1701.0807,
1299.836,1714.5842,
1296.926,1731.6346,
1294.015,1739.9085,
1291.105,1785.1576,
1288.194,1812.0173,
1285.283,1869.5182,
1282.373,1916.828,
1279.462,1951.4653,
1276.552,1939.3759,
1273.641,1929.6468,
1270.731,1952.4306,
1267.820,1918.419,
1264.909,1921.2946,
1261.999,1964.1848,
1259.088,1934.9969,
1256.178,1969.2212,
1253.267,1951.4669,
1250.356,1895.4877,
1247.446,1846.434,
1244.535,1812.8884,
1241.625,1798.4611,
1238.714,1785.616,
1235.804,1739.488,
1232.893,1693.3702,
1229.982,1713.1955,
1227.072,1652.5396,
1224.161,1664.2196,
1221.251,1632.2581,
1218.340,1607.2938,
1215.430,1569.42,
1212.519,1543.7972,
1209.608,1552.4638,
1206.698,1571.5479,
1203.787,1571.3957,
1200.877,1536.0888,
1197.966,1565.761,
1195.055,1591.141,
1192.145,1655.3575,
1189.234,1667.4645,
1186.324,1715.6187,
1183.413,1733.6358,
1180.503,1713.0539,
1177.592,1725.0982,
1174.681,1688.25,
1171.771,1687.9203,
1168.860,1673.6309,
1165.950,1644.8362,
1163.039,1644.5356,
1160.129,1627.1949,
1157.218,1610.8463,
1154.307,1616.7836,
1151.397,1628.9039,
1148.486,1617.6044,
1145.576,1591.0187,
1142.665,1585.6912,
1139.754,1590.1318,
1136.844,1571.6415,
1133.933,1550.3469,
1131.023,1556.8292,
1128.112,1551.3962,
1125.202,1510.4915,
1122.291,1516.6395,
1119.380,1554.3539,
1116.470,1564.9443,
1113.559,1577.0755,
1110.649,1577.6306,
1107.738,1566.6053,
1104.828,1566.572,
1101.917,1573.8119,
1099.006,1564.8273,
1096.096,1572.5188,
1093.185,1576.9088,
1090.275,1580.4871,
1087.364,1584.6806,
1084.453,1544.6276,
1081.543,1541.1726,
1078.632,1566.0276,
1075.722,1543.1993,
1072.811,1561.5531,
1069.901,1579.8916,
1066.990,1589.3333,
1064.079,1601.4577,
1061.169,1603.4885,
1058.258,1615.225,
1055.348,1641.011,
1052.437,1654.9542,
1049.527,1642.3773,
1046.616,1619.7877,
1043.705,1651.1637,
1040.795,1667.635,
1037.884,1666.6984,
1034.974,1664.4845,
1032.063,1667.2962,
1029.153,1668.3006,
1026.242,1702.0339,
1023.331,1701.5834,
1020.421,1692.8848,
1017.510,1718.3843,
1014.600,1737.4436,
1011.689,1733.6754,
1008.778,1723.3219,
1005.868,1642.5357,
1002.957,1674.3688,
1000.047,1751.322,
997.136,1855.1897,
994.226,1919.0652,
991.315,1922.1163,
988.404,1899.953,
985.494,1892.9623,
982.583,1880.114,
979.673,1846.0575,
976.762,1827.7919,
973.852,1830.7642,
970.941,1849.4378,
968.030,1870.6488,
965.120,1867.2715,
962.209,1872.3867,
959.299,1856.9603,
956.388,1872.0886,
953.477,1892.9492,
950.567,1895.8972,
947.656,1893.7064,
944.746,1927.6887,
941.835,1930.0598,
938.925,1917.089,
936.014,1905.1917,
933.103,1900.25,
930.193,1891.6605,
927.282,1858.1207,
924.372,1874.1873,
921.461,1846.794,
918.551,1848.4496,
915.640,1831.3284,
912.729,1797.0551,
909.819,1801.3629,
906.908,1817.369,
903.998,1820.6361,
901.087,1809.1564,
898.176,1818.9518,
895.266,1847.4068,
892.355,1869.25,
889.445,1869.25,
886.534,1900.1403,
883.624,1898.8488,
880.713,1908.5193,
877.802,1903.8804,
874.892,1855.0715,
871.981,1779.8173,
869.071,1634.4555,
866.160,1637.5383,
863.250,1740.9371,
860.339,1848.6662,
857.428,1897.5023,
854.518,1910.2149,
851.607,1874.4359,
848.697,1758.8871,
845.786,1678.112,
842.875,1692.9436,
839.965,1795.804,
837.054,1894.464,
834.144,1913.5253,
831.233,1915.9168,
828.323,1927.6143,
825.412,1921.2542,
822.501,1883.633,
819.591,1896.8554,
816.680,1886.032,
813.770,1866.9609,
810.859,1841.9078,
807.949,1830.4159,
805.038,1846.8606,
802.127,1827.1056,
799.217,1854.3203,
796.306,1845.5201,
793.396,1837.8684,
790.485,1848.4606,
787.574,1849.5614,
784.664,1857.7625,
781.753,1865.9598,
778.843,1864.8393,
775.932,1865.4968,
773.022,1876.7428,
770.111,1873.4725,
767.200,1902.1799,
764.290,1908.3606,
761.379,1907.4316,
758.469,1907.5759,
755.558,1899.7912,
752.648,1850.915,
749.737,1839.2916,
746.826,1871.8179,
743.916,1911.9253,
741.005,1914.691,
738.095,1900.8891,
735.184,1818.4483,
732.274,1754.6962,
729.363,1726.25,
726.452,1751.6849,
723.542,1892.5193,
720.631,1889.5465,
717.721,1894.8427,
714.810,1893.2557,
711.899,1880.6262,
708.989,1882.2401,
706.078,1883.0513,
703.168,1891.7511,
700.257,1892.2991,
697.347,1884.3805,
694.436,1881.1845,
691.525,1878.7731,
688.615,1894.6017,
685.704,1899.9331,
682.794,1897.7606,
679.883,1908.9256,
676.973,1901.7133,
674.062,1888.7645,
671.151,1873.9217,
668.241,1866.3472,
665.330,1877.082,
662.420,1894.6541,
659.509,1903.9644,
656.598,1917.2032,
653.688,1934.3908,
650.777,1947.5479,
647.867,1926.8434,
644.956,1882.0052,
642.046,1844.3975,
639.135,1819.9617,
636.224,1796.5603,
633.314,1858.4875,
630.403,1897.3072,
627.493,1910.5615,
624.582,1922.8477,
621.672,1997.2952,
618.761,1963.7729,
615.850,1958.3109,
612.940,1964.2746,
610.029,1975.3251,
607.119,2029.8096,
604.208,2026.7298,
601.297,2013.2796,
598.387,2017.5816,
595.476,2049.9074,
592.566,2014.4894,
589.655,2044.5318,
586.745,2038.6459,
583.834,2007.6654,
580.923,2016.1742,
578.013,2003.6184,
575.102,1981.3216,
572.192,1960.4616,
569.281,1952.1868,
566.371,1974.1003,
563.460,1979.7773,
560.549,1993.432,
557.639,2021.021,
554.728,2059.3284,
551.818,2028.8961,
548.907,2033.2194,
545.996,2036.7509,
543.086,2029.4046,
540.175,2020.8395,
537.265,2052.8426,
534.354,2059.7314,
531.444,2052.0207,
528.533,2048.3469,
525.622,2077.8329,
522.712,2092.1378,
519.801,2083.5023,
516.891,2070.9533,
513.980,2118.9597,
511.070,2128.8848,
508.159,2152.7405,
505.248,2168.7391,
502.338,2148.6673,
499.427,2231.2534,
496.517,2271.9166,
493.606,2282.2121,
490.695,2267.7239,
487.785,2220.7667,
484.874,2275.9337,
481.964,2287.825,
479.053,2257.1693,
476.143,2261.0091,
473.232,2216.647,
470.321,2209.4681,
467.411,2217.2109,
464.500,2209.1033,
461.590,2242.7959,
458.679,2248.3979,
455.769,2249.976,
452.858,2261.8407,
449.947,2277.1193,
447.037,2274.1824,
444.126,2288.3651,
441.216,2320.3083,
438.305,2326.4038,
435.395,2314.7929,
432.484,2317.4185,
429.573,2318.3574,
426.663,2267.4279,
423.752,2135.6223,
420.842,1966.9919,
417.931,1807.0402,
415.020,1718.3123,
412.110,1954.4875,
409.199,2182.1031,
406.289,2310.5395,
403.378,2256.0758,
400.468,2204.6682,
397.557,2216.0141,
394.646,2272.4167,
391.736,2354.3707,
388.825,2358.1419,
385.915,2369.3617,
383.004,2381.9621,
380.094,2391.3268,
377.183,2392.8317,
374.272,2415.504,
371.362,2443.6685,
368.451,2468.2104,
365.541,2500.4835,
362.630,2503.2414,
359.719,2494.4024,
356.809,2486.9717,
353.898,2515.4261,
350.988,2498.8381,
348.077,2496.2553,
345.167,2537.2605,
342.256,2478.2421,
339.345,2485.1645,
336.435,2503.1965,
333.524,2495.5319,
330.614,2504.4737,
327.703,2515.4645,
324.793,2513.1961,
321.882,2484.3167,
318.971,2511.8241,
316.061,2510.5071,
313.150,2511.2595,
310.240,2549.8495,
307.329,2574.833,
304.418,2572.3952,
301.508,2559.0377,
298.597,2561.9994,
295.687,2582.5672,
292.776,2631.8335,
289.866,2684.2919,
286.955,2670.2561,
284.044,2686.5925,
281.134,2746.128,
278.223,2828.1722,
275.313,2820.8036,
272.402,2861.075,
269.492,2857.9805,
266.581,2787.4061,
263.670,2803.5801,
260.760,2822.3543,
257.849,2855.2669,
254.939,2912.5098,
252.028,2939.3084,
249.117,2958.3865,
246.207,2986.8652,
243.296,3054.9446,
240.386,3002.8278,
237.475,2999.2956,
234.565,3035.9675,
231.654,2983.3799,
228.743,3010.7997,
225.833,3019.7366,
222.922,2975.5218,
220.012,2981.3502,
217.101,2973.4357,
214.191,2981.8276,
211.280,3043.662,
208.369,3038.1578,
205.459,3038.041,
202.548,3044.1219,
199.638,3037.591,
196.727,3059.8749,
193.816,3092.0001,
190.906,3126.0214,
187.995,3119.5052,
185.085,3123.3971,
182.174,3125.7447,
179.264,3109.1211,
176.353,3134.1627,
173.442,3126.7714,
170.532,3079.3533,
167.621,3011.5816,
164.711,2924.9262,
161.800,2808.936,
158.890,2649.8762,
155.979,2438.8906,
153.068,2215.2886,
150.158,1974.6353,
147.247,1688.8903,
144.337,1402.1943,
141.426,1113.6579,
138.516,822.60005,
135.605,582.08929,
132.694,392.2821,
129.784,250.80437,
126.873,166.41905,
123.963,119.65835,
121.052,87.901456,
118.141,64.34269,
115.231,40.090608,
112.320,27.708184,
109.410,24.25,
106.499,24.25,
103.589,18.647455,
100.678,16.151352,
97.767,21.127915,
94.857,23.328967,
91.946,19.81578,
89.036,13.362898,
86.125,14.072103,
83.215,11.064478,
80.304,8.0105673,
77.393,7.3023974,
74.483,10.525675,
71.572,11.887648,
68.662,11.319267,
65.751,12.025719,
62.840,12.731702,
59.930,10.815279,
57.019,1.6492136,
54.109,1.4443217,
51.198,4.9644835,
48.288,11.238675,
45.377,9.831919,
42.466,10.074439,
39.556,9.7534585,
36.645,0.62498569,
33.735,1.8847393,
30.824,3.4829042,
27.914,-2.1264977,
25.003,3.4763748,
22.092,10.156141,
19.182,16.593243,
16.271,27.085595,
13.361,135.35012,
10.450,333.65748,
7.539,655.58086,
4.629,661.28493,
1.718,437.50897,
-1.192,-53.977928,
-4.103,-255.29864,
-7.013,-240.47033,
-9.924,-1.75,
