,PL1D26~1,
Wavenumbers [1/cm],Intensity,
3014.167,1.875,
3011.256,-3.7750322,
3008.346,85.081181,
3005.435,105.29903,
3002.525,92.439877,
2999.614,104.20229,
2996.704,107.37913,
2993.793,123.37961,
2990.882,119.31012,
2987.972,106.9204,
2985.061,120.3085,
2982.151,117.94894,
2979.240,137.39307,
2976.329,138.89138,
2973.419,148.0596,
2970.508,147.02501,
2967.598,152.44488,
2964.687,152.47147,
2961.777,150.0971,
2958.866,160.54365,
2955.955,166.98118,
2953.045,162.70946,
2950.134,175.72632,
2947.224,179.13122,
2944.313,190.12215,
2941.403,190.26779,
2938.492,195.31132,
2935.581,191.12778,
2932.671,187.51015,
2929.760,189.60581,
2926.850,203.39756,
2923.939,201.67406,
2921.028,204.875,
2918.118,207.1546,
2915.207,200.34331,
2912.297,198.87077,
2909.386,214.81662,
2906.476,211.83565,
2903.565,207.48684,
2900.654,215.69908,
2897.744,215.71156,
2894.833,196.27718,
2891.923,190.1186,
2889.012,200.25072,
2886.102,188.21015,
2883.191,152.90238,
2880.280,115.98024,
2877.370,15.439143,
2874.459,11.875,
2871.549,68.454647,
2868.638,195.88318,
2865.727,192.72112,
2862.817,200.77474,
2859.906,234.22829,
2856.996,211.35009,
2854.085,214.23424,
2851.175,219.18523,
2848.264,222.875,
2845.353,215.11224,
2842.443,227.47221,
2839.532,213.57659,
2836.622,206.45377,
2833.711,218.24548,
2830.801,220.37132,
2827.890,228.21068,
2824.979,234.73904,
2822.069,244.86363,
2819.158,238.17419,
2816.248,236.34605,
2813.337,245.0811,
2810.427,244.13257,
2807.516,239.77438,
2804.605,251.24038,
2801.695,247.13816,
2798.784,246.09677,
2795.874,230.86443,
2792.963,239.58926,
2790.052,237.87521,
2787.142,227.875,
2784.231,237.80977,
2781.321,249.05782,
2778.410,242.26966,
2775.500,251.40672,
2772.589,233.37576,
2769.678,239.30506,
2766.768,236.12161,
2763.857,242.29504,
2760.947,237.90022,
2758.036,256.27636,
2755.126,242.05877,
2752.215,251.3658,
2749.304,253.47031,
2746.394,248.56853,
2743.483,258.72498,
2740.573,258.32631,
2737.662,252.78919,
2734.751,262.05958,
2731.841,256.76694,
2728.930,256.40472,
2726.020,246.76273,
2723.109,248.53475,
2720.199,263.34699,
2717.288,260.4699,
2714.377,257.07106,
2711.467,263.03874,
2708.556,275.52384,
2705.646,267.88906,
2702.735,261.89048,
2699.825,271.00589,
2696.914,286.73276,
2694.003,272.33354,
2691.093,256.51761,
2688.182,260.56685,
2685.272,269.99876,
2682.361,264.99836,
2679.450,272.16718,
2676.540,262.15954,
2673.629,274.21582,
2670.719,276.01364,
2667.808,283.63182,
2664.898,280.95282,
2661.987,281.7749,
2659.076,291.84051,
2656.166,275.42472,
2653.255,280.80527,
2650.345,291.61184,
2647.434,295.18909,
2644.524,285.17235,
2641.613,287.04659,
2638.702,291.84344,
2635.792,311.78227,
2632.881,305.02974,
2629.971,301.51256,
2627.060,301.03844,
2624.149,316.76876,
2621.239,314.64427,
2618.328,313.45113,
2615.418,306.52955,
2612.507,318.08051,
2609.597,296.44586,
2606.686,312.51154,
2603.775,304.95436,
2600.865,304.40402,
2597.954,322.875,
2595.044,328.1611,
2592.133,332.76029,
2589.223,319.9592,
2586.312,320.41267,
2583.401,320.69249,
2580.491,325.66823,
2577.580,324.87995,
2574.670,329.53542,
2571.759,330.02141,
2568.848,326.05179,
2565.938,329.73208,
2563.027,331.28868,
2560.117,331.94979,
2557.206,330.73847,
2554.296,332.30749,
2551.385,340.99092,
2548.474,347.76422,
2545.564,340.34983,
2542.653,342.88506,
2539.743,349.41813,
2536.832,350.40584,
2533.922,339.20615,
2531.011,358.50012,
2528.100,355.94121,
2525.190,361.61844,
2522.279,351.06259,
2519.369,352.15818,
2516.458,343.09526,
2513.548,350.58395,
2510.637,359.22762,
2507.726,371.13148,
2504.816,355.25042,
2501.905,357.875,
2498.995,365.27781,
2496.084,361.70082,
2493.173,380.40149,
2490.263,365.72921,
2487.352,370.3758,
2484.442,382.1598,
2481.531,375.50273,
2478.621,374.24943,
2475.710,375.90567,
2472.799,380.6149,
2469.889,378.02735,
2466.978,356.27722,
2464.068,388.18201,
2461.157,393.29751,
2458.247,383.19844,
2455.336,382.76738,
2452.425,362.91271,
2449.515,376.16816,
2446.604,408.28513,
2443.694,400.99093,
2440.783,410.06869,
2437.872,398.65621,
2434.962,395.23905,
2432.051,402.85033,
2429.141,398.18096,
2426.230,411.76675,
2423.320,419.77514,
2420.409,415.00959,
2417.498,421.66152,
2414.588,419.15259,
2411.677,419.65985,
2408.767,415.64567,
2405.856,416.65359,
2402.946,428.30395,
2400.035,423.28814,
2397.124,423.33488,
2394.214,425.79181,
2391.303,417.59316,
2388.393,431.35408,
2385.482,411.84436,
2382.571,425.03953,
2379.661,431.45629,
2376.750,432.19279,
2373.840,431.3656,
2370.929,426.93998,
2368.019,457.47848,
2365.108,440.01374,
2362.197,456.23668,
2359.287,458.68168,
2356.376,441.90318,
2353.466,457.77064,
2350.555,448.28055,
2347.645,470.6909,
2344.734,473.02708,
2341.823,452.23983,
2338.913,476.7899,
2336.002,465.2912,
2333.092,473.93254,
2330.181,479.92868,
2327.270,478.15003,
2324.360,498.85851,
2321.449,485.55187,
2318.539,492.53557,
2315.628,485.92616,
2312.718,467.50935,
2309.807,493.80669,
2306.896,497.41022,
2303.986,503.47883,
2301.075,482.76866,
2298.165,485.4521,
2295.254,493.74574,
2292.344,514.13639,
2289.433,516.50818,
2286.522,504.28128,
2283.612,516.05614,
2280.701,530.66422,
2277.791,512.3559,
2274.880,526.65695,
2271.969,533.39352,
2269.059,537.92951,
2266.148,533.47266,
2263.238,542.3692,
2260.327,537.56448,
2257.417,528.41499,
2254.506,553.44764,
2251.595,552.72953,
2248.685,530.56932,
2245.774,541.69883,
2242.864,543.18924,
2239.953,526.15762,
2237.043,548.1475,
2234.132,540.57112,
2231.221,530.76902,
2228.311,565.2783,
2225.400,549.46605,
2222.490,567.64694,
2219.579,565.39689,
2216.669,580.37262,
2213.758,587.39788,
2210.847,582.81456,
2207.937,591.4271,
2205.026,577.54118,
2202.116,591.13721,
2199.205,592.69994,
2196.294,592.751,
2193.384,618.87404,
2190.473,606.7095,
2187.563,641.7735,
2184.652,625.39336,
2181.742,649.39754,
2178.831,651.15129,
2175.920,680.02437,
2173.010,721.97704,
2170.099,724.07589,
2167.189,751.01133,
2164.278,775.59762,
2161.368,816.01699,
2158.457,838.95852,
2155.546,868.29812,
2152.636,926.98659,
2149.725,955.69378,
2146.815,994.60698,
2143.904,1040.585,
2140.993,1064.1766,
2138.083,1064.0634,
2135.172,1064.9002,
2132.262,1071.2632,
2129.351,1062.5266,
2126.441,1059.642,
2123.530,1008.4485,
2120.619,967.8476,
2117.709,937.27275,
2114.798,887.00557,
2111.888,832.73865,
2108.977,809.14652,
2106.067,768.9226,
2103.156,737.39846,
2100.245,719.86684,
2097.335,705.06872,
2094.424,691.15695,
2091.514,685.65723,
2088.603,672.75521,
2085.692,673.15004,
2082.782,675.34089,
2079.871,663.19589,
2076.961,667.42295,
2074.050,673.11742,
2071.140,683.02402,
2068.229,701.98309,
2065.318,671.30624,
2062.408,648.98091,
2059.497,661.71432,
2056.587,662.81706,
2053.676,661.14147,
2050.766,652.64481,
2047.855,638.21675,
2044.944,648.67789,
2042.034,644.66696,
2039.123,653.13426,
2036.213,657.81505,
2033.302,670.15765,
2030.391,676.24765,
2027.481,678.64331,
2024.570,655.96129,
2021.660,667.8698,
2018.749,667.17892,
2015.839,672.72277,
2012.928,654.96728,
2010.017,655.83484,
2007.107,679.85069,
2004.196,663.14878,
2001.286,654.47924,
1998.375,669.4882,
1995.465,684.52768,
1992.554,639.546,
1989.643,644.46024,
1986.733,650.23289,
1983.822,639.43925,
1980.912,634.44857,
1978.001,618.41676,
1975.090,648.26584,
1972.180,655.25398,
1969.269,664.53594,
1966.359,651.36126,
1963.448,669.63459,
1960.538,648.22612,
1957.627,668.51589,
1954.716,672.84627,
1951.806,659.875,
1948.895,661.15028,
1945.985,665.79003,
1943.074,648.75325,
1940.164,636.26902,
1937.253,612.84904,
1934.342,622.52472,
1931.432,621.40181,
1928.521,640.34478,
1925.611,655.71268,
1922.700,644.58633,
1919.790,667.71286,
1916.879,648.61874,
1913.968,638.88484,
1911.058,660.95007,
1908.147,641.09976,
1905.237,603.82358,
1902.326,631.08389,
1899.415,625.26646,
1896.505,622.18228,
1893.594,606.1615,
1890.684,614.50221,
1887.773,646.71986,
1884.863,643.96156,
1881.952,619.85773,
1879.041,659.80336,
1876.131,673.43186,
1873.220,651.08288,
1870.310,629.31001,
1867.399,689.8674,
1864.489,663.34232,
1861.578,672.35322,
1858.667,643.18042,
1855.757,625.04206,
1852.846,660.36731,
1849.936,675.22232,
1847.025,713.17185,
1844.114,694.03498,
1841.204,694.70017,
1838.293,686.41075,
1835.383,657.22401,
1832.472,691.20196,
1829.562,694.60052,
1826.651,702.0721,
1823.740,709.69109,
1820.830,688.04017,
1817.919,689.20439,
1815.009,713.13708,
1812.098,689.04825,
1809.188,723.39429,
1806.277,723.91926,
1803.366,723.79182,
1800.456,719.47953,
1797.545,729.96719,
1794.635,726.48893,
1791.724,703.14676,
1788.813,735.47577,
1785.903,730.37118,
1782.992,703.9972,
1780.082,678.99168,
1777.171,625.87125,
1774.261,602.0198,
1771.350,634.73952,
1768.439,712.57737,
1765.529,723.96762,
1762.618,742.60502,
1759.708,777.44048,
1756.797,784.04924,
1753.887,785.92748,
1750.976,773.92998,
1748.065,778.60925,
1745.155,759.66233,
1742.244,752.79346,
1739.334,778.04676,
1736.423,788.99462,
1733.512,775.32211,
1730.602,781.84327,
1727.691,776.66307,
1724.781,796.68572,
1721.870,814.9465,
1718.960,820.3417,
1716.049,820.03603,
1713.138,830.98995,
1710.228,822.43144,
1707.317,830.60529,
1704.407,848.04615,
1701.496,857.16738,
1698.586,827.38351,
1695.675,854.81768,
1692.764,883.38321,
1689.854,860.00097,
1686.943,862.7401,
1684.033,916.50901,
1681.122,879.5377,
1678.211,893.73224,
1675.301,908.82875,
1672.390,931.96173,
1669.480,960.78676,
1666.569,949.91309,
1663.659,954.37758,
1660.748,1045.0678,
1657.837,1054.5032,
1654.927,1039.0933,
1652.016,1090.1909,
1649.106,1101.5285,
1646.195,1048.0908,
1643.285,1057.4219,
1640.374,1082.5475,
1637.463,1161.1092,
1634.553,1174.7912,
1631.642,1236.3419,
1628.732,1279.1061,
1625.821,1317.9221,
1622.911,1389.4693,
1620.000,1432.3333,
1617.089,1547.5466,
1614.179,1643.1677,
1611.268,1737.3431,
1608.358,1808.5506,
1605.447,1928.7902,
1602.536,1947.9895,
1599.626,1942.4355,
1596.715,1930.0762,
1593.805,1896.6791,
1590.894,1889.3523,
1587.984,1881.0802,
1585.073,1814.3621,
1582.162,1782.8377,
1579.252,1791.9678,
1576.341,1792.4718,
1573.431,1762.8976,
1570.520,1761.7544,
1567.610,1764.6201,
1564.699,1756.1746,
1561.788,1676.1152,
1558.878,1666.4062,
1555.967,1663.001,
1553.057,1638.0131,
1550.146,1581.1697,
1547.235,1544.2008,
1544.325,1543.9648,
1541.414,1547.875,
1538.504,1534.5161,
1535.593,1471.7228,
1532.683,1435.8726,
1529.772,1460.6187,
1526.861,1427.0445,
1523.951,1389.4928,
1521.040,1399.497,
1518.130,1367.8818,
1515.219,1406.7952,
1512.309,1388.4696,
1509.398,1350.2154,
1506.487,1328.0481,
1503.577,1334.0542,
1500.666,1311.9869,
1497.756,1313.8666,
1494.845,1324.7944,
1491.934,1298.8309,
1489.024,1285.356,
1486.113,1261.6946,
1483.203,1211.0258,
1480.292,1199.7839,
1477.382,1177.0523,
1474.471,1200.268,
1471.560,1208.1493,
1468.650,1169.6117,
1465.739,1168.5277,
1462.829,1165.9387,
1459.918,1156.77,
1457.008,1168.5675,
1454.097,1166.5481,
1451.186,1154.4495,
1448.276,1166.0406,
1445.365,1171.0172,
1442.455,1164.7882,
1439.544,1163.5934,
1436.633,1145.8949,
1433.723,1167.2428,
1430.812,1181.9541,
1427.902,1158.2358,
1424.991,1173.4,
1422.081,1136.2584,
1419.170,1143.2437,
1416.259,1128.6737,
1413.349,1107.5045,
1410.438,1121.4688,
1407.528,1121.5064,
1404.617,1074.0146,
1401.707,1087.3301,
1398.796,1150.4204,
1395.885,1137.3628,
1392.975,1094.3964,
1390.064,1132.9417,
1387.154,1159.3047,
1384.243,1156.9106,
1381.332,1179.1244,
1378.422,1125.0199,
1375.511,1127.8303,
1372.601,1220.9536,
1369.690,1204.0155,
1366.780,1279.8706,
1363.869,1291.4308,
1360.958,1328.8084,
1358.048,1408.0196,
1355.137,1412.6542,
1352.227,1415.1889,
1349.316,1478.0383,
1346.406,1501.0605,
1343.495,1488.3315,
1340.584,1541.4096,
1337.674,1609.9806,
1334.763,1587.2511,
1331.853,1623.4131,
1328.942,1648.8905,
1326.032,1616.8033,
1323.121,1641.4774,
1320.210,1676.8481,
1317.300,1718.9768,
1314.389,1745.014,
1311.479,1742.011,
1308.568,1776.7739,
1305.657,1866.7085,
1302.747,1884.394,
1299.836,1862.8603,
1296.926,1925.6861,
1294.015,2050.7142,
1291.105,2032.9809,
1288.194,2147.2902,
1285.283,2201.2191,
1282.373,2268.4607,
1279.462,2307.3651,
1276.552,2342.5365,
1273.641,2376.7362,
1270.731,2379.5795,
1267.820,2380.9035,
1264.909,2337.0722,
1261.999,2296.4062,
1259.088,2338.3638,
1256.178,2301.478,
1253.267,2320.9596,
1250.356,2256.4088,
1247.446,2209.5537,
1244.535,2153.7992,
1241.625,2065.5047,
1238.714,1996.2228,
1235.804,1963.2974,
1232.893,1916.0091,
1229.982,1873.6178,
1227.072,1836.5,
1224.161,1795.2118,
1221.251,1802.0207,
1218.340,1780.3147,
1215.430,1770.2793,
1212.519,1753.0481,
1209.608,1722.205,
1206.698,1711.6197,
1203.787,1716.4831,
1200.877,1745.4263,
1197.966,1722.0481,
1195.055,1781.4557,
1192.145,1840.7123,
1189.234,1899.0465,
1186.324,1940.4222,
1183.413,1963.3826,
1180.503,1958.0358,
1177.592,1929.1073,
1174.681,1928.8613,
1171.771,1919.9999,
1168.860,1838.7288,
1165.950,1854.2574,
1163.039,1861.9702,
1160.129,1865.8243,
1157.218,1839.0308,
1154.307,1813.8114,
1151.397,1811.6231,
1148.486,1776.4254,
1145.576,1772.9884,
1142.665,1752.5664,
1139.754,1772.0293,
1136.844,1771.2726,
1133.933,1726.06,
1131.023,1704.3727,
1128.112,1710.6612,
1125.202,1706.3243,
1122.291,1709.9976,
1119.380,1704.0742,
1116.470,1724.3724,
1113.559,1711.41,
1110.649,1728.4849,
1107.738,1738.2675,
1104.828,1754.3512,
1101.917,1775.6204,
1099.006,1765.0709,
1096.096,1750.3699,
1093.185,1725.7858,
1090.275,1738.4419,
1087.364,1756.9697,
1084.453,1768.9372,
1081.543,1770.6839,
1078.632,1754.7124,
1075.722,1728.884,
1072.811,1741.2545,
1069.901,1732.5219,
1066.990,1764.2083,
1064.079,1786.8463,
1061.169,1807.1302,
1058.258,1824.6508,
1055.348,1835.3448,
1052.437,1839.039,
1049.527,1840.4792,
1046.616,1856.1181,
1043.705,1887.1641,
1040.795,1898.429,
1037.884,1905.9439,
1034.974,1910.0129,
1032.063,1907.5904,
1029.153,1911.6407,
1026.242,1926.3449,
1023.331,1933.5412,
1020.421,1926.5098,
1017.510,1959.8532,
1014.600,1967.3056,
1011.689,1966.9522,
1008.778,2038.1157,
1005.868,2028.0372,
1002.957,2046.1046,
1000.047,2096.195,
997.136,2190.8147,
994.226,2252.4595,
991.315,2251.5235,
988.404,2223.8217,
985.494,2203.3545,
982.583,2224.7684,
979.673,2221.2902,
976.762,2218.875,
973.852,2217.549,
970.941,2212.0221,
968.030,2204.8288,
965.120,2215.8428,
962.209,2208.1699,
959.299,2204.042,
956.388,2183.2763,
953.477,2190.0705,
950.567,2232.3319,
947.656,2261.7636,
944.746,2260.914,
941.835,2217.9549,
938.925,2205.2428,
936.014,2227.143,
933.103,2240.6945,
930.193,2217.4828,
927.282,2190.9126,
924.372,2173.1549,
921.461,2141.419,
918.551,2109.3805,
915.640,2078.1521,
912.729,2058.2168,
909.819,2060.763,
906.908,2052.3387,
903.998,2065.3962,
901.087,2075.8766,
898.176,2095.6224,
895.266,2116.6838,
892.355,2128.1733,
889.445,2145.7979,
886.534,2206.8206,
883.624,2198.0172,
880.713,2184.8129,
877.802,2188.128,
874.892,2187.5573,
871.981,2131.0403,
869.071,2053.3469,
866.160,2041.2549,
863.250,2089.5775,
860.339,2157.9332,
857.428,2196.3705,
854.518,2168.1047,
851.607,2141.4785,
848.697,2074.9715,
845.786,2040.1284,
842.875,2040.1669,
839.965,2063.7297,
837.054,2118.1634,
834.144,2143.8547,
831.233,2170.2068,
828.323,2157.1356,
825.412,2124.182,
822.501,2107.3644,
819.591,2115.6284,
816.680,2108.6634,
813.770,2047.3573,
810.859,2034.437,
807.949,2054.4335,
805.038,2035.3728,
802.127,2039.4884,
799.217,2007.0778,
796.306,1989.0641,
793.396,1993.2186,
790.485,2009.7702,
787.574,2016.19,
784.664,1998.1475,
781.753,1995.546,
778.843,2027.7303,
775.932,2044.5173,
773.022,2014.3417,
770.111,2056.0382,
767.200,2035.2743,
764.290,2026.1414,
761.379,2024.4811,
758.469,2019.8989,
755.558,2005.4342,
752.648,2024.1701,
749.737,2033.0973,
746.826,2006.0368,
743.916,1971.3166,
741.005,1961.163,
738.095,1884.0347,
735.184,1789.0678,
732.274,1758.5563,
729.363,1797.5154,
726.452,1882.3466,
723.542,1962.4765,
720.631,1966.1105,
717.721,1987.6431,
714.810,2005.017,
711.899,2008.9443,
708.989,2017.8205,
706.078,2010.6633,
703.168,2013.1255,
700.257,2007.211,
697.347,1995.3097,
694.436,1996.7441,
691.525,1991.9212,
688.615,1976.41,
685.704,1978.2356,
682.794,1985.0878,
679.883,1962.7669,
676.973,1960.3628,
674.062,2014.112,
671.151,2028.2185,
668.241,2003.3013,
665.330,1991.5347,
662.420,1984.3461,
659.509,1993.6688,
656.598,2016.3195,
653.688,2029.8235,
650.777,2002.632,
647.867,1995.465,
644.956,2000.0665,
642.046,1975.2677,
639.135,1935.7134,
636.224,1938.867,
633.314,1937.2792,
630.403,2005.4554,
627.493,2046.3457,
624.582,2041.3487,
621.672,2065.9005,
618.761,2062.3154,
615.850,2075.7517,
612.940,2084.1181,
610.029,2081.3468,
607.119,2108.1942,
604.208,2118.6851,
601.297,2133.8394,
598.387,2143.5819,
595.476,2135.7209,
592.566,2112.8959,
589.655,2108.2271,
586.745,2093.988,
583.834,2073.4596,
580.923,2064.7234,
578.013,2039.6119,
575.102,2013.9466,
572.192,2023.8131,
569.281,2067.0156,
566.371,2067.7982,
563.460,2048.1219,
560.549,2073.4972,
557.639,2106.7265,
554.728,2100.1852,
551.818,2089.2608,
548.907,2086.2656,
545.996,2088.2077,
543.086,2091.3717,
540.175,2089.0358,
537.265,2135.9532,
534.354,2151.8682,
531.444,2150.711,
528.533,2154.4201,
525.622,2176.1466,
522.712,2197.8641,
519.801,2201.2374,
516.891,2197.6393,
513.980,2240.9999,
511.070,2242.762,
508.159,2288.1989,
505.248,2340.1268,
502.338,2344.3042,
499.427,2358.9691,
496.517,2406.4305,
493.606,2435.5006,
490.695,2429.8706,
487.785,2451.4247,
484.874,2456.1674,
481.964,2464.35,
479.053,2475.6104,
476.143,2478.6823,
473.232,2451.5377,
470.321,2447.2005,
467.411,2438.1729,
464.500,2391.8556,
461.590,2391.0899,
458.679,2428.295,
455.769,2459.8202,
452.858,2465.0564,
449.947,2495.6136,
447.037,2497.0209,
444.126,2497.2023,
441.216,2503.1396,
438.305,2504.6634,
435.395,2535.0343,
432.484,2554.209,
429.573,2556.5675,
426.663,2546.6856,
423.752,2495.6608,
420.842,2343.2628,
417.931,2192.6153,
415.020,2209.2992,
412.110,2343.0286,
409.199,2418.2808,
406.289,2468.2591,
403.378,2536.9416,
400.468,2556.5975,
397.557,2537.1675,
394.646,2535.2307,
391.736,2596.3579,
388.825,2611.4425,
385.915,2632.373,
383.004,2646.0184,
380.094,2645.1802,
377.183,2670.7644,
374.272,2727.8108,
371.362,2767.5204,
368.451,2763.7898,
365.541,2795.3123,
362.630,2814.7998,
359.719,2826.5387,
356.809,2832.3313,
353.898,2823.3457,
350.988,2832.2672,
348.077,2834.6148,
345.167,2818.8428,
342.256,2857.6903,
339.345,2853.4635,
336.435,2830.7145,
333.524,2808.0964,
330.614,2846.8445,
327.703,2841.9326,
324.793,2831.2886,
321.882,2846.9219,
318.971,2866.2514,
316.061,2892.8959,
313.150,2907.6393,
310.240,2887.6022,
307.329,2907.5995,
304.418,2917.2429,
301.508,2914.5427,
298.597,2898.2535,
295.687,2878.5895,
292.776,2884.4584,
289.866,2922.7794,
286.955,3007.7328,
284.044,3093.8774,
281.134,3168.7198,
278.223,3228.9107,
275.313,3270.1746,
272.402,3300.9493,
269.492,3310.2211,
266.581,3295.875,
263.670,3295.875,
260.760,3315.7256,
257.849,3346.1931,
254.939,3381.4195,
252.028,3392.7327,
249.117,3416.5186,
246.207,3441.5797,
243.296,3448.168,
240.386,3412.9605,
237.475,3407.3215,
234.565,3414.2657,
231.654,3321.507,
228.743,3287.4908,
225.833,3273.2162,
222.922,3262.9725,
220.012,3222.1734,
217.101,3221.1429,
214.191,3225.7883,
211.280,3198.8721,
208.369,3198.2206,
205.459,3215.2443,
202.548,3245.8917,
199.638,3280.7229,
196.727,3225.6437,
193.816,3211.7834,
190.906,3284.0974,
187.995,3233.4156,
185.085,3240.9364,
182.174,3280.8239,
179.264,3324.9126,
176.353,3320.9041,
173.442,3309.349,
170.532,3295.1028,
167.621,3271.3106,
164.711,3228.0853,
161.800,3145.7221,
158.890,3001.7766,
155.979,2736.7386,
153.068,2501.2327,
150.158,2276.3516,
147.247,1967.6321,
144.337,1621.1706,
141.426,1267.0194,
138.516,917.89341,
135.605,676.71429,
132.694,469.53068,
129.784,298.71521,
126.873,185.00957,
123.963,118.62567,
121.052,81.908951,
118.141,71.914323,
115.231,59.795304,
112.320,48.944097,
109.410,39.647803,
106.499,33.238406,
103.589,24.591692,
100.678,18.331757,
97.767,16.909881,
94.857,16.182011,
91.946,17.084333,
89.036,17.181531,
86.125,6.5434523,
83.215,4.9368407,
80.304,5.875,
77.393,5.875,
74.483,14.391754,
71.572,15.976183,
68.662,10.667198,
65.751,8.5478443,
62.840,9.8018079,
59.930,10.37671,
57.019,4.7360545,
54.109,6.8608042,
51.198,9.7798278,
48.288,11.807051,
45.377,3.3665139,
42.466,6.4705094,
39.556,14.033103,
36.645,2.7980593,
33.735,2.4712423,
30.824,5.3167739,
27.914,6.7191244,
25.003,7.4976375,
22.092,8.8437137,
19.182,10.875,
16.271,10.875,
13.361,92.21639,
10.450,227.19181,
7.539,362.66499,
4.629,276.53863,
1.718,40.57164,
-1.192,-358.19503,
-4.103,-365.3728,
-7.013,-234.66946,
-9.924,-0.125,
