,PL9AB7~1,
Wavenumbers [1/cm],Intensity,
3014.167,0.5,
3011.256,-2.0500107,
3008.346,149.53751,
3005.435,180.19258,
3002.525,171.19743,
2999.614,182.40131,
2996.704,188.5,
2993.793,205.02304,
2990.882,203.31671,
2987.972,202.56558,
2985.061,220.8202,
2982.151,227.5,
2979.240,230.18346,
2976.329,243.77594,
2973.419,259.42298,
2970.508,269.66663,
2967.598,264.63976,
2964.687,263.73777,
2961.777,267.91012,
2958.866,274.83135,
2955.955,292.67697,
2953.045,308.86689,
2950.134,307.46792,
2947.224,304.12631,
2944.313,322.80342,
2941.403,329.92883,
2938.492,343.23443,
2935.581,341.23131,
2932.671,335.13948,
2929.760,348.00387,
2926.850,355.81353,
2923.939,357.5,
2921.028,363.66477,
2918.118,380.25818,
2915.207,362.55693,
2912.297,370.45769,
2909.386,370.08395,
2906.476,374.7865,
2903.565,376.40072,
2900.654,387.52532,
2897.744,364.51257,
2894.833,358.48982,
2891.923,356.609,
2889.012,357.29769,
2886.102,338.70811,
2883.191,329.50944,
2880.280,288.11242,
2877.370,237.14536,
2874.459,236.26106,
2871.549,284.67155,
2868.638,367.05047,
2865.727,377.03073,
2862.817,368.91312,
2859.906,387.32336,
2856.996,389.55434,
2854.085,380.14076,
2851.175,395.33432,
2848.264,406.92166,
2845.353,404.41373,
2842.443,398.10418,
2839.532,405.36561,
2836.622,386.22461,
2833.711,392.43252,
2830.801,393.31323,
2827.890,401.5647,
2824.979,412.5,
2822.069,403.7843,
2819.158,417.09837,
2816.248,408.21237,
2813.337,413.61341,
2810.427,423.1033,
2807.516,422.39938,
2804.605,423.58655,
2801.695,426.48682,
2798.784,425.76077,
2795.874,419.9248,
2792.963,422.21426,
2790.052,425.49914,
2787.142,416.71031,
2784.231,406.9829,
2781.321,422.00288,
2778.410,428.67005,
2775.500,426.73414,
2772.589,414.57797,
2769.678,425.39422,
2766.768,418.68835,
2763.857,424.02601,
2760.947,417.47478,
2758.036,438.06703,
2755.126,439.21154,
2752.215,443.84088,
2749.304,444.1169,
2746.394,453.71169,
2743.483,449.00002,
2740.573,456.92041,
2737.662,432.18047,
2734.751,445.40771,
2731.841,454.74359,
2728.930,458.23315,
2726.020,447.39294,
2723.109,444.29392,
2720.199,457.94991,
2717.288,467.23722,
2714.377,454.05016,
2711.467,476.31978,
2708.556,488.70168,
2705.646,463.09144,
2702.735,481.51548,
2699.825,486.22905,
2696.914,478.73819,
2694.003,470.68373,
2691.093,485.05355,
2688.182,471.51704,
2685.272,487.86273,
2682.361,486.41157,
2679.450,487.71402,
2676.540,483.98778,
2673.629,498.87224,
2670.719,482.14233,
2667.808,499.62456,
2664.898,491.01945,
2661.987,501.56684,
2659.076,504.13578,
2656.166,493.9848,
2653.255,502.61224,
2650.345,523.02087,
2647.434,523.15704,
2644.524,521.04437,
2641.613,520.07134,
2638.702,533.26328,
2635.792,533.56678,
2632.881,515.51165,
2629.971,536.96986,
2627.060,521.16438,
2624.149,540.87812,
2621.239,555.2752,
2618.328,527.1782,
2615.418,537.85454,
2612.507,529.7411,
2609.597,535.04092,
2606.686,538.33132,
2603.775,549.34525,
2600.865,563.44197,
2597.954,553.40417,
2595.044,555.79495,
2592.133,562.66559,
2589.223,563.28316,
2586.312,569.94216,
2583.401,576.68608,
2580.491,557.77404,
2577.580,577.46699,
2574.670,559.7139,
2571.759,583.66694,
2568.848,568.04128,
2565.938,594.92861,
2563.027,584.37731,
2560.117,583.12618,
2557.206,583.88376,
2554.296,563.85012,
2551.385,597.12803,
2548.474,596.27769,
2545.564,579.97483,
2542.653,591.1208,
2539.743,596.00616,
2536.832,630.9916,
2533.922,587.97308,
2531.011,619.14986,
2528.100,617.63587,
2525.190,617.24344,
2522.279,608.01588,
2519.369,616.38692,
2516.458,620.95113,
2513.548,627.69092,
2510.637,608.97558,
2507.726,630.25093,
2504.816,630.31285,
2501.905,635.74634,
2498.995,617.11241,
2496.084,637.28743,
2493.173,638.76358,
2490.263,629.55647,
2487.352,635.20947,
2484.442,657.48071,
2481.531,665.65432,
2478.621,647.21559,
2475.710,669.40032,
2472.799,661.43268,
2469.889,671.65235,
2466.978,668.66493,
2464.068,676.20373,
2461.157,651.5424,
2458.247,667.22057,
2455.336,675.39238,
2452.425,662.66979,
2449.515,690.54784,
2446.604,712.44936,
2443.694,712.29115,
2440.783,706.11599,
2437.872,699.02596,
2434.962,693.59216,
2432.051,711.54935,
2429.141,701.67069,
2426.230,711.58732,
2423.320,725.71439,
2420.409,718.47442,
2417.498,713.5,
2414.588,719.22241,
2411.677,739.96213,
2408.767,724.74114,
2405.856,736.10231,
2402.946,756.97632,
2400.035,733.42721,
2397.124,736.17379,
2394.214,741.8244,
2391.303,745.71545,
2388.393,760.44421,
2385.482,738.68967,
2382.571,722.28423,
2379.661,754.15093,
2376.750,759.87202,
2373.840,779.09049,
2370.929,769.69493,
2368.019,781.8128,
2365.108,786.36126,
2362.197,782.68084,
2359.287,775.12172,
2356.376,808.4366,
2353.466,794.71234,
2350.555,797.0302,
2347.645,806.6841,
2344.734,821.68437,
2341.823,789.11358,
2338.913,808.21045,
2336.002,814.46648,
2333.092,834.14342,
2330.181,832.67395,
2327.270,837.00495,
2324.360,831.9033,
2321.449,831.59183,
2318.539,838.77832,
2315.628,831.97162,
2312.718,827.03304,
2309.807,838.68603,
2306.896,869.25587,
2303.986,864.5389,
2301.075,848.09577,
2298.165,841.10572,
2295.254,882.57365,
2292.344,875.71584,
2289.433,857.17955,
2286.522,861.01339,
2283.612,857.35969,
2280.701,859.82735,
2277.791,883.45993,
2274.880,889.77586,
2271.969,911.85802,
2269.059,903.94142,
2266.148,887.44992,
2263.238,912.08685,
2260.327,914.91385,
2257.417,924.53278,
2254.506,932.24072,
2251.595,921.64547,
2248.685,941.59607,
2245.774,957.60975,
2242.864,944.30549,
2239.953,939.67934,
2237.043,929.60358,
2234.132,951.58299,
2231.221,964.55163,
2228.311,957.02062,
2225.400,950.61258,
2222.490,955.7997,
2219.579,976.54378,
2216.669,995.05008,
2213.758,1005.3732,
2210.847,997.15494,
2207.937,1010.7264,
2205.026,997.83294,
2202.116,1011.6465,
2199.205,1027.0995,
2196.294,1032.566,
2193.384,1053.657,
2190.473,1071.2218,
2187.563,1050.6837,
2184.652,1089.1024,
2181.742,1092.2045,
2178.831,1117.0021,
2175.920,1162.3233,
2173.010,1215.0034,
2170.099,1241.8988,
2167.189,1293.622,
2164.278,1320.4779,
2161.368,1399.6403,
2158.457,1467.3269,
2155.546,1519.4529,
2152.636,1571.6755,
2149.725,1641.755,
2146.815,1716.331,
2143.904,1766.013,
2140.993,1804.7168,
2138.083,1827.4058,
2135.172,1845.8279,
2132.262,1858.3636,
2129.351,1845.1931,
2126.441,1809.8106,
2123.530,1746.7929,
2120.619,1675.9682,
2117.709,1610.3704,
2114.798,1546.9766,
2111.888,1477.4385,
2108.977,1407.1821,
2106.067,1328.6887,
2103.156,1294.0235,
2100.245,1247.4906,
2097.335,1229.8508,
2094.424,1201.4047,
2091.514,1168.9247,
2088.603,1159.1774,
2085.692,1159.6375,
2082.782,1163.9136,
2079.871,1171.0718,
2076.961,1154.727,
2074.050,1139.3061,
2071.140,1134.6955,
2068.229,1133.4935,
2065.318,1146.093,
2062.408,1160.3941,
2059.497,1158.4821,
2056.587,1149.6628,
2053.676,1126.4513,
2050.766,1144.5755,
2047.855,1118.1013,
2044.944,1107.0272,
2042.034,1125.633,
2039.123,1139.3013,
2036.213,1139.6755,
2033.302,1134.9129,
2030.391,1141.9238,
2027.481,1147.939,
2024.570,1160.614,
2021.660,1148.3869,
2018.749,1141.2218,
2015.839,1158.4239,
2012.928,1147.3624,
2010.017,1135.1232,
2007.107,1152.3168,
2004.196,1183.2738,
2001.286,1173.9559,
1998.375,1145.8868,
1995.465,1156.0187,
1992.554,1136.8355,
1989.643,1133.5,
1986.733,1142.0184,
1983.822,1131.384,
1980.912,1114.1729,
1978.001,1105.1438,
1975.090,1129.8527,
1972.180,1148.5,
1969.269,1137.1781,
1966.359,1140.8245,
1963.448,1155.5357,
1960.538,1162.5575,
1957.627,1155.4752,
1954.716,1141.8734,
1951.806,1171.5994,
1948.895,1165.9758,
1945.985,1119.8105,
1943.074,1142.1826,
1940.164,1139.7402,
1937.253,1141.2736,
1934.342,1151.9358,
1931.432,1127.7587,
1928.521,1114.2012,
1925.611,1148.8178,
1922.700,1110.2652,
1919.790,1165.401,
1916.879,1178.3605,
1913.968,1107.5873,
1911.058,1112.2087,
1908.147,1147.046,
1905.237,1127.0809,
1902.326,1132.2259,
1899.415,1112.5793,
1896.505,1099.759,
1893.594,1101.8598,
1890.684,1119.3104,
1887.773,1141.7841,
1884.863,1137.4681,
1881.952,1121.8276,
1879.041,1169.9413,
1876.131,1143.3379,
1873.220,1164.8807,
1870.310,1147.222,
1867.399,1198.6363,
1864.489,1185.9548,
1861.578,1168.4838,
1858.667,1134.9281,
1855.757,1168.0943,
1852.846,1164.7,
1849.936,1154.2427,
1847.025,1210.2007,
1844.114,1213.7846,
1841.204,1193.0699,
1838.293,1210.9875,
1835.383,1211.942,
1832.472,1200.5696,
1829.562,1212.4701,
1826.651,1209.192,
1823.740,1253.002,
1820.830,1229.0587,
1817.919,1229.53,
1815.009,1259.0433,
1812.098,1213.2323,
1809.188,1274.0967,
1806.277,1263.832,
1803.366,1231.9492,
1800.456,1257.5108,
1797.545,1237.3654,
1794.635,1217.5942,
1791.724,1281.772,
1788.813,1239.5154,
1785.903,1287.5,
1782.992,1275.4284,
1780.082,1236.1735,
1777.171,1213.4957,
1774.261,1192.0249,
1771.350,1217.326,
1768.439,1274.3303,
1765.529,1311.7788,
1762.618,1343.7362,
1759.708,1339.5652,
1756.797,1344.6515,
1753.887,1370.758,
1750.976,1348.2238,
1748.065,1357.5952,
1745.155,1355.3131,
1742.244,1343.8107,
1739.334,1344.1306,
1736.423,1371.0551,
1733.512,1392.687,
1730.602,1332.9186,
1727.691,1362.1656,
1724.781,1427.8409,
1721.870,1439.0857,
1718.960,1434.3888,
1716.049,1441.8897,
1713.138,1458.0349,
1710.228,1420.4663,
1707.317,1483.4966,
1704.407,1465.5481,
1701.496,1488.0233,
1698.586,1486.8041,
1695.675,1489.3071,
1692.764,1490.4467,
1689.854,1501.9803,
1686.943,1519.8929,
1684.033,1607.2896,
1681.122,1627.1941,
1678.211,1567.0806,
1675.301,1592.4198,
1672.390,1667.4551,
1669.480,1653.1016,
1666.569,1727.4492,
1663.659,1724.7739,
1660.748,1802.8883,
1657.837,1872.2097,
1654.927,1815.0154,
1652.016,1837.6178,
1649.106,1883.7241,
1646.195,1931.7328,
1643.285,1901.252,
1640.374,1934.5035,
1637.463,1982.6529,
1634.553,2046.1354,
1631.642,2089.7812,
1628.732,2206.7963,
1625.821,2256.623,
1622.911,2443.4406,
1620.000,2509.6685,
1617.089,2717.301,
1614.179,2876.016,
1611.268,3036.4772,
1608.358,3170.2257,
1605.447,3283.0437,
1602.536,3314.661,
1599.626,3324.7794,
1596.715,3344.5596,
1593.805,3315.1984,
1590.894,3330.8747,
1587.984,3288.4632,
1585.073,3204.0757,
1582.162,3173.8023,
1579.252,3132.8581,
1576.341,3109.2798,
1573.431,3110.9822,
1570.520,3097.2125,
1567.610,3076.1076,
1564.699,3034.2485,
1561.788,3012.7536,
1558.878,2982.1895,
1555.967,2907.3975,
1553.057,2881.2413,
1550.146,2805.8384,
1547.235,2736.4289,
1544.325,2714.5826,
1541.414,2697.1588,
1538.504,2659.2409,
1535.593,2626.657,
1532.683,2582.3703,
1529.772,2545.2624,
1526.861,2512.8532,
1523.951,2472.6087,
1521.040,2488.2052,
1518.130,2426.3627,
1515.219,2390.4599,
1512.309,2387.0765,
1509.398,2356.3442,
1506.487,2332.9727,
1503.577,2319.2598,
1500.666,2350.8891,
1497.756,2292.407,
1494.845,2314.0992,
1491.934,2280.4811,
1489.024,2274.7061,
1486.113,2264.3006,
1483.203,2208.4336,
1480.292,2152.2863,
1477.382,2134.6093,
1474.471,2152.4519,
1471.560,2125.1194,
1468.650,2081.7527,
1465.739,2056.6117,
1462.829,2059.4523,
1459.918,2043.9529,
1457.008,2057.9773,
1454.097,2075.5596,
1451.186,2084.6199,
1448.276,2113.7034,
1445.365,2100.6777,
1442.455,2070.2743,
1439.544,2022.3329,
1436.633,2039.0045,
1433.723,2027.2357,
1430.812,2055.9932,
1427.902,2000.9657,
1424.991,2062.5703,
1422.081,1984.6795,
1419.170,1990.4609,
1416.259,1989.2597,
1413.349,2002.8496,
1410.438,1938.9216,
1407.528,1968.7242,
1404.617,1964.5109,
1401.707,1967.6467,
1398.796,2018.9894,
1395.885,2012.3619,
1392.975,1978.4382,
1390.064,2016.6236,
1387.154,2040.6029,
1384.243,2056.8121,
1381.332,2097.6267,
1378.422,2068.7703,
1375.511,2112.799,
1372.601,2217.6374,
1369.690,2195.64,
1366.780,2276.0398,
1363.869,2284.6969,
1360.958,2327.6958,
1358.048,2408.8646,
1355.137,2474.8356,
1352.227,2544.7944,
1349.316,2620.2744,
1346.406,2681.6415,
1343.495,2730.0331,
1340.584,2715.6061,
1337.674,2785.0024,
1334.763,2822.2177,
1331.853,2814.7999,
1328.942,2866.0889,
1326.032,2870.0531,
1323.121,2900.6205,
1320.210,2948.1256,
1317.300,2942.3005,
1314.389,2981.515,
1311.479,3067.2667,
1308.568,3142.9048,
1305.657,3206.1524,
1302.747,3226.8227,
1299.836,3288.6992,
1296.926,3414.8329,
1294.015,3486.5401,
1291.105,3523.8411,
1288.194,3663.4876,
1285.283,3761.2243,
1282.373,3857.3747,
1279.462,3914.9703,
1276.552,3962.8781,
1273.641,4030.5909,
1270.731,4071.2075,
1267.820,4057.0458,
1264.909,4042.4332,
1261.999,3977.3988,
1259.088,4002.026,
1256.178,4011.2081,
1253.267,3950.3572,
1250.356,3878.6742,
1247.446,3768.4246,
1244.535,3630.2056,
1241.625,3513.3594,
1238.714,3438.8842,
1235.804,3379.9904,
1232.893,3311.52,
1229.982,3218.9975,
1227.072,3174.6372,
1224.161,3154.6899,
1221.251,3106.0849,
1218.340,3060.0528,
1215.430,2997.8056,
1212.519,2959.5945,
1209.608,2952.1212,
1206.698,2932.5849,
1203.787,2911.2136,
1200.877,2921.1129,
1197.966,2931.0037,
1195.055,3044.1288,
1192.145,3097.3105,
1189.234,3218.1459,
1186.324,3319.504,
1183.413,3355.3832,
1180.503,3338.2882,
1177.592,3286.7017,
1174.681,3231.839,
1171.771,3212.9024,
1168.860,3187.0028,
1165.950,3121.6094,
1163.039,3082.0559,
1160.129,3088.6058,
1157.218,3085.5972,
1154.307,3059.8533,
1151.397,3036.4617,
1148.486,3007.6585,
1145.576,2958.5408,
1142.665,2982.5144,
1139.754,2976.3637,
1136.844,2930.3809,
1133.933,2906.808,
1131.023,2901.1395,
1128.112,2886.0018,
1125.202,2864.4662,
1122.291,2863.9906,
1119.380,2840.3228,
1116.470,2924.163,
1113.559,2927.5408,
1110.649,2943.1808,
1107.738,2930.5315,
1104.828,2935.6338,
1101.917,2956.7776,
1099.006,2930.1803,
1096.096,2946.2099,
1093.185,2925.1379,
1090.275,2892.7477,
1087.364,2913.631,
1084.453,2933.812,
1081.543,2935.9942,
1078.632,2932.1268,
1075.722,2925.9776,
1072.811,2895.7339,
1069.901,2927.1713,
1066.990,2964.2583,
1064.079,2991.5544,
1061.169,3003.2615,
1058.258,3015.6637,
1055.348,3047.7254,
1052.437,3082.1527,
1049.527,3036.2455,
1046.616,3081.4246,
1043.705,3084.9585,
1040.795,3138.1344,
1037.884,3184.6836,
1034.974,3196.0309,
1032.063,3191.123,
1029.153,3197.7343,
1026.242,3183.0301,
1023.331,3196.6658,
1020.421,3205.7739,
1017.510,3248.2796,
1014.600,3296.8401,
1011.689,3307.1017,
1008.778,3294.0256,
1005.868,3413.9942,
1002.957,3469.0569,
1000.047,3559.036,
997.136,3690.52,
994.226,3783.8073,
991.315,3793.8416,
988.404,3745.8799,
985.494,3705.6944,
982.583,3669.7191,
979.673,3622.0645,
976.762,3631.7454,
973.852,3660.5503,
970.941,3649.0113,
968.030,3602.7777,
965.120,3683.4284,
962.209,3666.3776,
959.299,3681.9145,
956.388,3677.1808,
953.477,3683.5301,
950.567,3697.0887,
947.656,3673.7309,
944.746,3698.368,
941.835,3697.8804,
938.925,3702.7644,
936.014,3673.633,
933.103,3646.384,
930.193,3647.3075,
927.282,3621.9042,
924.372,3610.9113,
921.461,3508.6132,
918.551,3456.8148,
915.640,3453.5739,
912.729,3454.5708,
909.819,3426.0543,
906.908,3415.1028,
903.998,3410.5232,
901.087,3426.0492,
898.176,3462.7001,
895.266,3510.9091,
892.355,3555.9971,
889.445,3585.3714,
886.534,3602.1974,
883.624,3635.1046,
880.713,3657.6657,
877.802,3661.6787,
874.892,3634.2769,
871.981,3541.7973,
869.071,3427.3457,
866.160,3424.059,
863.250,3495.4527,
860.339,3598.9627,
857.428,3659.6473,
854.518,3570.3927,
851.607,3532.1175,
848.697,3482.1675,
845.786,3430.3241,
842.875,3407.491,
839.965,3436.8451,
837.054,3512.2815,
834.144,3581.8967,
831.233,3566.8354,
828.323,3561.4023,
825.412,3556.6556,
822.501,3523.4786,
819.591,3501.1658,
816.680,3434.7948,
813.770,3399.7049,
810.859,3369.5479,
807.949,3332.1682,
805.038,3299.2788,
802.127,3338.7889,
799.217,3342.5,
796.306,3298.797,
793.396,3263.1641,
790.485,3256.973,
787.574,3248.7455,
784.664,3281.55,
781.753,3268.7124,
778.843,3285.4744,
775.932,3306.3273,
773.022,3301.7562,
770.111,3361.4394,
767.200,3372.3518,
764.290,3382.5903,
761.379,3376.2901,
758.469,3349.3386,
755.558,3317.6247,
752.648,3288.299,
749.737,3281.8472,
746.826,3291.2906,
743.916,3298.0324,
741.005,3281.1811,
738.095,3234.0923,
735.184,3149.8434,
732.274,3093.7828,
729.363,3117.2273,
726.452,3219.1942,
723.542,3283.9457,
720.631,3278.3255,
717.721,3273.7815,
714.810,3293.818,
711.899,3320.4109,
708.989,3285.7131,
706.078,3303.93,
703.168,3299.9989,
700.257,3272.2211,
697.347,3245.0647,
694.436,3260.1252,
691.525,3209.4855,
688.615,3206.0469,
685.704,3232.9481,
682.794,3252.9044,
679.883,3221.6081,
676.973,3224.0122,
674.062,3239.1759,
671.151,3239.6101,
668.241,3245.4626,
665.330,3297.6345,
662.420,3321.5964,
659.509,3284.5946,
656.598,3285.1667,
653.688,3300.4768,
650.777,3243.959,
647.867,3257.4966,
644.956,3261.7383,
642.046,3216.065,
639.135,3156.9979,
636.224,3181.8422,
633.314,3250.1209,
630.403,3300.0166,
627.493,3324.8044,
624.582,3325.4983,
621.672,3312.0344,
618.761,3306.1804,
615.850,3371.1695,
612.940,3432.6722,
610.029,3448.4728,
607.119,3460.3173,
604.208,3425.9993,
601.297,3448.8888,
598.387,3483.6337,
595.476,3481.4024,
592.566,3533.3489,
589.655,3468.6405,
586.745,3428.934,
583.834,3419.6187,
580.923,3384.2583,
578.013,3344.2369,
575.102,3357.0171,
572.192,3391.6497,
569.281,3414.767,
566.371,3371.7227,
563.460,3404.8898,
560.549,3431.2201,
557.639,3432.2946,
554.728,3404.7956,
551.818,3409.4775,
548.907,3414.7659,
545.996,3422.5543,
543.086,3442.4111,
540.175,3497.695,
537.265,3515.2613,
534.354,3515.9848,
531.444,3511.2213,
528.533,3514.5283,
525.622,3571.1725,
522.712,3568.9379,
519.801,3565.992,
516.891,3593.246,
513.980,3676.0957,
511.070,3692.6565,
508.159,3761.9266,
505.248,3835.5029,
502.338,3842.607,
499.427,3880.4268,
496.517,3961.7727,
493.606,4010.7796,
490.695,4003.2445,
487.785,4030.1871,
484.874,4039.0236,
481.964,4024.4736,
479.053,3994.4327,
476.143,3969.0899,
473.232,3962.4642,
470.321,3959.0403,
467.411,3944.5837,
464.500,3908.3424,
461.590,3981.0877,
458.679,4018.0088,
455.769,4026.774,
452.858,4020.0791,
449.947,4054.456,
447.037,4125.2099,
444.126,4155.0394,
441.216,4134.9708,
438.305,4131.9231,
435.395,4204.9313,
432.484,4234.3315,
429.573,4211.2049,
426.663,4167.1167,
423.752,4110.4962,
420.842,3962.8247,
417.931,3803.0802,
415.020,3762.8872,
412.110,4030.002,
409.199,4217.0085,
406.289,4303.5965,
403.378,4285.3771,
400.468,4249.0893,
397.557,4251.382,
394.646,4290.3572,
391.736,4362.2384,
388.825,4416.5431,
385.915,4405.8903,
383.004,4386.7831,
380.094,4401.3005,
377.183,4475.7957,
374.272,4544.2647,
371.362,4598.6277,
368.451,4631.3146,
365.541,4611.8007,
362.630,4614.1474,
359.719,4634.1145,
356.809,4667.4515,
353.898,4683.1763,
350.988,4671.7679,
348.077,4663.4369,
345.167,4676.5596,
342.256,4697.4775,
339.345,4713.5972,
336.435,4713.0619,
333.524,4687.8658,
330.614,4667.7466,
327.703,4654.3123,
324.793,4662.7097,
321.882,4706.5018,
318.971,4707.2452,
316.061,4735.8222,
313.150,4764.3452,
310.240,4760.6347,
307.329,4796.9465,
304.418,4843.4167,
301.508,4875.5923,
298.597,4853.3798,
295.687,4924.642,
292.776,4944.4999,
289.866,4948.8776,
286.955,5069.2898,
284.044,5182.6399,
281.134,5287.7483,
278.223,5381.9547,
275.313,5453.4297,
272.402,5498.1261,
269.492,5494.1518,
266.581,5441.2342,
263.670,5465.4951,
260.760,5540.4098,
257.849,5623.0302,
254.939,5681.7408,
252.028,5780.2191,
249.117,5811.1044,
246.207,5798.3859,
243.296,5778.6209,
240.386,5747.7684,
237.475,5725.9688,
234.565,5707.7927,
231.654,5658.857,
228.743,5599.0183,
225.833,5540.5475,
222.922,5491.1115,
220.012,5504.2255,
217.101,5508.0093,
214.191,5480.18,
211.280,5389.2471,
208.369,5395.2835,
205.459,5393.9142,
202.548,5392.9039,
199.638,5453.1328,
196.727,5417.6741,
193.816,5418.0207,
190.906,5499.662,
187.995,5475.7692,
185.085,5512.4213,
182.174,5555.2523,
179.264,5528.51,
176.353,5554.9758,
173.442,5566.4242,
170.532,5549.3513,
167.621,5479.4167,
164.711,5367.4745,
161.800,5220.3385,
158.890,5035.3685,
155.979,4629.3671,
153.068,4247.5219,
150.158,3863.233,
147.247,3332.6663,
144.337,2736.0455,
141.426,2131.3918,
138.516,1544.2579,
135.605,1141.0522,
132.694,799.0738,
129.784,520.40324,
126.873,335.18461,
123.963,232.626,
121.052,164.51962,
118.141,116.68819,
115.231,93.761749,
112.320,77.721825,
109.410,67.272803,
106.499,60.863406,
103.589,44.933384,
100.678,34.314865,
97.767,36.447678,
94.857,37.885978,
91.946,34.06578,
89.036,26.822613,
86.125,22.567381,
83.215,20.96908,
80.304,17.626808,
77.393,9.1287685,
74.483,22.257834,
71.572,25.151775,
68.662,17.22293,
65.751,14.397126,
62.840,16.390212,
59.930,18.376283,
57.019,14.145791,
54.109,13.5,
51.198,14.404828,
48.288,16.437713,
45.377,8.7005544,
42.466,8.3855354,
39.556,12.269763,
36.645,10.865382,
33.735,8.9422546,
30.824,7.9417739,
27.914,9.3441244,
25.003,10.745275,
22.092,12.145809,
19.182,13.98054,
16.271,28.669833,
13.361,112.04827,
10.450,243.61966,
7.539,389.56757,
4.629,351.0839,
1.718,147.14724,
-1.192,-284.38523,
-4.103,-269.01034,
-7.013,-154.48692,
-9.924,3.5,
