,PLA7BD~1,
Wavenumbers [1/cm],Intensity,
3014.167,-1.125,
3011.256,0.62505368,
3008.346,101.26377,
3005.435,137.68419,
3002.525,136.94994,
2999.614,136.20229,
2996.704,146.875,
2993.793,163.7788,
2990.882,146.39406,
2987.972,158.91031,
2985.061,161.88485,
2982.151,160.39769,
2979.240,177.1773,
2976.329,170.88592,
2973.419,190.02904,
2970.508,194.20827,
2967.598,186.63966,
2964.687,195.66644,
2961.777,202.46488,
2958.866,205.53771,
2955.955,206.32191,
2953.045,204.97568,
2950.134,213.51349,
2947.224,204.93194,
2944.313,222.15563,
2941.403,233.05338,
2938.492,249.17311,
2935.581,233.74621,
2932.671,251.55309,
2929.760,239.20192,
2926.850,242.56147,
2923.939,244.95914,
2921.028,249.3693,
2918.118,271.7755,
2915.207,275.28639,
2912.297,251.97232,
2909.386,259.86041,
2906.476,264.35532,
2903.565,268.64833,
2900.654,285.93364,
2897.744,259.93786,
2894.833,273.53463,
2891.923,273.71149,
2889.012,288.7883,
2886.102,295.64663,
2883.191,296.87122,
2880.280,339.65493,
2877.370,433.61323,
2874.459,506.91843,
2871.549,386.80894,
2868.638,347.91832,
2865.727,320.45194,
2862.817,311.68917,
2859.906,304.875,
2856.996,313.33651,
2854.085,316.59348,
2851.175,296.35091,
2848.264,296.8015,
2845.353,296.0044,
2842.443,296.68405,
2839.532,292.75557,
2836.622,290.15039,
2833.711,298.66777,
2830.801,298.47206,
2827.890,298.89422,
2824.979,292.15899,
2822.069,295.77265,
2819.158,289.91543,
2816.248,300.85184,
2813.337,315.62744,
2810.427,299.18355,
2807.516,299.45047,
2804.605,305.32693,
2801.695,309.78288,
2798.784,314.20969,
2795.874,301.4502,
2792.963,301.73223,
2790.052,299.87586,
2787.142,300.03285,
2784.231,292.03649,
2781.321,314.74928,
2778.410,303.74557,
2775.500,288.57741,
2772.589,287.64563,
2769.678,308.41084,
2766.768,305.44005,
2763.857,323.18906,
2760.947,320.95065,
2758.036,328.63931,
2755.126,333.96688,
2752.215,329.57938,
2749.304,325.72571,
2746.394,332.93346,
2743.483,331.37502,
2740.573,310.9059,
2737.662,329.07767,
2734.751,318.10798,
2731.841,341.2816,
2728.930,332.07843,
2726.020,331.43634,
2723.109,330.5555,
2720.199,334.67805,
2717.288,343.78741,
2714.377,340.26254,
2711.467,335.61237,
2708.556,350.35374,
2705.646,349.875,
2702.735,358.85437,
2699.825,346.21139,
2696.914,371.68502,
2694.003,352.71891,
2691.093,348.00015,
2688.182,346.52907,
2685.272,357.27329,
2682.361,369.7571,
2679.450,369.13431,
2676.540,351.9563,
2673.629,357.53418,
2670.719,369.22528,
2667.808,368.16681,
2664.898,381.51118,
2661.987,377.14138,
2659.076,355.40087,
2656.166,360.93991,
2653.255,373.57568,
2650.345,374.03471,
2647.434,380.98961,
2644.524,394.41937,
2641.613,397.56073,
2638.702,382.1275,
2635.792,394.90392,
2632.881,399.59546,
2629.971,410.81472,
2627.060,382.54125,
2624.149,391.84687,
2621.239,395.86907,
2618.328,408.875,
2615.418,407.21591,
2612.507,404.49555,
2609.597,416.68139,
2606.686,409.40714,
2603.775,418.91468,
2600.865,412.52345,
2597.954,413.5396,
2595.044,411.50034,
2592.133,416.5947,
2589.223,421.89922,
2586.312,417.38756,
2583.401,433.3422,
2580.491,429.54813,
2577.580,444.84694,
2574.670,433.96322,
2571.759,442.16781,
2568.848,425.17329,
2565.938,437.92255,
2563.027,445.67956,
2560.117,446.32361,
2557.206,449.77906,
2554.296,437.76287,
2551.385,445.56099,
2548.474,450.91218,
2545.564,451.93831,
2542.653,462.03272,
2539.743,472.2949,
2536.832,456.22078,
2533.922,472.10231,
2531.011,427.99965,
2528.100,428.74605,
2525.190,459.40368,
2522.279,455.57847,
2519.369,463.83763,
2516.458,469.33321,
2513.548,458.98445,
2510.637,459.30538,
2507.726,467.43634,
2504.816,470.875,
2501.905,468.44024,
2498.995,459.72629,
2496.084,483.66243,
2493.173,475.19089,
2490.263,489.04338,
2487.352,488.33247,
2484.442,482.4253,
2481.531,499.92818,
2478.621,495.50057,
2475.710,470.0897,
2472.799,492.44905,
2469.889,489.9332,
2466.978,504.15336,
2464.068,510.57873,
2461.157,514.02997,
2458.247,512.90434,
2455.336,511.46992,
2452.425,507.74292,
2449.515,511.69622,
2446.604,539.63071,
2443.694,542.24668,
2440.783,515.25225,
2437.872,537.72914,
2434.962,538.86578,
2432.051,544.58472,
2429.141,533.02798,
2426.230,546.83194,
2423.320,552.73255,
2420.409,536.2532,
2417.498,539.86658,
2414.588,545.96243,
2411.677,560.48056,
2408.767,550.12795,
2405.856,546.18455,
2402.946,549.08948,
2400.035,537.59095,
2397.124,556.0996,
2394.214,556.9018,
2391.303,547.9082,
2388.393,565.01692,
2385.482,517.43059,
2382.571,502.63361,
2379.661,533.73543,
2376.750,537.45381,
2373.840,562.97489,
2370.929,566.90749,
2368.019,579.875,
2365.108,581.85144,
2362.197,574.12427,
2359.287,582.04325,
2356.376,601.84682,
2353.466,591.08734,
2350.555,585.50491,
2347.645,592.53194,
2344.734,595.14688,
2341.823,590.92475,
2338.913,610.4541,
2336.002,599.79609,
2333.092,606.392,
2330.181,618.38395,
2327.270,617.93001,
2324.360,616.56365,
2321.449,633.875,
2318.539,626.21443,
2315.628,629.33663,
2312.718,641.82434,
2309.807,640.12355,
2306.896,628.36326,
2303.986,628.22569,
2301.075,638.81115,
2298.165,641.875,
2295.254,631.11197,
2292.344,665.40618,
2289.433,656.61637,
2286.522,663.04028,
2283.612,669.5064,
2280.701,652.77639,
2277.791,680.79485,
2274.880,677.59102,
2271.969,670.55401,
2269.059,676.37093,
2266.148,687.52275,
2263.238,715.8634,
2260.327,707.70297,
2257.417,733.77667,
2254.506,696.49324,
2251.595,702.30043,
2248.685,697.50964,
2245.774,702.08367,
2242.864,689.20913,
2239.953,718.77852,
2237.043,706.04393,
2234.132,707.875,
2231.221,689.39946,
2228.311,706.23064,
2225.400,749.83362,
2222.490,722.23023,
2219.579,752.03692,
2216.669,734.89408,
2213.758,755.66196,
2210.847,736.63323,
2207.937,763.40916,
2205.026,741.31843,
2202.116,768.08838,
2199.205,780.72395,
2196.294,785.57705,
2193.384,774.296,
2190.473,782.59683,
2187.563,798.846,
2184.652,794.98357,
2181.742,807.46598,
2178.831,824.70386,
2175.920,858.86408,
2173.010,884.10119,
2170.099,922.80458,
2167.189,939.96111,
2164.278,960.82576,
2161.368,1018.8743,
2158.457,1047.8547,
2155.546,1087.6164,
2152.636,1127.5664,
2149.725,1171.9958,
2146.815,1197.241,
2143.904,1232.585,
2140.993,1261.7638,
2138.083,1282.6166,
2135.172,1291.3708,
2132.262,1305.6444,
2129.351,1307.0784,
2126.441,1272.1856,
2123.530,1222.7291,
2120.619,1204.9211,
2117.709,1162.5364,
2114.798,1121.9403,
2111.888,1082.2511,
2108.977,1035.6233,
2106.067,983.43936,
2103.156,981.43302,
2100.245,968.83611,
2097.335,906.51374,
2094.424,904.59305,
2091.514,900.08193,
2088.603,892.14687,
2085.692,898.64822,
2082.782,883.61807,
2079.871,869.48177,
2076.961,861.32705,
2074.050,892.09924,
2071.140,875.42684,
2068.229,862.97657,
2065.318,848.72675,
2062.408,849.33718,
2059.497,857.28572,
2056.587,867.25862,
2053.676,869.05838,
2050.766,877.18217,
2047.855,862.81804,
2044.944,861.9391,
2042.034,868.638,
2039.123,856.65278,
2036.213,838.85502,
2033.302,854.20093,
2030.391,865.4512,
2027.481,881.75291,
2024.570,875.07531,
2021.660,854.99846,
2018.749,866.52084,
2015.839,880.9918,
2012.928,871.40353,
2010.017,890.91301,
2007.107,893.77776,
2004.196,883.79173,
2001.286,890.60293,
1998.375,891.52953,
1995.465,866.55715,
1992.554,885.16889,
1989.643,859.91191,
1986.733,867.51711,
1983.822,874.07884,
1980.912,851.25175,
1978.001,871.93437,
1975.090,871.86737,
1972.180,893.21806,
1969.269,882.30593,
1966.359,870.55083,
1963.448,854.22902,
1960.538,858.85915,
1957.627,854.74187,
1954.716,846.10481,
1951.806,899.88144,
1948.895,878.70702,
1945.985,862.44526,
1943.074,868.09253,
1940.164,881.93236,
1937.253,863.48351,
1934.342,871.34506,
1931.432,866.72043,
1928.521,879.51231,
1925.611,867.41416,
1922.700,823.46893,
1919.790,849.18674,
1916.879,861.38675,
1913.968,863.87254,
1911.058,844.97112,
1908.147,896.36545,
1905.237,849.30879,
1902.326,838.52239,
1899.415,824.77373,
1896.505,786.5501,
1893.594,852.95737,
1890.684,853.35223,
1887.773,870.79658,
1884.863,879.56748,
1881.952,888.31233,
1879.041,864.10241,
1876.131,878.30636,
1873.220,889.10511,
1870.310,885.23375,
1867.399,841.57872,
1864.489,852.34232,
1861.578,870.78656,
1858.667,929.21937,
1855.757,873.49433,
1852.846,861.42369,
1849.936,901.06017,
1847.025,928.99179,
1844.114,936.09383,
1841.204,934.56032,
1838.293,937.35754,
1835.383,934.75901,
1832.472,939.29413,
1829.562,926.87812,
1826.651,933.02077,
1823.740,936.05123,
1820.830,926.93006,
1817.919,962.33632,
1815.009,931.48824,
1812.098,948.21357,
1809.188,914.29369,
1806.277,989.12658,
1803.366,973.22619,
1800.456,934.875,
1797.545,938.47056,
1794.635,972.19797,
1791.724,965.66134,
1788.813,987.0714,
1785.903,965.55724,
1782.992,925.43683,
1780.082,883.17148,
1777.171,812.20101,
1774.261,797.28525,
1771.350,888.13128,
1768.439,998.13091,
1765.529,998.87406,
1762.618,999.63876,
1759.708,1002.2771,
1756.797,1008.0947,
1753.887,1019.1316,
1750.976,1009.0818,
1748.065,1034.6692,
1745.155,1062.2621,
1742.244,1038.0653,
1739.334,1024.5597,
1736.423,1037.5927,
1733.512,1058.1555,
1730.602,1054.8988,
1727.691,1081.8138,
1724.781,1091.6616,
1721.870,1078.194,
1718.960,1072.4083,
1716.049,1036.6381,
1713.138,1074.3348,
1710.228,1089.7077,
1707.317,1103.259,
1704.407,1100.383,
1701.496,1120.8406,
1698.586,1115.4831,
1695.675,1148.5605,
1692.764,1156.5553,
1689.854,1140.6112,
1686.943,1184.3236,
1684.033,1193.6763,
1681.122,1206.6541,
1678.211,1238.5704,
1675.301,1186.0384,
1672.390,1250.9378,
1669.480,1272.0515,
1666.569,1294.6368,
1663.659,1353.3687,
1660.748,1323.6848,
1657.837,1365.378,
1654.927,1387.7579,
1652.016,1382.6806,
1649.106,1376.0011,
1646.195,1421.858,
1643.285,1460.0749,
1640.374,1384.4847,
1637.463,1461.2621,
1634.553,1537.5252,
1631.642,1581.8956,
1628.732,1674.8928,
1625.821,1677.9502,
1622.911,1792.227,
1620.000,1825.4592,
1617.089,1957.2083,
1614.179,2084.2653,
1611.268,2203.4137,
1608.358,2289.8482,
1605.447,2374.0185,
1602.536,2456.2216,
1599.626,2481.1936,
1596.715,2438.4025,
1593.805,2424.9317,
1590.894,2386.8869,
1587.984,2362.821,
1585.073,2353.0685,
1582.162,2355.2145,
1579.252,2287.1377,
1576.341,2291.1005,
1573.431,2266.8976,
1570.520,2249.7025,
1567.610,2219.3059,
1564.699,2205.5248,
1561.788,2185.5653,
1558.878,2095.2607,
1555.967,2094.5329,
1553.057,2069.8582,
1550.146,2041.1877,
1547.235,1989.2876,
1544.325,1979.1929,
1541.414,1954.6704,
1538.504,1923.5268,
1535.593,1890.8957,
1532.683,1889.4641,
1529.772,1903.3942,
1526.861,1850.6098,
1523.951,1809.2754,
1521.040,1773.0136,
1518.130,1769.1652,
1515.219,1753.9939,
1512.309,1791.6363,
1509.398,1782.934,
1506.487,1757.9935,
1503.577,1728.6384,
1500.666,1734.8457,
1497.756,1707.0704,
1494.845,1754.0329,
1491.934,1661.9852,
1489.024,1695.6725,
1486.113,1620.8433,
1483.203,1606.8815,
1480.292,1610.9661,
1477.382,1581.9698,
1474.471,1591.7573,
1471.560,1603.406,
1468.650,1564.8786,
1465.739,1540.7511,
1462.829,1531.9068,
1459.918,1521.7976,
1457.008,1555.4601,
1454.097,1567.9185,
1451.186,1525.1516,
1448.276,1515.0992,
1445.365,1545.3418,
1442.455,1575.875,
1439.544,1576.0993,
1436.633,1574.7777,
1433.723,1561.7594,
1430.812,1539.2101,
1427.902,1530.7397,
1424.991,1525.0531,
1422.081,1494.5983,
1419.170,1503.9718,
1416.259,1488.8637,
1413.349,1497.7141,
1410.438,1474.5836,
1407.528,1491.1996,
1404.617,1494.5453,
1401.707,1494.354,
1398.796,1511.7876,
1395.885,1546.0248,
1392.975,1572.1456,
1390.064,1543.688,
1387.154,1511.6512,
1384.243,1554.0512,
1381.332,1653.863,
1378.422,1675.2182,
1375.511,1623.6953,
1372.601,1653.2868,
1369.690,1667.8761,
1366.780,1709.4768,
1363.869,1713.3367,
1360.958,1743.8858,
1358.048,1798.2536,
1355.137,1862.2499,
1352.227,1915.6333,
1349.316,1936.3197,
1346.406,1969.3186,
1343.495,2042.1346,
1340.584,2040.4817,
1337.674,2077.4143,
1334.763,2131.6633,
1331.853,2126.0999,
1328.942,2095.6332,
1326.032,2184.8558,
1323.121,2187.3509,
1320.210,2212.1733,
1317.300,2220.7922,
1314.389,2227.6947,
1311.479,2251.9817,
1308.568,2306.2309,
1305.657,2388.8896,
1302.747,2448.4765,
1299.836,2518.6809,
1296.926,2499.6352,
1294.015,2580.5356,
1291.105,2630.5437,
1288.194,2691.9883,
1285.283,2718.0471,
1282.373,2761.4764,
1279.462,2844.266,
1276.552,2903.1664,
1273.641,2908.1809,
1270.731,2925.9258,
1267.820,2996.0685,
1264.909,3008.7424,
1261.999,2957.1413,
1259.088,2964.4383,
1256.178,2900.6408,
1253.267,2856.1184,
1250.356,2833.6844,
1247.446,2742.7996,
1244.535,2669.4956,
1241.625,2634.0751,
1238.714,2605.6113,
1235.804,2589.1907,
1232.893,2501.3742,
1229.982,2502.6365,
1227.072,2436.5488,
1224.161,2441.1205,
1221.251,2393.7374,
1218.340,2343.8366,
1215.430,2301.1009,
1212.519,2291.7412,
1209.608,2297.4331,
1206.698,2283.109,
1203.787,2279.7845,
1200.877,2279.2242,
1197.966,2365.5435,
1195.055,2407.4179,
1192.145,2430.4046,
1189.234,2540.3306,
1186.324,2612.1492,
1183.413,2589.1034,
1180.503,2537.4671,
1177.592,2517.9052,
1174.681,2486.2586,
1171.771,2426.8132,
1168.860,2424.1339,
1165.950,2411.7807,
1163.039,2397.0022,
1160.129,2380.6678,
1157.218,2362.7795,
1154.307,2368.2001,
1151.397,2383.6231,
1148.486,2347.6761,
1145.576,2340.6052,
1142.665,2334.3898,
1139.754,2329.8069,
1136.844,2308.5662,
1133.933,2244.7434,
1131.023,2224.7588,
1128.112,2241.947,
1125.202,2233.4257,
1122.291,2228.875,
1119.380,2229.1868,
1116.470,2260.9578,
1113.559,2283.433,
1110.649,2290.8395,
1107.738,2283.3019,
1104.828,2294.5995,
1101.917,2323.5378,
1099.006,2326.5452,
1096.096,2312.8101,
1093.185,2344.4182,
1090.275,2319.3598,
1087.364,2314.9334,
1084.453,2305.1882,
1081.543,2315.2803,
1078.632,2349.8438,
1075.722,2367.669,
1072.811,2340.6268,
1069.901,2337.1337,
1066.990,2342.5333,
1064.079,2379.9422,
1061.169,2393.5612,
1058.258,2403.5796,
1055.348,2427.636,
1052.437,2443.0551,
1049.527,2438.4051,
1046.616,2426.2415,
1043.705,2476.5163,
1040.795,2472.0814,
1037.884,2481.1045,
1034.974,2504.5992,
1032.063,2514.2133,
1029.153,2524.5634,
1026.242,2521.9685,
1023.331,2565.2056,
1020.421,2561.3272,
1017.510,2569.8819,
1014.600,2595.2546,
1011.689,2599.1961,
1008.778,2563.8335,
1005.868,2587.6318,
1002.957,2671.9465,
1000.047,2799.171,
997.136,2908.8301,
994.226,2939.3676,
991.315,2916.7438,
988.404,2909.6052,
985.494,2897.2804,
982.583,2870.7272,
979.673,2817.123,
976.762,2809.4428,
973.852,2797.8686,
970.941,2786.0266,
968.030,2824.0428,
965.120,2875.5671,
962.209,2802.2485,
959.299,2863.5329,
956.388,2877.0761,
953.477,2877.0279,
950.567,2899.5349,
947.656,2905.3072,
944.746,2870.4754,
941.835,2925.5619,
938.925,2917.8174,
936.014,2910.9216,
933.103,2903.9291,
930.193,2867.6947,
927.282,2804.479,
924.372,2834.0752,
921.461,2795.1638,
918.551,2740.3715,
915.640,2728.0229,
912.729,2728.9432,
909.819,2676.3232,
906.908,2710.0202,
903.998,2697.5584,
901.087,2695.148,
898.176,2718.7804,
895.266,2751.1752,
892.355,2775.0421,
889.445,2818.684,
886.534,2794.6637,
883.624,2849.7571,
880.713,2890.1028,
877.802,2843.9028,
874.892,2695.1418,
871.981,2507.626,
869.071,2412.3889,
866.160,2538.0067,
863.250,2716.1512,
860.339,2823.4547,
857.428,2828.9185,
854.518,2822.9493,
851.607,2756.3837,
848.697,2649.2684,
845.786,2626.1147,
842.875,2674.5866,
839.965,2743.7055,
837.054,2807.3867,
834.144,2852.9681,
831.233,2850.5425,
828.323,2844.3804,
825.412,2823.9133,
822.501,2784.7049,
819.591,2800.4064,
816.680,2804.8814,
813.770,2765.1523,
810.859,2710.6419,
807.949,2670.0164,
805.038,2661.4679,
802.127,2674.638,
799.217,2652.0225,
796.306,2630.8208,
793.396,2629.0507,
790.485,2643.9808,
787.574,2652.093,
784.664,2657.8337,
781.753,2660.217,
778.843,2674.1072,
775.932,2711.64,
773.022,2755.3652,
770.111,2694.0468,
767.200,2713.4757,
764.290,2697.182,
761.379,2686.5707,
758.469,2698.1306,
755.558,2702.5103,
752.648,2690.2913,
749.737,2651.3188,
746.826,2629.5439,
743.916,2644.1869,
741.005,2683.8312,
738.095,2639.178,
735.184,2639.5955,
732.274,2658.1778,
729.363,2683.9706,
726.452,2705.875,
723.542,2705.875,
720.631,2690.5842,
717.721,2697.3319,
714.810,2716.534,
711.899,2723.9047,
708.989,2681.1376,
706.078,2687.2854,
703.168,2659.1212,
700.257,2646.8887,
697.347,2650.7887,
694.436,2628.7004,
691.525,2622.27,
688.615,2620.2461,
685.704,2631.5307,
682.794,2646.641,
679.883,2646.9563,
676.973,2670.9974,
674.062,2682.2558,
671.151,2667.9035,
668.241,2649.64,
665.330,2664.2321,
662.420,2650.6537,
659.509,2654.2243,
656.598,2648.3545,
653.688,2645.5368,
650.777,2676.7409,
647.867,2643.2951,
644.956,2614.2047,
642.046,2560.2444,
639.135,2528.6569,
636.224,2626.1694,
633.314,2684.9209,
630.403,2677.409,
627.493,2682.615,
624.582,2716.0516,
621.672,2716.8436,
618.761,2735.8735,
615.850,2735.8141,
612.940,2751.3671,
610.029,2799.0294,
607.119,2847.9865,
604.208,2847.1949,
601.297,2859.332,
598.387,2873.875,
595.476,2876.549,
592.566,2904.8835,
589.655,2846.3818,
586.745,2785.8369,
583.834,2755.1688,
580.923,2766.875,
578.013,2766.875,
575.102,2743.9315,
572.192,2743.6674,
569.281,2770.6412,
566.371,2752.6409,
563.460,2785.4429,
560.549,2792.5658,
557.639,2785.1436,
554.728,2784.3476,
551.818,2760.1578,
548.907,2801.7998,
545.996,2847.4266,
543.086,2857.2797,
540.175,2789.5375,
537.265,2814.5705,
534.354,2827.3801,
531.444,2848.1024,
528.533,2895.5022,
525.622,2862.1364,
522.712,2894.9207,
519.801,2917.82,
516.891,2916.0051,
513.980,2931.491,
511.070,2956.1185,
508.159,2989.2758,
505.248,3025.3902,
502.338,3059.202,
499.427,3138.7007,
496.517,3143.471,
493.606,3160.8228,
490.695,3220.196,
487.785,3222.5053,
484.874,3202.1958,
481.964,3171.7722,
479.053,3152.2293,
476.143,3182.9478,
473.232,3143.869,
470.321,3147.8246,
467.411,3169.3815,
464.500,3170.5841,
461.590,3159.098,
458.679,3161.9282,
455.769,3167.5051,
452.858,3172.7722,
449.947,3210.2048,
447.037,3247.6063,
444.126,3273.1598,
441.216,3293.2675,
438.305,3347.3646,
435.395,3326.6826,
432.484,3302.7065,
429.573,3280.9999,
426.663,3242.9929,
423.752,2978.3429,
420.842,2627.855,
417.931,2384.8749,
415.020,2522.1377,
412.110,2942.4313,
409.199,3227.8822,
406.289,3352.1162,
403.378,3306.4601,
400.468,3183.989,
397.557,3239.4785,
394.646,3351.5,
391.736,3414.2271,
388.825,3456.4641,
385.915,3468.875,
383.004,3483.4377,
380.094,3518.8769,
377.183,3499.3125,
374.272,3535.1263,
371.362,3566.6374,
368.451,3562.1576,
365.541,3616.1962,
362.630,3607.9329,
359.719,3600.7137,
356.809,3630.9139,
353.898,3664.6098,
350.988,3663.5678,
348.077,3647.9052,
345.167,3632.7671,
342.256,3670.1205,
339.345,3654.3034,
336.435,3631.9854,
333.524,3634.6401,
330.614,3627.1886,
327.703,3644.8978,
324.793,3674.7022,
321.882,3705.7939,
318.971,3672.339,
316.061,3680.4076,
313.150,3699.9512,
310.240,3696.9827,
307.329,3723.3166,
304.418,3729.3155,
301.508,3739.0381,
298.597,3796.0502,
295.687,3772.4309,
292.776,3799.2919,
289.866,3869.1087,
286.955,3931.9004,
284.044,3985.7825,
281.134,4036.314,
278.223,4085.4197,
275.313,4136.9995,
272.402,4139.7424,
269.492,4088.8819,
266.581,3998.8642,
263.670,4096.6432,
260.760,4138.457,
257.849,4180.9004,
254.939,4266.7646,
252.028,4289.5903,
249.117,4288.7385,
246.207,4291.1338,
243.296,4342.3763,
240.386,4341.9981,
237.475,4332.728,
234.565,4311.9468,
231.654,4242.5603,
228.743,4215.2169,
225.833,4179.0441,
222.922,4119.8115,
220.012,4161.3392,
217.101,4173.4029,
214.191,4142.1508,
211.280,4043.2159,
208.369,4071.5341,
205.459,4062.1252,
202.548,4031.7776,
199.638,4089.1038,
196.727,4111.8231,
193.816,4121.0791,
190.906,4123.2655,
187.995,4105.8889,
185.085,4111.6964,
182.174,4128.205,
179.264,4140.492,
176.353,4132.9041,
173.442,4110.1097,
170.532,4073.0785,
167.621,4023.3312,
164.711,3905.287,
161.800,3747.222,
158.890,3560.8125,
155.979,3304.0093,
153.068,3047.8054,
150.158,2769.5946,
147.247,2368.2593,
144.337,1965.4817,
141.426,1556.0834,
138.516,1136.702,
135.605,820.38034,
132.694,557.52558,
129.784,353.55143,
126.873,244.13656,
123.963,171.79683,
121.052,122.82672,
118.141,94.984542,
115.231,79.242452,
112.320,61.43683,
109.410,43.693316,
106.499,32.298832,
103.589,30.995509,
100.678,30.788513,
97.767,27.944763,
94.857,30.646956,
91.946,31.471889,
89.036,29.407327,
86.125,20.187659,
83.215,19.998681,
80.304,23.072163,
77.393,26.613013,
74.483,18.358246,
71.572,14.237352,
68.662,14.944267,
65.751,15.650719,
62.840,13.46649,
59.930,11.811431,
57.019,15.336841,
54.109,12.292035,
51.198,8.0653443,
48.288,3.9202995,
45.377,9.5473241,
42.466,13.111658,
39.556,13.723814,
36.645,6.7019121,
33.735,4.875,
30.824,4.2123391,
27.914,2.1088133,
25.003,0.0070875738,
22.092,-3.3853319,
19.182,-8.7657202,
16.271,-28.351444,
13.361,-107.3514,
10.450,-279.40227,
7.539,-710.96117,
4.629,-1031.7203,
1.718,-1187.9965,
-1.192,-1060.419,
-4.103,-677.09263,
-7.013,-306.35516,
-9.924,-0.125,
