,Pliquid_AuCOFNPs-citrate13new_1E-1mgmL_100uL_ctr_1E-2mgL_16h_785nm_133mW_3s_1acc_1_RamanShift__4__49,
Raman shift [1/cm],Intensity,
3014.167,1.375,
3011.256,-0.12510737,
3008.346,258.00321,
3005.435,309.45274,
3002.525,328.43261,
2999.614,340.66201,
2996.704,347.23376,
2993.793,363.49885,
2990.882,356.46665,
2987.972,363.44563,
2985.061,372.0548,
2982.151,406.76663,
2979.240,409.75616,
2976.329,419.1209,
2973.419,438.23688,
2970.508,445.95822,
2967.598,441.95211,
2964.687,479.10598,
2961.777,482.65702,
2958.866,500.37055,
2955.955,489.68033,
2953.045,522.10878,
2950.134,542.35463,
2947.224,552.08672,
2944.313,566.93696,
2941.403,566.6729,
2938.492,589.375,
2935.581,612.61667,
2932.671,610.73119,
2929.760,598.85963,
2926.850,614.85244,
2923.939,622.73481,
2921.028,628.76917,
2918.118,644.95308,
2915.207,654.09683,
2912.297,631.54425,
2909.386,643.19981,
2906.476,650.15029,
2903.565,646.06908,
2900.654,635.53982,
2897.744,636.24928,
2894.833,635.85936,
2891.923,632.34609,
2889.012,629.54263,
2886.102,640.87228,
2883.191,625.3986,
2880.280,611.88217,
2877.370,594.74131,
2874.459,579.12985,
2871.549,623.44106,
2868.638,666.15024,
2865.727,658.42884,
2862.817,651.44586,
2859.906,663.22399,
2856.996,668.45199,
2854.085,681.30363,
2851.175,672.39613,
2848.264,674.42916,
2845.353,657.28873,
2842.443,660.96177,
2839.532,666.16608,
2836.622,651.80208,
2833.711,664.32319,
2830.801,625.60587,
2827.890,661.47814,
2824.979,657.65899,
2822.069,674.19305,
2819.158,659.13511,
2816.248,656.63947,
2813.337,679.48841,
2810.427,683.24277,
2807.516,667.01547,
2804.605,678.14904,
2801.695,675.63816,
2798.784,695.89654,
2795.874,676.21403,
2792.963,665.73148,
2790.052,667.37135,
2787.142,669.67781,
2784.231,667.79583,
2781.321,692.17489,
2778.410,667.2595,
2775.500,666.88707,
2772.589,690.33601,
2769.678,683.76748,
2766.768,698.36143,
2763.857,698.00699,
2760.947,703.38761,
2758.036,709.61069,
2755.126,708.69979,
2752.215,716.48391,
2749.304,724.31023,
2746.394,708.52824,
2743.483,718.02495,
2740.573,724.82631,
2737.662,711.38535,
2734.751,720.60798,
2731.841,727.72665,
2728.930,730.08702,
2726.020,723.94676,
2723.109,739.92133,
2720.199,727.96244,
2717.288,741.18157,
2714.377,751.34156,
2711.467,764.58819,
2708.556,772.84279,
2705.646,761.40311,
2702.735,747.23327,
2699.825,773.82046,
2696.914,773.13681,
2694.003,762.10019,
2691.093,774.87441,
2688.182,767.77574,
2685.272,760.49022,
2682.361,765.4929,
2679.450,770.36259,
2676.540,777.35468,
2673.629,772.7248,
2670.719,768.58665,
2667.808,777.03455,
2664.898,769.089,
2661.987,787.07503,
2659.076,779.64656,
2656.166,795.08494,
2653.255,805.59439,
2650.345,804.75068,
2647.434,843.8317,
2644.524,821.58361,
2641.613,832.26124,
2638.702,839.40656,
2635.792,830.52855,
2632.881,836.94072,
2629.971,818.5226,
2627.060,828.37313,
2624.149,836.48438,
2621.239,837.39279,
2618.328,837.84126,
2615.418,849.70227,
2612.507,848.03114,
2609.597,852.64047,
2606.686,848.3228,
2603.775,857.33532,
2600.865,859.90402,
2597.954,880.75831,
2595.044,884.08005,
2592.133,874.15206,
2589.223,881.39922,
2586.312,885.05841,
2583.401,896.90423,
2580.491,890.67793,
2577.580,910.3585,
2574.670,901.75869,
2571.759,911.43065,
2568.848,915.55179,
2565.938,918.37514,
2563.027,899.74091,
2560.117,892.1133,
2557.206,912.68865,
2554.296,914.60612,
2551.385,922.74697,
2548.474,923.59731,
2545.564,923.43831,
2542.653,950.35487,
2539.743,944.20248,
2536.832,960.64042,
2533.922,939.59577,
2531.011,957.77463,
2528.100,970.44121,
2525.190,963.46926,
2522.279,993.1239,
2519.369,941.94137,
2516.458,957.17245,
2513.548,972.90236,
2510.637,974.10014,
2507.726,959.36018,
2504.816,970.7459,
2501.905,961.60671,
2498.995,984.43472,
2496.084,984.14851,
2493.173,979.71705,
2490.263,987.9479,
2487.352,990.1262,
2484.442,1000.8247,
2481.531,996.48658,
2478.621,1010.4461,
2475.710,1027.145,
2472.799,1001.0745,
2469.889,1030.7961,
2466.978,1029.4474,
2464.068,1028.0787,
2461.157,1021.53,
2458.247,1038.3163,
2455.336,1053.7155,
2452.425,1058.7241,
2449.515,1062.0444,
2446.604,1051.0155,
2443.694,1075.329,
2440.783,1091.0428,
2437.872,1080.7761,
2434.962,1084.0202,
2432.051,1069.227,
2429.141,1084.6278,
2426.230,1069.6788,
2423.320,1104.2898,
2420.409,1082.7532,
2417.498,1083.9733,
2414.588,1117.892,
2411.677,1122.124,
2408.767,1118.6634,
2405.856,1131.6583,
2402.946,1134.0059,
2400.035,1097.4125,
2397.124,1148.1718,
2394.214,1158.4822,
2391.303,1151.9827,
2388.393,1145.1634,
2385.482,1132.8156,
2382.571,1155.439,
2379.661,1146.0026,
2376.750,1172.9538,
2373.840,1173.375,
2370.929,1201.0718,
2368.019,1183.6151,
2365.108,1197.0268,
2362.197,1186.7914,
2359.287,1201.9382,
2356.376,1176.4278,
2353.466,1192.375,
2350.555,1192.375,
2347.645,1202.4399,
2344.734,1215.6792,
2341.823,1209.5077,
2338.913,1241.3824,
2336.002,1214.3869,
2333.092,1218.9844,
2330.181,1251.6255,
2327.270,1268.21,
2324.360,1252.8702,
2321.449,1271.4974,
2318.539,1268.482,
2315.628,1256.6364,
2312.718,1271.4565,
2309.807,1311.077,
2306.896,1292.1152,
2303.986,1288.375,
2301.075,1297.6303,
2298.165,1276.2399,
2295.254,1277.2027,
2292.344,1279.0057,
2289.433,1292.4523,
2286.522,1314.4286,
2283.612,1309.4745,
2280.701,1298.5858,
2277.791,1322.4132,
2274.880,1312.8567,
2271.969,1358.8935,
2269.059,1351.1407,
2266.148,1366.8842,
2263.238,1374.2746,
2260.327,1395.3404,
2257.417,1382.5611,
2254.506,1396.0844,
2251.595,1403.5241,
2248.685,1391.7462,
2245.774,1376.7598,
2242.864,1404.3102,
2239.953,1405.8784,
2237.043,1417.4921,
2234.132,1433.9386,
2231.221,1449.0598,
2228.311,1449.6353,
2225.400,1448.4445,
2222.490,1481.2902,
2219.579,1479.4445,
2216.669,1514.3559,
2213.758,1501.4155,
2210.847,1524.6168,
2207.937,1512.2301,
2205.026,1563.4861,
2202.116,1578.5342,
2199.205,1621.2623,
2196.294,1615.821,
2193.384,1626.848,
2190.473,1644.6708,
2187.563,1698.781,
2184.652,1786.2909,
2181.742,1827.2864,
2178.831,1925.1379,
2175.920,2048.3313,
2173.010,2156.5303,
2170.099,2291.5625,
2167.189,2449.8245,
2164.278,2656.978,
2161.368,2761.0813,
2158.457,2979.1756,
2155.546,3159.4454,
2152.636,3310.2684,
2149.725,3395.9656,
2146.815,3518.5376,
2143.904,3586.9028,
2140.993,3635.9837,
2138.083,3591.7883,
2135.172,3601.0387,
2132.262,3560.0951,
2129.351,3477.1435,
2126.441,3371.3262,
2123.530,3300.2537,
2120.619,3092.5961,
2117.709,2910.1649,
2114.798,2709.6013,
2111.888,2549.5782,
2108.977,2370.0239,
2106.067,2227.7453,
2103.156,2101.194,
2100.245,2066.3035,
2097.335,1944.1865,
2094.424,1886.5291,
2091.514,1868.3479,
2088.603,1811.9833,
2085.692,1784.5981,
2082.782,1760.9454,
2079.871,1766.0541,
2076.961,1727.2164,
2074.050,1743.6295,
2071.140,1707.1223,
2068.229,1692.6537,
2065.318,1687.2888,
2062.408,1690.375,
2059.497,1698.7917,
2056.587,1660.399,
2053.676,1663.607,
2050.766,1676.6822,
2047.855,1667.72,
2044.944,1642.9808,
2042.034,1622.6351,
2039.123,1628.1191,
2036.213,1664.395,
2033.302,1638.1797,
2030.391,1645.493,
2027.481,1643.7532,
2024.570,1674.6169,
2021.660,1641.8584,
2018.749,1678.1091,
2015.839,1672.9892,
2012.928,1686.3633,
2010.017,1677.8701,
2007.107,1647.3302,
2004.196,1675.2679,
2001.286,1659.9546,
1998.375,1631.7205,
1995.465,1654.333,
1992.554,1637.7105,
1989.643,1639.2022,
1986.733,1613.5022,
1983.822,1584.3248,
1980.912,1607.2363,
1978.001,1612.1542,
1975.090,1612.2483,
1972.180,1596.4082,
1969.269,1626.2256,
1966.359,1613.726,
1963.448,1623.7515,
1960.538,1631.5635,
1957.627,1639.3998,
1954.716,1604.4379,
1951.806,1591.9343,
1948.895,1568.966,
1945.985,1600.7835,
1943.074,1594.2423,
1940.164,1576.9328,
1937.253,1568.7405,
1934.342,1567.529,
1931.432,1566.9018,
1928.521,1556.622,
1925.611,1551.8881,
1922.700,1533.5463,
1919.790,1601.721,
1916.879,1590.1187,
1913.968,1558.4119,
1911.058,1620.6663,
1908.147,1578.3896,
1905.237,1558.728,
1902.326,1571.7172,
1899.415,1532.7665,
1896.505,1534.7727,
1893.594,1551.6463,
1890.684,1546.63,
1887.773,1536.4871,
1884.863,1539.4775,
1881.952,1540.98,
1879.041,1603.1637,
1876.131,1559.8535,
1873.220,1557.5786,
1870.310,1583.5095,
1867.399,1567.6629,
1864.489,1586.4404,
1861.578,1562.1608,
1858.667,1551.5486,
1855.757,1562.9585,
1852.846,1573.334,
1849.936,1571.7453,
1847.025,1612.4383,
1844.114,1612.0904,
1841.204,1617.9205,
1838.293,1599.3584,
1835.383,1626.863,
1832.472,1623.5837,
1829.562,1649.0643,
1826.651,1642.3401,
1823.740,1663.5896,
1820.830,1637.0203,
1817.919,1635.9619,
1815.009,1647.7936,
1812.098,1675.4065,
1809.188,1655.8634,
1806.277,1666.1094,
1803.366,1715.0423,
1800.456,1693.0668,
1797.545,1656.0486,
1794.635,1683.278,
1791.724,1700.5981,
1788.813,1754.7717,
1785.903,1743.906,
1782.992,1745.0576,
1780.082,1740.3245,
1777.171,1718.7117,
1774.261,1725.8999,
1771.350,1738.1413,
1768.439,1781.1636,
1765.529,1798.9213,
1762.618,1796.645,
1759.708,1802.1686,
1756.797,1801.928,
1753.887,1790.375,
1750.976,1803.3475,
1748.065,1841.2536,
1745.155,1844.0461,
1742.244,1824.1187,
1739.334,1823.1679,
1736.423,1841.6254,
1733.512,1851.2856,
1730.602,1875.5635,
1727.691,1868.7894,
1724.781,1896.6246,
1721.870,1898.1321,
1718.960,1930.9087,
1716.049,1925.7904,
1713.138,1951.5899,
1710.228,1951.1532,
1707.317,2019.3716,
1704.407,2023.883,
1701.496,2051.633,
1698.586,2095.0303,
1695.675,2075.918,
1692.764,2109.4037,
1689.854,2098.938,
1686.943,2174.7107,
1684.033,2106.188,
1681.122,2203.6588,
1678.211,2185.5653,
1675.301,2257.153,
1672.390,2250.5066,
1669.480,2294.4392,
1666.569,2303.8985,
1663.659,2422.179,
1660.748,2412.2839,
1657.837,2510.2717,
1654.927,2550.8202,
1652.016,2570.5171,
1649.106,2616.6688,
1646.195,2629.4539,
1643.285,2674.8789,
1640.374,2741.2565,
1637.463,2830.1316,
1634.553,2873.0301,
1631.642,2984.9385,
1628.732,3127.8431,
1625.821,3206.5,
1622.911,3396.2987,
1620.000,3567.208,
1617.089,3763.4347,
1614.179,3900.5115,
1611.268,4161.4485,
1608.358,4389.6525,
1605.447,4534.2618,
1602.536,4613.1984,
1599.626,4685.5301,
1596.715,4640.5493,
1593.805,4562.0398,
1590.894,4563.943,
1587.984,4600.0187,
1585.073,4570.4915,
1582.162,4556.861,
1579.252,4465.3619,
1576.341,4448.5793,
1573.431,4417.2649,
1570.520,4361.748,
1567.610,4333.963,
1564.699,4369.9767,
1561.788,4329.0375,
1558.878,4203.6433,
1555.967,4092.2905,
1553.057,4076.599,
1550.146,4024.9206,
1547.235,3953.3167,
1544.325,3906.0571,
1541.414,3840.9301,
1538.504,3764.3812,
1535.593,3729.375,
1532.683,3665.9786,
1529.772,3581.4564,
1526.861,3551.8795,
1523.951,3472.9578,
1521.040,3384.1156,
1518.130,3371.9261,
1515.219,3341.4944,
1512.309,3340.8209,
1509.398,3281.6049,
1506.487,3299.4855,
1503.577,3270.7621,
1500.666,3228.4576,
1497.756,3198.4429,
1494.845,3210.5345,
1491.934,3189.9309,
1489.024,3054.2194,
1486.113,3117.0617,
1483.203,3049.5453,
1480.292,3020.8592,
1477.382,2990.7028,
1474.471,2990.514,
1471.560,2993.1007,
1468.650,2930.5138,
1465.739,2853.9787,
1462.829,2904.3644,
1459.918,2908.8608,
1457.008,2879.5136,
1454.097,2884.2156,
1451.186,2874.8005,
1448.276,2852.8783,
1445.365,2830.2328,
1442.455,2841.9282,
1439.544,2844.8691,
1436.633,2835.1337,
1433.723,2890.0162,
1430.812,2846.3905,
1427.902,2771.8485,
1424.991,2791.7516,
1422.081,2735.4914,
1419.170,2722.5985,
1416.259,2694.6429,
1413.349,2709.5217,
1410.438,2666.6906,
1407.528,2653.7436,
1404.617,2662.4849,
1401.707,2683.9229,
1398.796,2683.8541,
1395.885,2688.5248,
1392.975,2726.6877,
1390.064,2737.8465,
1387.154,2720.3455,
1384.243,2635.8549,
1381.332,2577.8641,
1378.422,2716.9445,
1375.511,2844.3467,
1372.601,2950.5124,
1369.690,3004.8078,
1366.780,3035.344,
1363.869,3125.6463,
1360.958,3214.1536,
1358.048,3288.4667,
1355.137,3323.5805,
1352.227,3380.9047,
1349.316,3473.926,
1346.406,3551.029,
1343.495,3631.3228,
1340.584,3687.2671,
1337.674,3737.5894,
1334.763,3743.0447,
1331.853,3839.4767,
1328.942,3901.1902,
1326.032,3955.681,
1323.121,4040.4714,
1320.210,4103.0006,
1317.300,4088.322,
1314.389,4115.7371,
1311.479,4202.6951,
1308.568,4282.8287,
1305.657,4342.3989,
1302.747,4393.1298,
1299.836,4527.0434,
1296.926,4564.9043,
1294.015,4662.3526,
1291.105,4832.7974,
1288.194,4993.5575,
1285.283,5079.9272,
1282.373,5193.3981,
1279.462,5273.1784,
1276.552,5332.9342,
1273.641,5420.6501,
1270.731,5494.6093,
1267.820,5489.9107,
1264.909,5445.2764,
1261.999,5465.6094,
1259.088,5444.6306,
1256.178,5321.7582,
1253.267,5246.9041,
1250.356,5097.6332,
1247.446,4977.4625,
1244.535,4831.8262,
1241.625,4696.1158,
1238.714,4612.9639,
1235.804,4499.312,
1232.893,4409.392,
1229.982,4328.8487,
1227.072,4224.7378,
1224.161,4160.2207,
1221.251,4045.8882,
1218.340,3974.7453,
1215.430,3935.5557,
1212.519,3890.8512,
1209.608,3870.55,
1206.698,3904.2901,
1203.787,3921.9227,
1200.877,3896.6655,
1197.966,3965.9008,
1195.055,4070.9116,
1192.145,4151.4878,
1189.234,4233.3615,
1186.324,4322.0167,
1183.413,4361.7506,
1180.503,4358.7711,
1177.592,4342.4249,
1174.681,4248.6867,
1171.771,4215.6126,
1168.860,4182.5683,
1165.950,4116.4844,
1163.039,4079.0261,
1160.129,4084.1214,
1157.218,4025.149,
1154.307,3946.6647,
1151.397,3915.3498,
1148.486,3841.3779,
1145.576,3823.7582,
1142.665,3809.5516,
1139.754,3796.9842,
1136.844,3776.8674,
1133.933,3752.3663,
1131.023,3721.4912,
1128.112,3695.0186,
1125.202,3678.3702,
1122.291,3649.1054,
1119.380,3599.423,
1116.470,3706.2089,
1113.559,3710.8693,
1110.649,3709.6847,
1107.738,3693.2288,
1104.828,3680.0394,
1101.917,3707.2281,
1099.006,3746.9219,
1096.096,3657.8477,
1093.185,3698.2358,
1090.275,3677.9062,
1087.364,3727.2648,
1084.453,3707.3779,
1081.543,3674.1279,
1078.632,3668.5401,
1075.722,3666.0437,
1072.811,3727.3893,
1069.901,3699.445,
1066.990,3740.2166,
1064.079,3775.554,
1061.169,3801.1825,
1058.258,3828.8909,
1055.348,3874.0098,
1052.437,3925.2592,
1049.527,3911.4226,
1046.616,3964.4211,
1043.705,3949.5643,
1040.795,3977.8542,
1037.884,3986.2488,
1034.974,4012.2448,
1032.063,4070.0828,
1029.153,4058.2445,
1026.242,4073.8137,
1023.331,4060.2092,
1020.421,4100.5953,
1017.510,4124.4175,
1014.600,4135.9877,
1011.689,4168.3254,
1008.778,4242.2878,
1005.868,4353.4561,
1002.957,4473.9057,
1000.047,4657.6311,
997.136,4775.7583,
994.226,4833.667,
991.315,4832.0186,
988.404,4761.2969,
985.494,4683.8353,
982.583,4704.3927,
979.673,4678.8408,
976.762,4640.7812,
973.852,4621.375,
970.941,4622.8569,
968.030,4627.7276,
965.120,4635.5397,
962.209,4674.7566,
959.299,4673.5843,
956.388,4655.256,
953.477,4645.0191,
950.567,4642.408,
947.656,4631.7173,
944.746,4657.204,
941.835,4685.0988,
938.925,4699.2716,
936.014,4682.6361,
933.103,4651.076,
930.193,4623.783,
927.282,4595.0836,
924.372,4552.8032,
921.461,4474.4714,
918.551,4440.8229,
915.640,4389.906,
912.729,4321.1294,
909.819,4305.2672,
906.908,4334.752,
903.998,4339.5565,
901.087,4351.1956,
898.176,4368.3505,
895.266,4392.1188,
892.355,4438.264,
889.445,4549.8865,
886.534,4544.5309,
883.624,4540.6837,
880.713,4606.742,
877.802,4654.7002,
874.892,4613.0796,
871.981,4567.0396,
869.071,4552.8376,
866.160,4611.7814,
863.250,4635.1814,
860.339,4622.0677,
857.428,4593.3225,
854.518,4540.6178,
851.607,4479.8767,
848.697,4500.3268,
845.786,4497.2491,
842.875,4482.7732,
839.965,4489.5062,
837.054,4508.3843,
834.144,4509.2131,
831.233,4527.3737,
828.323,4517.5813,
825.412,4482.2769,
822.501,4447.4814,
819.591,4442.523,
816.680,4355.0351,
813.770,4299.5439,
810.859,4271.7039,
807.949,4256.3116,
805.038,4236.094,
802.127,4200.6995,
799.217,4208.5559,
796.306,4160.726,
793.396,4136.5584,
790.485,4150.2671,
787.574,4111.5343,
784.664,4089.3913,
781.753,4109.5304,
778.843,4180.675,
775.932,4228.795,
773.022,4198.375,
770.111,4198.375,
767.200,4192.2845,
764.290,4187.4856,
761.379,4192.8585,
758.469,4205.0028,
755.558,4204.6276,
752.648,4112.5774,
749.737,4079.3608,
746.826,4035.9422,
743.916,3960.4719,
741.005,3852.6759,
738.095,3695.9837,
735.184,3497.18,
732.274,3441.1519,
729.363,3573.3919,
726.452,3832.687,
723.542,3978.3778,
720.631,4086.5296,
717.721,4122.5306,
714.810,4136.2727,
711.899,4138.266,
708.989,4077.7467,
706.078,4059.7463,
703.168,4059.6255,
700.257,4032.6698,
697.347,4001.6782,
694.436,4041.2621,
691.525,4000.268,
688.615,3975.0233,
685.704,3978.3258,
682.794,3995.609,
679.883,3996.6273,
676.973,4002.2369,
674.062,3999.5465,
671.151,4029.3731,
668.241,4065.1335,
665.330,4050.9087,
662.420,4104.4237,
659.509,4081.0887,
656.598,4064.4042,
653.688,4059.6334,
650.777,4031.4551,
647.867,4063.3082,
644.956,4005.3642,
642.046,3979.8859,
639.135,4012.5323,
636.224,4058.2119,
633.314,4025.6604,
630.403,4039.2498,
627.493,4094.3187,
624.582,4149.5464,
621.672,4109.9467,
618.761,4158.531,
615.850,4193.6596,
612.940,4208.3504,
610.029,4219.2642,
607.119,4296.648,
604.208,4254.6741,
601.297,4247.835,
598.387,4244.1771,
595.476,4203.232,
592.566,4222.9087,
589.655,4225.7271,
586.745,4198.9029,
583.834,4159.9833,
580.923,4144.3655,
578.013,4142.7961,
575.102,4162.4506,
572.192,4171.6584,
569.281,4171.217,
566.371,4226.0007,
563.460,4278.6414,
560.549,4324.2008,
557.639,4355.4034,
554.728,4364.5027,
551.818,4334.8507,
548.907,4335.0785,
545.996,4376.31,
543.086,4436.5559,
540.175,4446.6783,
537.265,4484.3132,
534.354,4512.924,
531.444,4544.3731,
528.533,4591.6859,
525.622,4638.2428,
522.712,4703.5896,
519.801,4761.524,
516.891,4815.2166,
513.980,4903.4863,
511.070,4946.5924,
508.159,5002.4457,
505.248,5065.1507,
502.338,5120.3405,
499.427,5187.4899,
496.517,5242.7083,
493.606,5287.1901,
490.695,5323.5103,
487.785,5360.4602,
484.874,5383.823,
481.964,5400.85,
479.053,5395.5632,
476.143,5329.5184,
473.232,5323.9362,
470.321,5334.5663,
467.411,5337.5109,
464.500,5310.735,
461.590,5285.4656,
458.679,5303.6886,
455.769,5343.2789,
452.858,5384.6136,
449.947,5386.9054,
447.037,5375.8465,
444.126,5353.9568,
441.216,5330.0364,
438.305,5333.8461,
435.395,5347.4877,
432.484,5361.4598,
429.573,5369.955,
426.663,5363.8739,
423.752,5330.5963,
420.842,5346.0596,
417.931,5370.817,
415.020,5333.6575,
412.110,5408.4628,
409.199,5495.0546,
406.289,5560.8026,
403.378,5574.042,
400.468,5475.7627,
397.557,5481.3938,
394.646,5508.2946,
391.736,5485.1919,
388.825,5448.2346,
385.915,5423.0058,
383.004,5434.0751,
380.094,5497.6362,
377.183,5581.1611,
374.272,5646.1691,
371.362,5728.4674,
368.451,5841.8309,
365.541,5849.3363,
362.630,5850.2825,
359.719,5868.6129,
356.809,5914.5562,
353.898,5917.5514,
350.988,5925.4273,
348.077,5933.4079,
345.167,5938.6777,
342.256,5944.6543,
339.345,5983.0438,
336.435,6035.3617,
333.524,6087.7038,
330.614,6098.136,
327.703,6151.6887,
324.793,6192.4146,
321.882,6172.3624,
318.971,6167.1583,
316.061,6203.9518,
313.150,6263.775,
310.240,6326.1127,
307.329,6351.958,
304.418,6373.2298,
301.508,6370.8334,
298.597,6308.6384,
295.687,6376.517,
292.776,6444.7085,
289.866,6550.3817,
286.955,6830.3587,
284.044,6945.0099,
281.134,7083.9093,
278.223,7267.8234,
275.313,7414.4576,
272.402,7584.7918,
269.492,7743.9928,
266.581,7877.2591,
263.670,7973.5677,
260.760,8114.7322,
257.849,8238.3919,
254.939,8295.6348,
252.028,8443.3155,
249.117,8524.0437,
246.207,8572.3161,
243.296,8645.5198,
240.386,8652.069,
237.475,8594.1311,
234.565,8509.3921,
231.654,8553.9455,
228.743,8508.1397,
225.833,8468.2897,
222.922,8465.4148,
220.012,8359.0458,
217.101,8308.6721,
214.191,8279.4799,
211.280,8236.5596,
208.369,8267.0157,
205.459,8257.0245,
202.548,8231.4141,
199.638,8312.6868,
196.727,8266.5675,
193.816,8230.0077,
190.906,8253.7971,
187.995,8294.3425,
185.085,8324.925,
182.174,8340.6326,
179.264,8330.5139,
176.353,8346.0353,
173.442,8358.638,
170.532,8351.6899,
167.621,8242.8226,
164.711,8092.4944,
161.800,7898.0947,
158.890,7648.3492,
155.979,7171.4557,
153.068,6567.4909,
150.158,5855.7913,
147.247,5058.8643,
144.337,4224.4759,
141.426,3349.3587,
138.516,2426.0027,
135.605,1753.4488,
132.694,1201.9284,
129.784,772.64441,
126.873,512.33715,
123.963,351.82074,
121.052,246.29542,
118.141,185.61375,
115.231,149.13591,
112.320,121.24229,
109.410,99.011632,
106.499,76.222664,
103.589,70.814746,
100.678,66.029053,
97.767,54.654052,
94.857,56.453967,
91.946,50.119004,
89.036,39.713694,
86.125,41.84131,
83.215,40.782239,
80.304,36.980673,
77.393,29.898974,
74.483,37.236619,
71.572,36.664423,
68.662,28.167198,
65.751,26.047844,
62.840,25.856702,
59.930,26.749572,
57.019,28.159736,
54.109,22.403392,
51.198,18.676609,
48.288,19.369338,
45.377,18.665959,
42.466,19.199439,
39.556,19.684289,
36.645,15.471147,
33.735,11.259509,
30.824,9.2585479,
27.914,12.063249,
25.003,18.601375,
22.092,20.437573,
19.182,16.146171,
16.271,9.15127,
13.361,28.290815,
10.450,55.730825,
7.539,40.367887,
4.629,-214.04261,
1.718,-525.59914,
-1.192,-776.57118,
-4.103,-558.26517,
-7.013,-275.6241,
-9.924,1.375,
