,PL560F~1,
Wavenumbers [1/cm],Intensity,
3014.167,1.5,
3011.256,-2.2999571,
3008.346,76.412951,
3005.435,88.57774,
3002.525,82.989933,
2999.614,98.638973,
2996.704,103.45567,
2993.793,123.41302,
2990.882,109.75183,
2987.972,113.54036,
2985.061,126.8202,
2982.151,122.05125,
2979.240,128.1977,
2976.329,132.98635,
2973.419,155.2543,
2970.508,149.44993,
2967.598,153.54779,
2964.687,149.72419,
2961.777,141.78202,
2958.866,159.50891,
2955.955,167.23006,
2953.045,169.39932,
2950.134,166.92566,
2947.224,172.58541,
2944.313,179.9943,
2941.403,190.71442,
2938.492,194.37264,
2935.581,187.41414,
2932.671,207.05359,
2929.760,188.40002,
2926.850,196.70902,
2923.939,195.01868,
2921.028,214.91192,
2918.118,206.87909,
2915.207,200.08861,
2912.297,214.44076,
2909.386,210.12773,
2906.476,215.05057,
2903.565,204.35258,
2900.654,224.37161,
2897.744,207.2737,
2894.833,188.67527,
2891.923,202.09621,
2889.012,197.29191,
2886.102,207.37296,
2883.191,189.5236,
2880.280,142.17462,
2877.370,99.005831,
2874.459,97.745148,
2871.549,137.73761,
2868.638,201.72885,
2865.727,215.81539,
2862.817,215.22861,
2859.906,218.0698,
2856.996,222.00226,
2854.085,221.5,
2851.175,227.05115,
2848.264,244.85783,
2845.353,221.45687,
2842.443,226.68747,
2839.532,225.08217,
2836.622,217.95508,
2833.711,221.55181,
2830.801,239.58603,
2827.890,232.22902,
2824.979,231.5,
2822.069,246.64784,
2819.158,255.69946,
2816.248,243.52316,
2813.337,254.55123,
2810.427,240.58126,
2807.516,240.39938,
2804.605,228.7476,
2801.695,239.76316,
2798.784,258.16938,
2795.874,235.0752,
2792.963,236.64298,
2790.052,228.50236,
2787.142,239.23677,
2784.231,244.27328,
2781.321,246.62572,
2778.410,246.01016,
2775.500,242.5,
2772.589,244.03823,
2769.678,241.42832,
2766.768,236.81844,
2763.857,244.44605,
2760.947,236.51891,
2758.036,253.05422,
2755.126,241.68377,
2752.215,255.2454,
2749.304,256.73381,
2746.394,269.59478,
2743.483,263.05,
2740.573,260.83848,
2737.662,252.38314,
2734.751,259.66488,
2731.841,260.47252,
2728.930,265.15258,
2726.020,252.71412,
2723.109,241.1805,
2720.199,272.32513,
2717.288,259.48176,
2714.377,270.59574,
2711.467,279.90989,
2708.556,276.97874,
2705.646,265.51406,
2702.735,285.33763,
2699.825,293.41274,
2696.914,282.11862,
2694.003,267.75691,
2691.093,260.57101,
2688.182,272.41111,
2685.272,272.34068,
2682.361,269.31769,
2679.450,278.82506,
2676.540,275.29676,
2673.629,268.48653,
2670.719,287.98892,
2667.808,300.25682,
2664.898,301.98055,
2661.987,292.56651,
2659.076,305.70257,
2656.166,287.2576,
2653.255,284.38776,
2650.345,296.12432,
2647.434,303.15704,
2644.524,298.72781,
2641.613,296.12854,
2638.702,300.42109,
2635.792,308.09422,
2632.881,303.34526,
2629.971,315.58733,
2627.060,309.66407,
2624.149,319.47502,
2621.239,321.52964,
2618.328,317.09342,
2615.418,321.5409,
2612.507,299.77669,
2609.597,294.77545,
2606.686,319.25302,
2603.775,329.86111,
2600.865,329.67746,
2597.954,317.02086,
2595.044,321.70639,
2592.133,340.10499,
2589.223,331.71684,
2586.312,336.13318,
2583.401,329.05109,
2580.491,334.30768,
2577.580,348.47689,
2574.670,333.66979,
2571.759,333.70205,
2568.848,342.08567,
2565.938,330.02356,
2563.027,346.30238,
2560.117,333.0234,
2557.206,338.88376,
2554.296,330.99199,
2551.385,353.55796,
2548.474,348.5,
2545.564,338.81656,
2542.653,344.80537,
2539.743,348.9199,
2536.832,360.03084,
2533.922,352.42115,
2531.011,350.52474,
2528.100,357.43379,
2525.190,358.87172,
2522.279,359.73449,
2519.369,361.78318,
2516.458,358.27974,
2513.548,348.36381,
2510.637,360.36076,
2507.726,372.87546,
2504.816,382.75141,
2501.905,363.9061,
2498.995,384.66393,
2496.084,377.63244,
2493.173,385.42086,
2490.263,380.5,
2487.352,376.20947,
2484.442,389.08245,
2481.531,392.08499,
2478.621,392.51892,
2475.710,379.69936,
2472.799,402.78703,
2469.889,386.74375,
2466.978,386.43807,
2464.068,387.58465,
2461.157,399.38255,
2458.247,396.04418,
2455.336,404.81898,
2452.425,400.15094,
2449.515,404.93453,
2446.604,424.21202,
2443.694,427.87257,
2440.783,416.4482,
2437.872,403.75525,
2434.962,409.71198,
2432.051,414.32729,
2429.141,417.22947,
2426.230,419.23924,
2423.320,425.0859,
2420.409,428.08954,
2417.498,433.53369,
2414.588,433.67487,
2411.677,424.75101,
2408.767,431.75295,
2405.856,436.25236,
2402.946,447.3454,
2400.035,428.02346,
2397.124,444.37701,
2394.214,431.9316,
2391.303,427.17954,
2388.393,439.20467,
2385.482,410.95404,
2382.571,423.63891,
2379.661,439.70921,
2376.750,454.28814,
2373.840,453.79377,
2370.929,448.54332,
2368.019,456.3436,
2365.108,458.61518,
2362.197,460.54106,
2359.287,465.6766,
2356.376,471.49472,
2353.466,481.245,
2350.555,459.30057,
2347.645,491.19668,
2344.734,488.6198,
2341.823,472.73217,
2338.913,475.19103,
2336.002,464.87081,
2333.092,486.90192,
2330.181,489.165,
2327.270,511.90485,
2324.360,489.97876,
2321.449,494.32992,
2318.539,487.07493,
2315.628,497.47442,
2312.718,487.25109,
2309.807,497.04651,
2306.896,507.01957,
2303.986,513.62986,
2301.075,501.39366,
2298.165,494.5,
2295.254,511.13377,
2292.344,510.97302,
2289.433,511.14864,
2286.522,503.41967,
2283.612,512.92094,
2280.701,539.27126,
2277.791,521.18127,
2274.880,536.21602,
2271.969,532.66049,
2269.059,538.41009,
2266.148,537.1227,
2263.238,562.4884,
2260.327,557.56871,
2257.417,537.905,
2254.506,547.98144,
2251.595,537.63815,
2248.685,565.06915,
2245.774,559.98375,
2242.864,561.30549,
2239.953,559.18275,
2237.043,564.2275,
2234.132,561.34159,
2231.221,556.9212,
2228.311,567.93813,
2225.400,582.66887,
2222.490,586.82895,
2219.579,589.07331,
2216.669,604.51431,
2213.758,615.19806,
2210.847,595.0945,
2207.937,598.09282,
2205.026,610.16735,
2202.116,596.74415,
2199.205,616.86212,
2196.294,622.25201,
2193.384,633.28902,
2190.473,625.63028,
2187.563,644.5725,
2184.652,662.51224,
2181.742,669.15781,
2178.831,662.52731,
2175.920,682.00273,
2173.010,703.42687,
2170.099,715.0997,
2167.189,780.48565,
2164.278,783.34221,
2161.368,826.06967,
2158.457,865.88902,
2155.546,888.99907,
2152.636,923.01058,
2149.725,980.60063,
2146.815,994.36652,
2143.904,1032.6041,
2140.993,1052.2777,
2138.083,1069.5457,
2135.172,1064.3237,
2132.262,1079.2412,
2129.351,1065.6827,
2126.441,1067.801,
2123.530,1018.1745,
2120.619,983.99565,
2117.709,940.79831,
2114.798,899.4075,
2111.888,845.33869,
2108.977,804.87747,
2106.067,776.78218,
2103.156,742.34528,
2100.245,720.49498,
2097.335,711.41623,
2094.424,702.30325,
2091.514,697.42741,
2088.603,678.41251,
2085.692,677.82331,
2082.782,671.41578,
2079.871,672.53617,
2076.961,678.24169,
2074.050,661.4697,
2071.140,676.47733,
2068.229,657.13281,
2065.318,669.53776,
2062.408,670.68155,
2059.497,676.53574,
2056.587,677.15135,
2053.676,645.55165,
2050.766,655.19133,
2047.855,648.67087,
2044.944,652.77084,
2042.034,644.58097,
2039.123,657.56061,
2036.213,661.28888,
2033.302,656.32612,
2030.391,658.3643,
2027.481,641.15872,
2024.570,639.55701,
2021.660,641.44087,
2018.749,660.9179,
2015.839,671.63451,
2012.928,661.23657,
2010.017,632.91477,
2007.107,647.057,
2004.196,651.27385,
2001.286,657.06185,
1998.375,647.93307,
1995.465,665.16518,
1992.554,621.41807,
1989.643,640.56678,
1986.733,628.69737,
1983.822,616.33383,
1980.912,623.85614,
1978.001,614.3219,
1975.090,622.09389,
1972.180,616.77661,
1969.269,619.82188,
1966.359,629.79731,
1963.448,634.15258,
1960.538,639.55755,
1957.627,634.25851,
1954.716,639.32764,
1951.806,649.25805,
1948.895,621.54662,
1945.985,601.44445,
1943.074,619.80641,
1940.164,604.61554,
1937.253,607.16978,
1934.342,596.52567,
1931.432,581.6041,
1928.521,595.12522,
1925.611,594.36379,
1922.700,595.62293,
1919.790,608.69641,
1916.879,602.12775,
1913.968,561.54918,
1911.058,584.19972,
1908.147,632.11602,
1905.237,596.35289,
1902.326,557.47928,
1899.415,546.23051,
1896.505,560.52988,
1893.594,528.13719,
1890.684,564.7089,
1887.773,595.30186,
1884.863,585.75968,
1881.952,570.64262,
1879.041,612.4024,
1876.131,627.5,
1873.220,556.02183,
1870.310,582.62998,
1867.399,608.13215,
1864.489,617.90332,
1861.578,583.16997,
1858.667,622.77848,
1855.757,591.29356,
1852.846,596.48975,
1849.936,606.8243,
1847.025,642.03042,
1844.114,623.4176,
1841.204,616.48251,
1838.293,632.00249,
1835.383,617.38401,
1832.472,627.84957,
1829.562,631.64036,
1826.651,656.26998,
1823.740,658.1245,
1820.830,641.92509,
1817.919,627.09873,
1815.009,663.88676,
1812.098,666.90945,
1809.188,658.99614,
1806.277,668.27868,
1803.366,647.45009,
1800.456,645.81897,
1797.545,667.85464,
1794.635,666.53108,
1791.724,690.76227,
1788.813,645.7054,
1785.903,662.5,
1782.992,663.03651,
1780.082,650.34066,
1777.171,623.1697,
1774.261,619.5347,
1771.350,612.10026,
1768.439,654.54452,
1765.529,686.6843,
1762.618,710.23002,
1759.708,717.98913,
1756.797,704.59091,
1753.887,731.86151,
1750.976,719.63418,
1748.065,713.23425,
1745.155,713.44849,
1742.244,708.81068,
1739.334,696.12118,
1736.423,698.68503,
1733.512,690.13005,
1730.602,695.22422,
1727.691,724.60046,
1724.781,748.23153,
1721.870,750.89047,
1718.960,752.9667,
1716.049,745.11025,
1713.138,773.42485,
1710.228,741.07723,
1707.317,779.72857,
1704.407,771.12564,
1701.496,750.3575,
1698.586,781.76344,
1695.675,793.85709,
1692.764,808.70083,
1689.854,789.40944,
1686.943,796.23019,
1684.033,825.75491,
1681.122,828.46602,
1678.211,868.11931,
1675.301,860.52467,
1672.390,863.44018,
1669.480,843.85297,
1666.569,887.46191,
1663.659,885.28395,
1660.748,932.88564,
1657.837,952.67496,
1654.927,960.336,
1652.016,954.39907,
1649.106,990.86722,
1646.195,1005.1643,
1643.285,991.59115,
1640.374,997.06794,
1637.463,1070.518,
1634.553,1073.1847,
1631.642,1185.8149,
1628.732,1214.4881,
1625.821,1212.5589,
1622.911,1301.9928,
1620.000,1370.6307,
1617.089,1468.5298,
1614.179,1597.8057,
1611.268,1685.2655,
1608.358,1732.3461,
1605.447,1776.9289,
1602.536,1844.7321,
1599.626,1886.2973,
1596.715,1881.3316,
1593.805,1817.8968,
1590.894,1828.9941,
1587.984,1802.919,
1585.073,1761.9149,
1582.162,1763.8489,
1579.252,1744.2242,
1576.341,1717.8713,
1573.431,1703.8851,
1570.520,1690.0343,
1567.610,1696.1864,
1564.699,1640.7726,
1561.788,1593.8523,
1558.878,1585.5483,
1555.967,1570.644,
1553.057,1545.914,
1550.146,1497.1692,
1547.235,1458.9225,
1544.325,1434.7962,
1541.414,1413.2389,
1538.504,1386.5169,
1535.593,1367.0654,
1532.683,1364.0406,
1529.772,1347.9752,
1526.861,1304.9696,
1523.951,1271.1273,
1521.040,1256.4546,
1518.130,1234.797,
1515.219,1233.621,
1512.309,1213.6307,
1509.398,1252.8555,
1506.487,1241.9886,
1503.577,1204.2348,
1500.666,1208.6119,
1497.756,1207.2116,
1494.845,1178.9797,
1491.934,1166.3929,
1489.024,1133.6682,
1486.113,1152.8987,
1483.203,1132.2958,
1480.292,1057.3765,
1477.382,1055.0072,
1474.471,1117.3556,
1471.560,1115.1813,
1468.650,1042.589,
1465.739,1029.7932,
1462.829,1012.0464,
1459.918,999.5774,
1457.008,1006.0231,
1454.097,996.87036,
1451.186,1021.5116,
1448.276,1052.4688,
1445.365,1018.7504,
1442.455,1020.7668,
1439.544,1014.173,
1436.633,1013.5288,
1433.723,1004.8588,
1430.812,1035.4812,
1427.902,948.10884,
1424.991,973.69843,
1422.081,922.20381,
1419.170,933.91715,
1416.259,876.55533,
1413.349,886.66771,
1410.438,874.90617,
1407.528,927.65546,
1404.617,885.17333,
1401.707,865.94613,
1398.796,913.02094,
1395.885,897.18869,
1392.975,890.29341,
1390.064,942.07233,
1387.154,901.25822,
1384.243,963.81114,
1381.332,974.98278,
1378.422,901.25339,
1375.511,954.6499,
1372.601,982.22554,
1369.690,1018.7889,
1366.780,1146.4734,
1363.869,1071.7079,
1360.958,1100.8227,
1358.048,1178.6251,
1355.137,1229.5787,
1352.227,1250.8726,
1349.316,1282.4398,
1346.406,1325.9876,
1343.495,1343.6621,
1340.584,1415.036,
1337.674,1399.1096,
1334.763,1439.1231,
1331.853,1481.7758,
1328.942,1479.9421,
1326.032,1497.4437,
1323.121,1542.994,
1320.210,1580.8072,
1317.300,1631.4553,
1314.389,1654.3888,
1311.479,1674.0921,
1308.568,1728.925,
1305.657,1776.4334,
1302.747,1789.1285,
1299.836,1813.6279,
1296.926,1917.8329,
1294.015,1989.5401,
1291.105,2016.2746,
1288.194,2096.9781,
1285.283,2147.2881,
1282.373,2237.9685,
1279.462,2258.7946,
1276.552,2273.3427,
1273.641,2315.398,
1270.731,2334.9657,
1267.820,2368.0601,
1264.909,2337.0928,
1261.999,2291.9647,
1259.088,2332.098,
1256.178,2316.5144,
1253.267,2283.5794,
1250.356,2263.6639,
1247.446,2202.7609,
1244.535,2120.884,
1241.625,2029.4594,
1238.714,1951.0273,
1235.804,1921.1748,
1232.893,1868.6325,
1229.982,1834.3467,
1227.072,1829.8201,
1224.161,1800.0824,
1221.251,1783.3324,
1218.340,1755.531,
1215.430,1734.7925,
1212.519,1719.8976,
1209.608,1704.1844,
1206.698,1698.8405,
1203.787,1715.2387,
1200.877,1736.3358,
1197.966,1749.8232,
1195.055,1776.0975,
1192.145,1843.6128,
1189.234,1920.2961,
1186.324,1971.7748,
1183.413,1969.6269,
1180.503,1949.2216,
1177.592,1958.7323,
1174.681,1952.2774,
1171.771,1902.0261,
1168.860,1881.485,
1165.950,1864.9868,
1163.039,1874.7697,
1160.129,1885.8087,
1157.218,1875.0779,
1154.307,1846.1431,
1151.397,1824.0214,
1148.486,1818.9063,
1145.576,1782.0011,
1142.665,1793.544,
1139.754,1827.8588,
1136.844,1776.6746,
1133.933,1761.4706,
1131.023,1767.5558,
1128.112,1750.0738,
1125.202,1727.0217,
1122.291,1754.0175,
1119.380,1799.2315,
1116.470,1771.8731,
1113.559,1774.686,
1110.649,1795.4905,
1107.738,1807.6433,
1104.828,1787.4467,
1101.917,1773.0688,
1099.006,1810.9227,
1096.096,1801.6724,
1093.185,1771.8203,
1090.275,1792.1596,
1087.364,1785.1498,
1084.453,1799.7487,
1081.543,1810.2413,
1078.632,1792.5312,
1075.722,1773.7657,
1072.811,1795.4451,
1069.901,1780.5997,
1066.990,1833.6582,
1064.079,1868.2764,
1061.169,1887.8891,
1058.258,1906.5106,
1055.348,1910.3296,
1052.437,1889.5676,
1049.527,1920.1308,
1046.616,1910.5736,
1043.705,1927.2276,
1040.795,1968.8948,
1037.884,1967.2475,
1034.974,1955.183,
1032.063,1969.3539,
1029.153,1963.7463,
1026.242,1974.1258,
1023.331,2021.997,
1020.421,2037.7739,
1017.510,2052.8261,
1014.600,2045.1599,
1011.689,2031.7625,
1008.778,2062.4848,
1005.868,2091.9479,
1002.957,2141.8484,
1000.047,2198.276,
997.136,2255.8508,
994.226,2304.4689,
991.315,2332.0223,
988.404,2323.1781,
985.494,2260.1521,
982.583,2289.275,
979.673,2275.9405,
976.762,2245.4288,
973.852,2239.1082,
970.941,2258.1312,
968.030,2270.7485,
965.120,2266.5286,
962.209,2273.349,
959.299,2292.9145,
956.388,2288.1808,
953.477,2297.4073,
950.567,2323.9772,
947.656,2325.8423,
944.746,2351.329,
941.835,2322.5369,
938.925,2326.0288,
936.014,2319.866,
933.103,2307.7938,
930.193,2300.5073,
927.282,2274.6669,
924.372,2240.8426,
921.461,2225.454,
918.551,2190.7105,
915.640,2160.851,
912.729,2143.7911,
909.819,2131.1714,
906.908,2174.1351,
903.998,2132.755,
901.087,2182.6046,
898.176,2198.4122,
895.266,2190.5134,
892.355,2221.4841,
889.445,2237.4302,
886.534,2246.6836,
883.624,2296.9439,
880.713,2325.6036,
877.802,2326.6787,
874.892,2309.94,
871.981,2264.383,
869.071,2132.3877,
866.160,2150.8976,
863.250,2222.9687,
860.339,2281.8813,
857.428,2299.5435,
854.518,2294.2964,
851.607,2252.6929,
848.697,2176.0305,
845.786,2137.7534,
842.875,2144.7828,
839.965,2181.7139,
837.054,2237.6116,
834.144,2247.5567,
831.233,2275.4981,
828.323,2275.6411,
825.412,2242.8603,
822.501,2197.7765,
819.591,2177.1165,
816.680,2169.2884,
813.770,2149.9579,
810.859,2132.2801,
807.949,2109.9951,
805.038,2075.8938,
802.127,2087.4176,
799.217,2088.5,
796.306,2102.1217,
793.396,2099.6525,
790.485,2080.7635,
787.574,2086.1228,
784.664,2102.525,
781.753,2090.0674,
778.843,2106.0239,
775.932,2120.0063,
773.022,2105.883,
770.111,2166.3838,
767.200,2148.4219,
764.290,2151.9018,
761.379,2160.2877,
758.469,2161.0815,
755.558,2158.0169,
752.648,2108.3261,
749.737,2125.9171,
746.826,2103.6685,
743.916,2073.2274,
741.005,2096.7138,
738.095,2036.6349,
735.184,1946.5531,
732.274,1881.4203,
729.363,1884.4419,
726.452,1963.5795,
723.542,2052.6128,
720.631,2084.2589,
717.721,2113.1224,
714.810,2115.5569,
711.899,2101.0842,
708.989,2129.3266,
706.078,2130.3013,
703.168,2144.4661,
700.257,2111.8302,
697.347,2061.4121,
694.436,2093.1945,
691.525,2081.9412,
688.615,2072.582,
685.704,2065.0465,
682.794,2069.6276,
679.883,2100.329,
676.973,2118.7605,
674.062,2131.4331,
671.151,2100.5569,
668.241,2072.3686,
665.330,2129.2353,
662.420,2123.6442,
659.509,2125.0397,
656.598,2109.6228,
653.688,2088.1901,
650.777,2090.851,
647.867,2101.2033,
644.956,2075.6382,
642.046,2048.135,
639.135,2037.6922,
636.224,2053.6313,
633.314,2079.8313,
630.403,2103.0539,
627.493,2124.87,
624.582,2151.2114,
621.672,2194.7711,
618.761,2144.0642,
615.850,2147.3356,
612.940,2178.5275,
610.029,2209.6044,
607.119,2222.2385,
604.208,2204.3296,
601.297,2196.9985,
598.387,2194.9203,
595.476,2189.3913,
592.566,2198.8362,
589.655,2188.838,
586.745,2166.8771,
583.834,2152.8679,
580.923,2175.2962,
578.013,2141.5527,
575.102,2127.3377,
572.192,2137.0768,
569.281,2159.6722,
566.371,2149.4981,
563.460,2175.3078,
560.549,2187.9618,
557.639,2194.0656,
554.728,2205.6131,
551.818,2191.5674,
548.907,2234.8154,
545.996,2247.3933,
543.086,2222.5132,
540.175,2231.8569,
537.265,2241.1914,
534.354,2235.9713,
531.444,2229.7293,
528.533,2237.2106,
525.622,2261.265,
522.712,2281.6688,
519.801,2288.8268,
516.891,2288.0996,
513.980,2305.9084,
511.070,2346.2391,
508.159,2390.6764,
505.248,2427.2583,
502.338,2445.0874,
499.427,2465.155,
496.517,2517.4494,
493.606,2553.5,
490.695,2555.3187,
487.785,2568.4052,
484.874,2591.8254,
481.964,2595.6097,
479.053,2576.778,
476.143,2544.5235,
473.232,2534.5866,
470.321,2532.9597,
467.411,2523.6098,
464.500,2491.8297,
461.590,2504.8473,
458.679,2538.7662,
455.769,2547.7468,
452.858,2520.4991,
449.947,2587.725,
447.037,2590.5783,
444.126,2580.1727,
441.216,2576.7489,
438.305,2589.7017,
435.395,2653.7855,
432.484,2689.0005,
429.573,2686.4649,
426.663,2660.6201,
423.752,2631.9981,
420.842,2473.9038,
417.931,2302.3011,
415.020,2312.1597,
412.110,2462.4807,
409.199,2576.6686,
406.289,2639.7299,
403.378,2643.4385,
400.468,2625.2947,
397.557,2684.797,
394.646,2737.8809,
391.736,2715.4417,
388.825,2744.8567,
385.915,2739.663,
383.004,2730.0699,
380.094,2738.765,
377.183,2783.1611,
374.272,2841.6363,
371.362,2859.8971,
368.451,2814.512,
365.541,2880.5592,
362.630,2882.1128,
359.719,2882.1145,
356.809,2914.6812,
353.898,2917.6764,
350.988,2926.0948,
348.077,2931.048,
345.167,2929.165,
342.256,2962.036,
339.345,2938.0197,
336.435,2922.3796,
333.524,2957.6544,
330.614,2930.8288,
327.703,2919.933,
324.793,2920.8513,
321.882,2930.5234,
318.971,2940.1882,
316.061,2968.8923,
313.150,2998.2714,
310.240,3007.1768,
307.329,2989.6341,
304.418,2992.531,
301.508,2998.7892,
298.597,2977.3171,
295.687,3014.1027,
292.776,3054.5835,
289.866,3090.3264,
286.955,3113.2269,
284.044,3181.6474,
281.134,3261.3425,
278.223,3337.6735,
275.313,3373.0425,
272.402,3395.6035,
269.492,3406.1831,
266.581,3406.9189,
263.670,3426.7687,
260.760,3446.6043,
257.849,3474.8976,
254.939,3518.9306,
252.028,3517.3285,
249.117,3509.6476,
246.207,3506.6141,
243.296,3526.3791,
240.386,3529.806,
237.475,3489.392,
234.565,3431.7825,
231.654,3484.3701,
228.743,3427.6066,
225.833,3354.3279,
222.922,3303.2327,
220.012,3340.389,
217.101,3343.1764,
214.191,3328.4731,
211.280,3311.7415,
208.369,3317.2281,
205.459,3286.5637,
202.548,3243.0209,
199.638,3286.5599,
196.727,3279.9422,
193.816,3295.8931,
190.906,3356.3764,
187.995,3267.3214,
185.085,3271.9642,
182.174,3323.253,
179.264,3366.619,
176.353,3333.0533,
173.442,3315.8507,
170.532,3324.4241,
167.621,3332.3548,
164.711,3236.2188,
161.800,3112.1099,
158.890,3008.4691,
155.979,2772.7521,
153.068,2544.6108,
150.158,2316.1296,
147.247,2031.8205,
144.337,1657.3373,
141.426,1285.7147,
138.516,960.24611,
135.605,700.93279,
132.694,479.79845,
129.784,302.57013,
126.873,200.30656,
123.963,131.12904,
121.052,86.284613,
118.141,65.581455,
115.231,54.130874,
112.320,49.5,
109.410,45.954763,
106.499,27.438727,
103.589,28.54229,
100.678,28.968918,
97.767,19.726729,
94.857,19.5,
91.946,22.321776,
89.036,24.129144,
86.125,9.2358332,
83.215,7.6236814,
80.304,9.0211346,
77.393,7.6047948,
74.483,16.671889,
71.572,17.514127,
68.662,10.984872,
65.751,15.93003,
62.840,19.426808,
59.930,19.065279,
57.019,9.8992136,
54.109,13.277287,
51.198,15.896781,
48.288,14.437713,
45.377,6.7005544,
42.466,7.2099741,
39.556,12.384881,
36.645,11.682691,
33.735,10.980752,
30.824,10.720887,
27.914,11.422062,
25.003,10.877363,
22.092,12.437427,
19.182,16.82036,
16.271,26.613222,
13.361,124.48513,
10.450,291.11939,
7.539,509.6921,
4.629,635.68755,
1.718,628.01602,
-1.192,391.68402,
-4.103,187.70653,
-7.013,53.002344,
-9.924,1.5,
