,PLE573~1,
Wavenumbers [1/cm],Intensity,
3014.167,0.375,
3011.256,-1.0749893,
3008.346,91.87441,
3005.435,101.45274,
3002.525,111.71504,
2999.614,104.94902,
2996.704,119.45541,
2993.793,120.87961,
2990.882,120.76429,
2987.972,136.31446,
2985.061,131.46861,
2982.151,136.85231,
2979.240,125.64116,
2976.329,144.15367,
2973.419,147.1904,
2970.508,146.375,
2967.598,134.18384,
2964.687,140.40421,
2961.777,155.90496,
2958.866,147.37797,
2955.955,161.58737,
2953.045,157.47568,
2950.134,167.83274,
2947.224,166.28959,
2944.313,172.81304,
2941.403,183.50593,
2938.492,167.68395,
2935.581,169.92348,
2932.671,176.09604,
2929.760,177.63269,
2926.850,183.85244,
2923.939,175.33764,
2921.028,178.70454,
2918.118,183.0954,
2915.207,182.2547,
2912.297,172.40462,
2909.386,185.19251,
2906.476,177.0576,
2903.565,181.32685,
2900.654,171.25772,
2897.744,179.16127,
2894.833,164.02445,
2891.923,169.6186,
2889.012,147.95881,
2886.102,137.3142,
2883.191,111.39388,
2880.280,-1.4288587,
2877.370,-217.67685,
2874.459,-306.07107,
2871.549,-97.926016,
2868.638,78.74607,
2865.727,125.03269,
2862.817,147.69049,
2859.906,160.33795,
2856.996,175.90897,
2854.085,189.50109,
2851.175,186.11295,
2848.264,182.16417,
2845.353,197.4397,
2842.443,194.78475,
2839.532,186.375,
2836.622,188.89193,
2833.711,192.11597,
2830.801,195.46838,
2827.890,202.47814,
2824.979,200.58498,
2822.069,202.32951,
2819.158,197.61489,
2816.248,215.79973,
2813.337,219.33355,
2810.427,211.02238,
2807.516,223.58359,
2804.605,220.33173,
2801.695,208.41447,
2798.784,215.56185,
2795.874,217.50427,
2792.963,223.3034,
2790.052,218.37521,
2787.142,216.53285,
2784.231,222.72902,
2781.321,209.6893,
2778.410,211.05521,
2775.500,200.24811,
2772.589,218.33753,
2769.678,230.59003,
2766.768,207.89536,
2763.857,231.58309,
2760.947,218.92228,
2758.036,217.90361,
2755.126,228.90278,
2752.215,234.32974,
2749.304,241.39659,
2746.394,232.06853,
2743.483,232.32503,
2740.573,225.60066,
2737.662,214.41641,
2734.751,233.44309,
2731.841,225.48306,
2728.930,228.49785,
2726.020,230.7066,
2723.109,236.46767,
2720.199,237.96244,
2717.288,237.04287,
2714.377,248.40386,
2711.467,257.27719,
2708.556,243.32153,
2705.646,248.30456,
2702.735,245.54768,
2699.825,249.41863,
2696.914,246.56545,
2694.003,242.70509,
2691.093,231.375,
2688.182,243.59426,
2685.272,242.05637,
2682.361,241.13373,
2679.450,236.88121,
2676.540,240.55792,
2673.629,252.36153,
2670.719,264.79829,
2667.808,261.71545,
2664.898,247.67364,
2661.987,254.20839,
2659.076,248.5194,
2656.166,261.95511,
2653.255,255.375,
2650.345,274.1917,
2647.434,261.80369,
2644.524,265.98891,
2641.613,262.63207,
2638.702,276.13828,
2635.792,267.81269,
2632.881,272.14871,
2629.971,267.65011,
2627.060,271.54219,
2624.149,265.5375,
2621.239,272.39279,
2618.328,290.63712,
2615.418,264.97956,
2612.507,281.82563,
2609.597,280.8241,
2606.686,272.68626,
2603.775,283.9742,
2600.865,286.72655,
2597.954,286.09371,
2595.044,297.73195,
2592.133,304.60442,
2589.223,292.76025,
2586.312,281.54585,
2583.401,290.00641,
2580.491,299.375,
2577.580,271.43606,
2574.670,310.31216,
2571.759,300.51114,
2568.848,298.2535,
2565.938,296.42255,
2563.027,305.27728,
2560.117,302.10397,
2557.206,295.04659,
2554.296,290.97912,
2551.385,306.18498,
2548.474,309.00474,
2545.564,297.81818,
2542.653,312.97568,
2539.743,312.69632,
2536.832,315.29275,
2533.922,322.26462,
2531.011,317.84979,
2528.100,321.17638,
2525.190,319.95615,
2522.279,321.95292,
2519.369,306.43202,
2516.458,303.16183,
2513.548,306.90236,
2510.637,318.68241,
2507.726,325.24861,
2504.816,316.99844,
2501.905,321.17195,
2498.995,334.3305,
2496.084,345.08229,
2493.173,318.79553,
2490.263,323.72305,
2487.352,334.66713,
2484.442,344.22296,
2481.531,346.1091,
2478.621,345.21388,
2475.710,332.5897,
2472.799,358.64856,
2469.889,344.64922,
2466.978,325.99365,
2464.068,330.99408,
2461.157,343.52997,
2458.247,349.65443,
2455.336,350.71551,
2452.425,345.91745,
2449.515,350.84694,
2446.604,358.55474,
2443.694,363.84049,
2440.783,341.41666,
2437.872,365.375,
2434.962,360.6469,
2432.051,364.44322,
2429.141,393.76309,
2426.230,382.48325,
2423.320,383.28981,
2420.409,366.66977,
2417.498,380.16152,
2414.588,374.38264,
2411.677,387.58612,
2408.767,372.44586,
2405.856,385.68455,
2402.946,392.69671,
2400.035,373.20127,
2397.124,403.81351,
2394.214,394.18461,
2391.303,385.51863,
2388.393,383.64243,
2385.482,383.33094,
2382.571,345.31095,
2379.661,368.88665,
2376.750,383.16061,
2373.840,414.98429,
2370.929,413.45081,
2368.019,405.98953,
2365.108,413.86191,
2362.197,414.63795,
2359.287,422.13991,
2356.376,428.37148,
2353.466,417.72255,
2350.555,427.42486,
2347.645,427.29552,
2344.734,422.70678,
2341.823,419.39158,
2338.913,424.90784,
2336.002,432.93715,
2333.092,435.6165,
2330.181,430.375,
2327.270,413.3651,
2324.360,448.50943,
2321.449,450.66752,
2318.539,446.73584,
2315.628,459.90338,
2312.718,458.65914,
2309.807,453.82849,
2306.896,455.69739,
2303.986,477.28404,
2301.075,466.2899,
2298.165,459.58645,
2295.254,475.98723,
2292.344,460.16337,
2289.433,465.71864,
2286.522,478.64277,
2283.612,491.13521,
2280.701,486.31672,
2277.791,475.57537,
2274.880,481.87297,
2271.969,490.46965,
2269.059,488.67199,
2266.148,494.31824,
2263.238,481.28235,
2260.327,482.96142,
2257.417,503.90056,
2254.506,505.61148,
2251.595,512.08772,
2248.685,507.48271,
2245.774,499.9685,
2242.864,496.69918,
2239.953,501.375,
2237.043,502.54393,
2234.132,501.62177,
2231.221,502.21739,
2228.311,504.24484,
2225.400,511.24751,
2222.490,542.86037,
2219.579,545.27215,
2216.669,546.82969,
2213.758,540.72008,
2210.847,545.27171,
2207.937,537.8229,
2205.026,550.48608,
2202.116,557.93019,
2199.205,567.30064,
2196.294,557.18499,
2193.384,570.74302,
2190.473,572.80106,
2187.563,592.24933,
2184.652,569.68846,
2181.742,591.92089,
2178.831,609.16881,
2175.920,619.79212,
2173.010,624.4504,
2170.099,633.30754,
2167.189,677.28172,
2164.278,671.56495,
2161.368,720.80267,
2158.457,746.15303,
2155.546,774.99523,
2152.636,810.58239,
2149.725,830.19378,
2146.815,829.47511,
2143.904,866.10358,
2140.993,928.15816,
2138.083,915.68193,
2135.172,944.79523,
2132.262,933.09507,
2129.351,926.41642,
2126.441,917.77303,
2123.530,896.20664,
2120.619,878.3476,
2117.709,849.88225,
2114.798,812.49795,
2111.888,788.20032,
2108.977,741.32199,
2106.067,719.13338,
2103.156,696.49929,
2100.245,689.37437,
2097.335,687.17081,
2094.424,678.61435,
2091.514,672.2244,
2088.603,652.25521,
2085.692,642.60178,
2082.782,655.51146,
2079.871,646.58854,
2076.961,665.82513,
2074.050,652.56894,
2071.140,657.50135,
2068.229,660.65365,
2065.318,649.93025,
2062.408,639.45065,
2059.497,645.79764,
2056.587,637.06131,
2053.676,654.05689,
2050.766,646.45273,
2047.855,662.00477,
2044.944,650.04006,
2042.034,652.71602,
2039.123,641.59386,
2036.213,647.62174,
2033.302,674.26623,
2030.391,684.8155,
2027.481,673.49709,
2024.570,670.06067,
2021.660,675.07935,
2018.749,680.14706,
2015.839,674.375,
2012.928,684.02937,
2010.017,704.36305,
2007.107,683.14323,
2004.196,676.60115,
2001.286,687.73185,
1998.375,684.97834,
1995.465,663.21607,
1992.554,725.10973,
1989.643,693.82668,
1986.733,674.51535,
1983.822,713.22138,
1980.912,713.36469,
1978.001,700.76462,
1975.090,717.14905,
1972.180,731.2367,
1969.269,722.35484,
1966.359,704.59112,
1963.448,702.56655,
1960.538,718.79368,
1957.627,732.18306,
1954.716,751.82919,
1951.806,765.82854,
1948.895,754.99241,
1945.985,748.90278,
1943.074,735.93588,
1940.164,743.42321,
1937.253,744.04478,
1934.342,739.95628,
1931.432,760.92074,
1928.521,755.0883,
1925.611,741.60883,
1922.700,739.375,
1919.790,728.17859,
1916.879,755.21277,
1913.968,734.40328,
1911.058,751.51614,
1908.147,743.22759,
1905.237,765.19851,
1902.326,743.14539,
1899.415,720.65549,
1896.505,706.23017,
1893.594,706.99098,
1890.684,769.06113,
1887.773,782.44414,
1884.863,770.35905,
1881.952,776.8374,
1879.041,786.67043,
1876.131,786.74624,
1873.220,807.29544,
1870.310,820.58574,
1867.399,822.35901,
1864.489,806.76578,
1861.578,748.81956,
1858.667,812.10853,
1855.757,809.40006,
1852.846,792.1801,
1849.936,811.67832,
1847.025,782.375,
1844.114,803.29742,
1841.204,822.19668,
1838.293,817.85754,
1835.383,822.36351,
1832.472,836.35239,
1829.562,853.84662,
1826.651,833.12657,
1823.740,829.65471,
1820.830,829.28836,
1817.919,857.69255,
1815.009,843.82539,
1812.098,880.76868,
1809.188,882.56105,
1806.277,877.48566,
1803.366,824.70772,
1800.456,845.85884,
1797.545,870.72964,
1794.635,866.05203,
1791.724,871.59838,
1788.813,847.78194,
1785.903,859.76073,
1782.992,824.35114,
1780.082,776.92224,
1777.171,670.69672,
1774.261,656.9406,
1771.350,741.22226,
1768.439,804.56834,
1765.529,851.01675,
1762.618,914.84568,
1759.708,937.69013,
1756.797,921.8447,
1753.887,926.09366,
1750.976,922.58181,
1748.065,900.85734,
1745.155,898.76205,
1742.244,950.04884,
1739.334,959.99618,
1736.423,930.05914,
1733.512,945.84255,
1730.602,977.81551,
1727.691,992.28394,
1724.781,998.30788,
1721.870,1000.9845,
1718.960,968.48571,
1716.049,1036.0437,
1713.138,1042.68,
1710.228,1018.7473,
1707.317,1013.6059,
1704.407,1017.867,
1701.496,1025.6674,
1698.586,1061.4864,
1695.675,1083.0892,
1692.764,1060.707,
1689.854,1097.6427,
1686.943,1086.8134,
1684.033,1106.8534,
1681.122,1099.5109,
1678.211,1135.0324,
1675.301,1117.4305,
1672.390,1196.2135,
1669.480,1142.367,
1666.569,1142.3018,
1663.659,1214.669,
1660.748,1232.1822,
1657.837,1224.059,
1654.927,1299.5156,
1652.016,1306.0554,
1649.106,1333.1547,
1646.195,1324.4949,
1643.285,1330.0358,
1640.374,1358.3123,
1637.463,1355.4831,
1634.553,1362.3947,
1631.642,1430.8202,
1628.732,1471.3809,
1625.821,1472.4457,
1622.911,1579.7664,
1620.000,1619.8711,
1617.089,1689.9621,
1614.179,1728.3034,
1611.268,1848.7649,
1608.358,1943.9268,
1605.447,2005.8898,
1602.536,2038.2635,
1599.626,2007.2574,
1596.715,2005.2826,
1593.805,2043.8313,
1590.894,2043.9716,
1587.984,2007.8652,
1585.073,1961.5358,
1582.162,1935.1726,
1579.252,1906.0077,
1576.341,1907.5846,
1573.431,1899.9769,
1570.520,1885.9093,
1567.610,1881.6299,
1564.699,1881.375,
1561.788,1813.77,
1558.878,1824.2925,
1555.967,1811.9844,
1553.057,1800.2025,
1550.146,1779.0223,
1547.235,1762.0137,
1544.325,1733.795,
1541.414,1720.3957,
1538.504,1727.9164,
1535.593,1718.176,
1532.683,1716.4817,
1529.772,1689.1319,
1526.861,1622.0865,
1523.951,1590.057,
1521.040,1585.6798,
1518.130,1617.6574,
1515.219,1642.6148,
1512.309,1643.42,
1509.398,1624.2933,
1506.487,1606.1153,
1503.577,1585.9377,
1500.666,1558.0685,
1497.756,1584.5526,
1494.845,1552.0159,
1491.934,1591.3498,
1489.024,1583.6499,
1486.113,1545.3592,
1483.203,1556.5857,
1480.292,1529.5256,
1477.382,1562.3627,
1474.471,1550.6558,
1471.560,1524.782,
1468.650,1541.2896,
1465.739,1551.094,
1462.829,1505.6137,
1459.918,1500.7896,
1457.008,1515.7903,
1454.097,1527.4748,
1451.186,1540.7212,
1448.276,1533.2198,
1445.365,1545.0551,
1442.455,1576.221,
1439.544,1593.1006,
1436.633,1541.4147,
1433.723,1582.8644,
1430.812,1604.4197,
1427.902,1566.9917,
1424.991,1550.8797,
1422.081,1561.3847,
1419.170,1571.8797,
1416.259,1570.1347,
1413.349,1613.9342,
1410.438,1604.5825,
1407.528,1570.5566,
1404.617,1579.0987,
1401.707,1612.9229,
1398.796,1643.5358,
1395.885,1654.8277,
1392.975,1634.9161,
1390.064,1619.7929,
1387.154,1640.7394,
1384.243,1638.8239,
1381.332,1653.6044,
1378.422,1639.2784,
1375.511,1637.4048,
1372.601,1722.1595,
1369.690,1701.9439,
1366.780,1725.0962,
1363.869,1766.5194,
1360.958,1795.8804,
1358.048,1857.7731,
1355.137,1864.9367,
1352.227,1867.1987,
1349.316,1895.9314,
1346.406,1884.8205,
1343.495,1892.5789,
1340.584,1937.7318,
1337.674,1958.9446,
1334.763,1930.3397,
1331.853,1929.4125,
1328.942,1983.6323,
1326.032,1971.6157,
1323.121,1907.3569,
1320.210,1948.3056,
1317.300,1925.6639,
1314.389,1933.5981,
1311.479,1960.2101,
1308.568,1953.0243,
1305.657,1966.6986,
1302.747,1950.8998,
1299.836,1998.7092,
1296.926,2016.6569,
1294.015,2044.2366,
1291.105,2114.0573,
1288.194,2123.375,
1285.283,2175.6432,
1282.373,2210.9296,
1279.462,2250.6685,
1276.552,2289.3829,
1273.641,2294.8848,
1270.731,2270.2601,
1267.820,2246.7131,
1264.909,2239.6497,
1261.999,2235.0408,
1259.088,2253.2832,
1256.178,2304.0495,
1253.267,2277.8512,
1250.356,2219.29,
1247.446,2154.7174,
1244.535,2111.0045,
1241.625,2076.5936,
1238.714,2038.6569,
1235.804,2008.4527,
1232.893,1969.7494,
1229.982,1969.5846,
1227.072,1887.2012,
1224.161,1888.9395,
1221.251,1839.0039,
1218.340,1810.3622,
1215.430,1786.7579,
1212.519,1775.5443,
1209.608,1773.3506,
1206.698,1760.843,
1203.787,1755.9077,
1200.877,1755.5481,
1197.966,1790.6153,
1195.055,1817.1192,
1192.145,1882.9852,
1189.234,1910.5117,
1186.324,1946.5599,
1183.413,1960.1263,
1180.503,1951.1319,
1177.592,1947.5564,
1174.681,1884.1079,
1171.771,1875.1277,
1168.860,1864.4107,
1165.950,1835.9612,
1163.039,1801.4389,
1160.129,1801.1721,
1157.218,1784.3767,
1154.307,1764.4245,
1151.397,1771.1614,
1148.486,1758.6228,
1145.576,1769.7945,
1142.665,1733.3901,
1139.754,1719.7978,
1136.844,1725.0783,
1133.933,1711.9528,
1131.023,1709.8169,
1128.112,1709.6623,
1125.202,1685.5441,
1122.291,1672.2551,
1119.380,1685.6262,
1116.470,1711.2195,
1113.559,1698.1368,
1110.649,1693.375,
1107.738,1689.0885,
1104.828,1709.9249,
1101.917,1736.6824,
1099.006,1717.674,
1096.096,1716.2026,
1093.185,1746.0547,
1090.275,1699.0095,
1087.364,1703.8419,
1084.453,1705.1879,
1081.543,1707.8248,
1078.632,1709.5401,
1075.722,1697.2646,
1072.811,1718.1888,
1069.901,1715.5691,
1066.990,1749.3249,
1064.079,1726.7519,
1061.169,1733.9147,
1058.258,1753.9159,
1055.348,1763.8421,
1052.437,1778.719,
1049.527,1775.7778,
1046.616,1786.2037,
1043.705,1795.8534,
1040.795,1813.6991,
1037.884,1806.1914,
1034.974,1816.4446,
1032.063,1856.5597,
1029.153,1845.8291,
1026.242,1857.9385,
1023.331,1818.3776,
1020.421,1822.2257,
1017.510,1846.4244,
1014.600,1852.4935,
1011.689,1841.5153,
1008.778,1837.1911,
1005.868,1796.0468,
1002.957,1870.8977,
1000.047,1931.879,
997.136,2020.8541,
994.226,2093.5746,
991.315,2118.7215,
988.404,2104.0519,
985.494,2070.8955,
982.583,2049.4816,
979.673,2025.8889,
976.762,2016.0266,
973.852,2012.607,
970.941,2022.5266,
968.030,2048.5195,
965.120,2032.4359,
962.209,2046.9291,
959.299,2045.1255,
956.388,2058.494,
953.477,2074.4853,
950.567,2076.9765,
947.656,2068.1549,
944.746,2074.1018,
941.835,2113.246,
938.925,2093.4208,
936.014,2060.1653,
933.103,2068.8571,
930.193,2102.3932,
927.282,2041.046,
924.372,2016.5234,
921.461,2011.1658,
918.551,2003.4038,
915.640,1987.3265,
912.729,1958.4205,
909.819,1927.9369,
906.908,1985.2218,
903.998,1990.7611,
901.087,1966.5513,
898.176,1964.7821,
895.266,1982.5012,
892.355,1997.8145,
889.445,2032.2244,
886.534,2039.8888,
883.624,2070.3068,
880.713,2078.2507,
877.802,2040.415,
874.892,1953.9011,
871.981,1832.9029,
869.071,1685.8702,
866.160,1758.3493,
863.250,1887.8201,
860.339,1985.4216,
857.428,2030.5578,
854.518,2066.5105,
851.607,1967.4942,
848.697,1869.2126,
845.786,1806.4267,
842.875,1827.4667,
839.965,1933.1086,
837.054,2032.6355,
834.144,2055.8406,
831.233,2054.3754,
828.323,2057.8044,
825.412,2055.0381,
822.501,2031.6515,
819.591,2010.9915,
816.680,2003.9647,
813.770,1962.9053,
810.859,1948.8511,
807.949,1957.0677,
805.038,1950.7644,
802.127,1970.5194,
799.217,1981.3197,
796.306,1970.1857,
793.396,1963.2682,
790.485,1966.4269,
787.574,1955.6864,
784.664,1963.8875,
781.753,1955.3102,
778.843,1957.7262,
775.932,1963.8318,
773.022,1960.8822,
770.111,1964.1525,
767.200,2009.2924,
764.290,2008.9281,
761.379,1992.467,
758.469,1978.9804,
755.558,1962.8856,
752.648,1979.9922,
749.737,1932.4574,
746.826,1910.5034,
743.916,1929.4986,
741.005,1954.2045,
738.095,1873.0168,
735.184,1821.1865,
732.274,1768.614,
729.363,1767.3082,
726.452,1848.4013,
723.542,1959.2882,
720.631,1962.3168,
717.721,1986.0074,
714.810,1997.9035,
711.899,1982.672,
708.989,1962.4989,
706.078,1951.9581,
703.168,1952.4111,
700.257,1949.4241,
697.347,1946.7224,
694.436,1962.9205,
691.525,1983.0157,
688.615,1960.3318,
685.704,1948.6919,
682.794,1939.1624,
679.883,1891.6097,
676.973,1941.2947,
674.062,1995.4027,
671.151,1977.857,
668.241,1929.5695,
665.330,1950.5851,
662.420,1976.1445,
659.509,2001.0579,
656.598,2007.182,
653.688,1993.0136,
650.777,1967.7269,
647.867,1948.6151,
644.956,1928.8962,
642.046,1896.5721,
639.135,1862.4885,
636.224,1855.741,
633.314,1928.7834,
630.403,1984.0301,
627.493,2000.9254,
624.582,2000.0881,
621.672,2057.1117,
618.761,2032.0172,
615.850,2050.3734,
612.940,2063.8366,
610.029,2060.9218,
607.119,2142.2538,
604.208,2111.3243,
601.297,2092.8824,
598.387,2101.8403,
595.476,2126.4382,
592.566,2084.7236,
589.655,2108.4737,
586.745,2103.6766,
583.834,2070.3246,
580.923,2052.3797,
578.013,2053.1645,
575.102,2052.2278,
572.192,2051.375,
569.281,2050.8126,
566.371,2047.6821,
563.460,2074.1828,
560.549,2100.4806,
557.639,2107.781,
554.728,2083.7837,
551.818,2074.42,
548.907,2116.8622,
545.996,2120.8813,
543.086,2087.5756,
540.175,2111.7137,
537.265,2094.5437,
534.354,2096.9071,
531.444,2114.1774,
528.533,2134.8165,
525.622,2141.024,
522.712,2142.375,
519.801,2144.2844,
516.891,2163.808,
513.980,2245.1091,
511.070,2230.5402,
508.159,2263.8784,
505.248,2317.3851,
502.338,2338.872,
499.427,2355.8523,
496.517,2370.5568,
493.606,2370.6357,
490.695,2355.482,
487.785,2356.2518,
484.874,2378.3466,
481.964,2371.2722,
479.053,2346.3974,
476.143,2354.845,
473.232,2342.4257,
470.321,2334.4555,
467.411,2335.9337,
464.500,2349.8404,
461.590,2368.2182,
458.679,2379.9785,
455.769,2391.9913,
452.858,2406.5341,
449.947,2408.0619,
447.037,2424.1508,
444.126,2428.8295,
441.216,2422.2853,
438.305,2439.0478,
435.395,2466.9448,
432.484,2469.9562,
429.573,2448.6299,
426.663,2419.7446,
423.752,2198.3854,
420.842,1952.6686,
417.931,1753.7673,
415.020,1684.7568,
412.110,2045.9867,
409.199,2304.0692,
406.289,2415.9265,
403.378,2359.27,
400.468,2328.2742,
397.557,2309.6345,
394.646,2341.7768,
391.736,2452.7754,
388.825,2496.5208,
385.915,2502.4565,
383.004,2509.51,
380.094,2545.2158,
377.183,2600.899,
374.272,2609.8616,
371.362,2622.6233,
368.451,2667.6971,
365.541,2689.4627,
362.630,2683.9039,
359.719,2694.7968,
356.809,2741.7439,
353.898,2714.7871,
350.988,2729.617,
348.077,2728.0464,
345.167,2678.0723,
342.256,2672.0957,
339.345,2707.5753,
336.435,2728.4385,
333.524,2697.9387,
330.614,2715.8224,
327.703,2698.2718,
324.793,2684.3665,
321.882,2707.4129,
318.971,2723.0252,
316.061,2705.4242,
313.150,2678.8345,
310.240,2670.6713,
307.329,2761.8485,
304.418,2782.8726,
301.508,2771.4643,
298.597,2798.1193,
295.687,2777.3488,
292.776,2791.7918,
289.866,2840.2973,
286.955,2901.6115,
284.044,3006.5149,
281.134,3054.599,
278.223,3045.4707,
275.313,3073.4712,
272.402,3126.4282,
269.492,3118.5504,
266.581,3029.5311,
263.670,3045.7051,
260.760,3089.5537,
257.849,3148.7281,
254.939,3215.5114,
252.028,3243.8811,
249.117,3250.7204,
246.207,3268.5361,
243.296,3354.1844,
240.386,3343.1323,
237.475,3344.669,
234.565,3358.7383,
231.654,3322.9495,
228.743,3330.3346,
225.833,3322.4714,
222.922,3279.7487,
220.012,3287.7628,
217.101,3290.375,
214.191,3288.8451,
211.280,3283.7528,
208.369,3297.5041,
205.459,3337.912,
202.548,3385.492,
199.638,3368.8021,
196.727,3340.0215,
193.816,3327.6965,
190.906,3345.1938,
187.995,3425.5606,
185.085,3437.7708,
182.174,3427.2309,
179.264,3452.5277,
176.353,3431.6662,
173.442,3420.9129,
170.532,3414.3701,
167.621,3319.9223,
164.711,3179.2757,
161.800,3024.5017,
158.890,2875.5181,
155.979,2651.3213,
153.068,2418.1848,
150.158,2172.8825,
147.247,1887.8554,
144.337,1579.5713,
141.426,1259.2154,
138.516,930.16237,
135.605,653.10923,
132.694,436.54028,
129.784,278.23252,
126.873,190.27155,
123.963,131.40195,
121.052,90.459877,
118.141,65.473307,
115.231,50.453023,
112.320,39.715005,
109.410,32.147803,
106.499,25.738406,
103.589,21.013473,
100.678,19.733109,
97.767,23.287796,
94.857,17.831088,
91.946,16.181222,
89.036,16.81051,
86.125,13.264484,
83.215,13.436841,
80.304,12.698971,
77.393,7.7417816,
74.483,8.030135,
71.572,11.636169,
68.662,16.751593,
65.751,10.393533,
62.840,11.265212,
59.930,12.87671,
57.019,7.2360545,
54.109,5.7778392,
51.198,6.2798278,
48.288,8.3976498,
45.377,11.211162,
42.466,10.726123,
39.556,6.5331028,
36.645,-4.7019407,
33.735,-1.3940184,
30.824,3.7123391,
27.914,1.6088133,
25.003,2.620275,
22.092,1.7604772,
19.182,-1.121577,
16.271,14.267206,
13.361,51.141432,
10.450,91.572154,
7.539,81.097423,
4.629,-130.22029,
1.718,-408.58602,
-1.192,-679.0781,
-4.103,-565.35365,
-7.013,-327.34253,
-9.924,-1.625,
