,Pliquid_AuCOFNPs-citrate13new_1E-1mgmL_100uL_ctr_1E-2mgL_16h_785nm_133mW_3s_1acc_0_RamanShift__3__43,
Raman shift [1/cm],Intensity,
3014.167,3.625,
3011.256,-1.3250966,
3008.346,327.27681,
3005.435,362.12677,
3002.525,391.23015,
2999.614,391.82238,
2996.704,395.97963,
2993.793,411.88191,
2990.882,419.05241,
2987.972,440.64013,
2985.061,446.72845,
2982.151,466.47711,
2979.240,471.99192,
2976.329,482.64684,
2973.419,505.94772,
2970.508,534.80826,
2967.598,531.67641,
2964.687,550.23709,
2961.777,544.00103,
2958.866,572.28325,
2955.955,582.86615,
2953.045,594.56014,
2950.134,621.57255,
2947.224,623.10897,
2944.313,646.36645,
2941.403,655.49407,
2938.492,672.54102,
2935.581,691.87778,
2932.671,701.90829,
2929.760,707.93268,
2926.850,718.52763,
2923.939,723.78858,
2921.028,725.49573,
2918.118,736.2648,
2915.207,744.63145,
2912.297,751.625,
2909.386,771.85857,
2906.476,755.79639,
2903.565,751.54575,
2900.654,736.57746,
2897.744,740.53699,
2894.833,733.625,
2891.923,757.95201,
2889.012,749.00072,
2886.102,753.26959,
2883.191,750.63161,
2880.280,725.42404,
2877.370,700.20642,
2874.459,685.37985,
2871.549,733.65164,
2868.638,769.85385,
2865.727,769.20194,
2862.817,761.16778,
2859.906,779.02956,
2856.996,771.10462,
2854.085,786.18804,
2851.175,771.27251,
2848.264,785.35034,
2845.353,781.21523,
2842.443,764.62152,
2839.532,773.83392,
2836.622,762.86068,
2833.711,748.50571,
2830.801,748.43823,
2827.890,765.93441,
2824.979,772.45285,
2822.069,771.72735,
2819.158,784.04549,
2816.248,781.40684,
2813.337,779.98597,
2810.427,782.49966,
2807.516,777.83359,
2804.605,803.80769,
2801.695,795.53288,
2798.784,793.47715,
2795.874,778.34532,
2792.963,786.76819,
2790.052,784.62714,
2787.142,771.2435,
2784.231,771.10948,
2781.321,783.2536,
2778.410,787.23034,
2775.500,784.98603,
2772.589,787.0088,
2769.678,783.90823,
2766.768,813.29299,
2763.857,807.46893,
2760.947,811.0525,
2758.036,803.01356,
2755.126,825.33013,
2752.215,832.60661,
2749.304,828.96492,
2746.394,834.39118,
2743.483,830.72495,
2740.573,833.52762,
2737.662,809.52884,
2734.751,825.20744,
2731.841,837.65248,
2728.930,860.66331,
2726.020,842.18634,
2723.109,841.3055,
2720.199,862.76252,
2717.288,862.34398,
2714.377,850.69188,
2711.467,869.65796,
2708.556,877.26289,
2705.646,874.72355,
2702.735,874.97553,
2699.825,897.98321,
2696.914,898.95817,
2694.003,894.88191,
2691.093,882.33862,
2688.182,883.71759,
2685.272,874.77578,
2682.361,896.86627,
2679.450,894.74845,
2676.540,882.92986,
2673.629,897.95684,
2670.719,894.77102,
2667.808,904.04137,
2664.898,907.28745,
2661.987,906.85846,
2659.076,895.04096,
2656.166,933.56009,
2653.255,937.76956,
2650.345,911.55966,
2647.434,972.45352,
2644.524,971.39719,
2641.613,969.88207,
2638.702,953.86172,
2635.792,968.21922,
2632.881,976.17242,
2629.971,982.88002,
2627.060,947.79032,
2624.149,951.73438,
2621.239,965.41799,
2618.328,983.24352,
2615.418,968.98408,
2612.507,961.34831,
2609.597,999.95235,
2606.686,1014.9121,
2603.775,985.99009,
2600.865,1001.8605,
2597.954,989.06242,
2595.044,1018.9465,
2592.133,1028.9627,
2589.223,1021.1429,
2586.312,1028.5497,
2583.401,1025.2966,
2580.491,1031.6394,
2577.580,1060.5722,
2574.670,1030.2854,
2571.759,1041.2312,
2568.848,1051.5643,
2565.938,1065.1488,
2563.027,1065.7477,
2560.117,1072.7185,
2557.206,1051.7357,
2554.296,1093.4763,
2551.385,1076.0711,
2548.474,1083.5138,
2545.564,1045.8279,
2542.653,1071.2659,
2539.743,1093.1681,
2536.832,1079.8082,
2533.922,1100.5462,
2531.011,1096.9999,
2528.100,1101.1581,
2525.190,1111.1119,
2522.279,1130.1243,
2519.369,1105.3605,
2516.458,1121.4047,
2513.548,1138.9975,
2510.637,1119.1946,
2507.726,1111.0637,
2504.816,1111.0004,
2501.905,1095.7701,
2498.995,1139.625,
2496.084,1134.1058,
2493.173,1137.0992,
2490.263,1118.5131,
2487.352,1162.7085,
2484.442,1163.4858,
2481.531,1164.3111,
2478.621,1172.9994,
2475.710,1193.487,
2472.799,1170.6923,
2469.889,1165.3203,
2466.978,1177.7899,
2464.068,1180.5404,
2461.157,1200.1976,
2458.247,1181.1985,
2455.336,1203.7072,
2452.425,1208.4929,
2449.515,1219.7664,
2446.604,1212.9199,
2443.694,1223.2533,
2440.783,1258.3446,
2437.872,1222.5002,
2434.962,1245.625,
2432.051,1251.9646,
2429.141,1251.5074,
2426.230,1243.951,
2423.320,1256.882,
2420.409,1255.6828,
2417.498,1255.1896,
2414.588,1247.2753,
2411.677,1299.8361,
2408.767,1277.8661,
2405.856,1280.3155,
2402.946,1289.0477,
2400.035,1286.1297,
2397.124,1311.5661,
2394.214,1342.1906,
2391.303,1311.7632,
2388.393,1291.6668,
2385.482,1316.3472,
2382.571,1307.5738,
2379.661,1334.3226,
2376.750,1356.6225,
2373.840,1353.6438,
2370.929,1366.4517,
2368.019,1378.1447,
2365.108,1371.481,
2362.197,1388.7482,
2359.287,1361.0451,
2356.376,1401.5493,
2353.466,1381.0034,
2350.555,1388.9951,
2347.645,1385.5204,
2344.734,1386.9292,
2341.823,1402.3928,
2338.913,1424.0459,
2336.002,1418.7591,
2333.092,1401.441,
2330.181,1412.6787,
2327.270,1432.6349,
2324.360,1441.2807,
2321.449,1428.4243,
2318.539,1455.3743,
2315.628,1472.8864,
2312.718,1467.3915,
2309.807,1489.3081,
2306.896,1486.783,
2303.986,1470.768,
2301.075,1471.5613,
2298.165,1463.0097,
2295.254,1451.9051,
2292.344,1490.152,
2289.433,1487.2891,
2286.522,1494.3258,
2283.612,1513.3559,
2280.701,1529.8761,
2277.791,1510.5868,
2274.880,1531.057,
2271.969,1532.8431,
2269.059,1534.9847,
2266.148,1553.2661,
2263.238,1583.5169,
2260.327,1580.935,
2257.417,1560.5189,
2254.506,1610.4113,
2251.595,1595.4942,
2248.685,1596.673,
2245.774,1589.812,
2242.864,1628.236,
2239.953,1625.5836,
2237.043,1620.8186,
2234.132,1622.9548,
2231.221,1668.4959,
2228.311,1663.8376,
2225.400,1687.7376,
2222.490,1689.7683,
2219.579,1701.1135,
2216.669,1728.6727,
2213.758,1713.4067,
2210.847,1734.8063,
2207.937,1777.0777,
2205.026,1792.5139,
2202.116,1792.4116,
2199.205,1812.7737,
2196.294,1843.121,
2193.384,1872.203,
2190.473,1916.9443,
2187.563,1960.0504,
2184.652,2051.0891,
2181.742,2093.3778,
2178.831,2181.0415,
2175.920,2285.4101,
2173.010,2410.8313,
2170.099,2555.1454,
2167.189,2754.7587,
2164.278,2936.7165,
2161.368,3129.4765,
2158.457,3297.0366,
2155.546,3476.0588,
2152.636,3643.4546,
2149.725,3795.9672,
2146.815,3914.3548,
2143.904,3971.558,
2140.993,4053.0218,
2138.083,4052.1539,
2135.172,4028.2468,
2132.262,3971.691,
2129.351,3930.0111,
2126.441,3770.8964,
2123.530,3659.8292,
2120.619,3476.305,
2117.709,3264.8875,
2114.798,3034.4933,
2111.888,2829.8282,
2108.977,2657.2673,
2106.067,2503.0694,
2103.156,2396.0793,
2100.245,2282.5754,
2097.335,2196.5203,
2094.424,2134.0936,
2091.514,2090.9717,
2088.603,2049.4177,
2085.692,2021.4429,
2082.782,2000.834,
2079.871,2002.4826,
2076.961,1972.8206,
2074.050,1977.7038,
2071.140,1953.5105,
2068.229,1922.4414,
2065.318,1923.8595,
2062.408,1909.8217,
2059.497,1905.0417,
2056.587,1911.3343,
2053.676,1873.244,
2050.766,1936.6205,
2047.855,1863.28,
2044.944,1880.5705,
2042.034,1853.3129,
2039.123,1876.0459,
2036.213,1888.605,
2033.302,1897.9728,
2030.391,1899.0488,
2027.481,1888.6983,
2024.570,1910.0672,
2021.660,1887.3397,
2018.749,1886.0429,
2015.839,1891.917,
2012.928,1867.3716,
2010.017,1891.4947,
2007.107,1902.0437,
2004.196,1907.2322,
2001.286,1890.4766,
1998.375,1876.625,
1995.465,1884.4911,
1992.554,1856.8253,
1989.643,1882.5535,
1986.733,1881.2171,
1983.822,1838.3429,
1980.912,1838.4469,
1978.001,1842.1166,
1975.090,1845.3914,
1972.180,1833.0413,
1969.269,1840.7228,
1966.359,1839.7327,
1963.448,1831.1996,
1960.538,1870.9544,
1957.627,1884.0832,
1954.716,1893.3665,
1951.806,1829.6747,
1948.895,1831.6452,
1945.985,1836.7868,
1943.074,1834.9533,
1940.164,1832.9708,
1937.253,1820.9812,
1934.342,1823.4624,
1931.432,1796.543,
1928.521,1812.0551,
1925.611,1836.5989,
1922.700,1781.4758,
1919.790,1798.353,
1916.879,1816.6485,
1913.968,1785.6643,
1911.058,1795.8803,
1908.147,1809.9053,
1905.237,1788.603,
1902.326,1800.625,
1899.415,1803.9055,
1896.505,1811.4081,
1893.594,1800.814,
1890.684,1806.2458,
1887.773,1824.0474,
1884.863,1804.4906,
1881.952,1816.6423,
1879.041,1838.7288,
1876.131,1808.4211,
1873.220,1820.6738,
1870.310,1836.6205,
1867.399,1801.2168,
1864.489,1813.5735,
1861.578,1787.7184,
1858.667,1793.7597,
1855.757,1829.8028,
1852.846,1843.8199,
1849.936,1821.9033,
1847.025,1842.8026,
1844.114,1843.6603,
1841.204,1854.8802,
1838.293,1880.0876,
1835.383,1888.9625,
1832.472,1886.5207,
1829.562,1954.5888,
1826.651,1930.1364,
1823.740,1912.0886,
1820.830,1914.8533,
1817.919,1880.4212,
1815.009,1899.1683,
1812.098,1891.9557,
1809.188,1930.9582,
1806.277,1917.9791,
1803.366,1965.8098,
1800.456,1919.5485,
1797.545,1952.3484,
1794.635,1948.593,
1791.724,1947.7317,
1788.813,1979.426,
1785.903,1992.0048,
1782.992,2015.3821,
1780.082,1994.7212,
1777.171,1977.617,
1774.261,1957.8452,
1771.350,2002.1403,
1768.439,2021.3454,
1765.529,2022.6306,
1762.618,2049.4456,
1759.708,2065.6796,
1756.797,2082.0189,
1753.887,2079.7023,
1750.976,2103.0838,
1748.065,2120.3116,
1745.155,2097.7155,
1742.244,2097.5299,
1739.334,2097.7779,
1736.423,2129.9521,
1733.512,2158.4502,
1730.602,2131.4603,
1727.691,2185.1085,
1724.781,2188.1069,
1721.870,2220.6443,
1718.960,2244.4252,
1716.049,2244.2691,
1713.138,2247.9,
1710.228,2269.5121,
1707.317,2288.5473,
1704.407,2311.2881,
1701.496,2307.2442,
1698.586,2358.3681,
1695.675,2389.7605,
1692.764,2402.0389,
1689.854,2352.8769,
1686.943,2425.9944,
1684.033,2398.3949,
1681.122,2461.5205,
1678.211,2481.4442,
1675.301,2596.2704,
1672.390,2564.948,
1669.480,2673.3149,
1666.569,2758.498,
1663.659,2749.3763,
1660.748,2796.7267,
1657.837,2905.2652,
1654.927,2977.3364,
1652.016,2927.0269,
1649.106,3064.1391,
1646.195,3085.5121,
1643.285,3122.3997,
1640.374,3157.4438,
1637.463,3243.2015,
1634.553,3276.4722,
1631.642,3401.1017,
1628.732,3536.5434,
1625.821,3690.767,
1622.911,3906.4022,
1620.000,4089.3068,
1617.089,4287.6449,
1614.179,4573.4467,
1611.268,4779.0035,
1608.358,5040.1701,
1605.447,5145.9686,
1602.536,5266.2471,
1599.626,5342.7,
1596.715,5346.8098,
1593.805,5284.9161,
1590.894,5245.9209,
1587.984,5275.4026,
1585.073,5192.1401,
1582.162,5216.6995,
1579.252,5167.3439,
1576.341,5108.9644,
1573.431,5072.5634,
1570.520,5061.8031,
1567.610,5011.4478,
1564.699,5059.1527,
1561.788,4983.626,
1558.878,4835.7967,
1555.967,4745.0031,
1553.057,4672.591,
1550.146,4611.0542,
1547.235,4541.6279,
1544.325,4447.1131,
1541.414,4369.3017,
1538.504,4326.6971,
1535.593,4306.2689,
1532.683,4236.7692,
1529.772,4144.3753,
1526.861,4097.4853,
1523.951,4019.5076,
1521.040,3952.7358,
1518.130,3934.4517,
1515.219,3870.4655,
1512.309,3852.3953,
1509.398,3840.2544,
1506.487,3810.6649,
1503.577,3771.944,
1500.666,3803.7003,
1497.756,3762.184,
1494.845,3729.9035,
1491.934,3664.2407,
1489.024,3546.8166,
1486.113,3572.2959,
1483.203,3579.0658,
1480.292,3494.7739,
1477.382,3423.8559,
1474.471,3478.9217,
1471.560,3412.5451,
1468.650,3375.5254,
1465.739,3335.1956,
1462.829,3333.32,
1459.918,3332.8127,
1457.008,3311.471,
1454.097,3343.2192,
1451.186,3376.654,
1448.276,3336.4386,
1445.365,3317.7703,
1442.455,3336.6922,
1439.544,3293.4914,
1436.633,3260.7044,
1433.723,3330.7677,
1430.812,3284.601,
1427.902,3221.4221,
1424.991,3212.8922,
1422.081,3141.9793,
1419.170,3155.4984,
1416.259,3125.4124,
1413.349,3160.6737,
1410.438,3099.0488,
1407.528,3104.6058,
1404.617,3113.8824,
1401.707,3128.9424,
1398.796,3159.0655,
1395.885,3171.6919,
1392.975,3200.1261,
1390.064,3234.8526,
1387.154,3193.54,
1384.243,3137.5191,
1381.332,3092.2208,
1378.422,3238.5038,
1375.511,3333.1187,
1372.601,3458.1154,
1369.690,3505.4856,
1366.780,3564.6914,
1363.869,3654.9051,
1360.958,3715.3154,
1358.048,3801.0425,
1355.137,3878.0633,
1352.227,3953.5795,
1349.316,4027.1782,
1346.406,4110.3784,
1343.495,4249.078,
1340.584,4295.5174,
1337.674,4330.6651,
1334.763,4399.1423,
1331.853,4439.0132,
1328.942,4474.4246,
1326.032,4548.7684,
1323.121,4644.6492,
1320.210,4732.5579,
1317.300,4723.0795,
1314.389,4800.4604,
1311.479,4917.5375,
1308.568,4985.8831,
1305.657,5076.4585,
1302.747,5139.6368,
1299.836,5292.8191,
1296.926,5323.2308,
1294.015,5486.8704,
1291.105,5586.0819,
1288.194,5775.1472,
1285.283,5909.1254,
1282.373,6023.7263,
1279.462,6125.0749,
1276.552,6165.0502,
1273.641,6219.362,
1270.731,6335.9728,
1267.820,6351.6576,
1264.909,6244.1626,
1261.999,6184.9551,
1259.088,6248.8036,
1256.178,6131.8646,
1253.267,6001.1489,
1250.356,5883.6455,
1247.446,5732.7336,
1244.535,5556.5092,
1241.625,5389.2067,
1238.714,5251.3275,
1235.804,5136.9165,
1232.893,5024.135,
1229.982,4973.8414,
1227.072,4832.6128,
1224.161,4744.4582,
1221.251,4652.9406,
1218.340,4572.8566,
1215.430,4543.625,
1212.519,4492.4632,
1209.608,4416.8044,
1206.698,4410.0084,
1203.787,4463.7808,
1200.877,4467.1882,
1197.966,4508.5495,
1195.055,4620.6941,
1192.145,4722.2728,
1189.234,4833.3192,
1186.324,4934.2667,
1183.413,4981.5082,
1180.503,4967.7858,
1177.592,4924.453,
1174.681,4865.4606,
1171.771,4780.7596,
1168.860,4743.2498,
1165.950,4740.4313,
1163.039,4721.0697,
1160.129,4660.1279,
1157.218,4559.2064,
1154.307,4512.2575,
1151.397,4520.9076,
1148.486,4430.4809,
1145.576,4395.0082,
1142.665,4380.8016,
1139.754,4356.0298,
1136.844,4282.6956,
1133.933,4268.8742,
1131.023,4272.5436,
1128.112,4226.7733,
1125.202,4165.3883,
1122.291,4195.1479,
1119.380,4254.4518,
1116.470,4236.8012,
1113.559,4274.0607,
1110.649,4252.8827,
1107.738,4269.3815,
1104.828,4284.8937,
1101.917,4267.992,
1099.006,4276.2538,
1096.096,4288.7325,
1093.185,4290.4885,
1090.275,4267.9654,
1087.364,4251.647,
1084.453,4244.9376,
1081.543,4217.77,
1078.632,4197.1608,
1075.722,4223.1205,
1072.811,4221.7133,
1069.901,4293.3207,
1066.990,4321.2583,
1064.079,4336.8327,
1061.169,4360.4032,
1058.258,4394.6819,
1055.348,4437.9685,
1052.437,4489.9563,
1049.527,4543.1285,
1046.616,4556.1609,
1043.705,4522.1698,
1040.795,4532.0571,
1037.884,4599.2561,
1034.974,4640.5902,
1032.063,4628.4016,
1029.153,4662.3254,
1026.242,4684.8143,
1023.331,4660.6266,
1020.421,4663.9902,
1017.510,4719.7307,
1014.600,4765.2772,
1011.689,4814.3855,
1008.778,4933.0607,
1005.868,5001.2544,
1002.957,5182.7891,
1000.047,5354.0411,
997.136,5471.0562,
994.226,5561.5781,
991.315,5593.6597,
988.404,5516.1966,
985.494,5409.4167,
982.583,5355.4536,
979.673,5357.8681,
976.762,5335.2054,
973.852,5332.0954,
970.941,5334.7313,
968.030,5292.07,
965.120,5277.872,
962.209,5336.6974,
959.299,5328.9188,
956.388,5314.3455,
953.477,5349.3167,
950.567,5401.6123,
947.656,5380.5028,
944.746,5349.0692,
941.835,5381.6372,
938.925,5387.6508,
936.014,5381.5667,
933.103,5375.9188,
930.193,5361.6408,
927.282,5305.5921,
924.372,5231.1787,
921.461,5111.165,
918.551,5078.5962,
915.640,5057.2785,
912.729,4997.2046,
909.819,4928.4009,
906.908,4911.5524,
903.998,4897.1038,
901.087,4940.7265,
898.176,5016.7761,
895.266,5082.0514,
892.355,5119.661,
889.445,5189.3201,
886.534,5238.8824,
883.624,5295.0504,
880.713,5309.9697,
877.802,5318.605,
874.892,5341.455,
871.981,5308.2243,
869.071,5248.91,
866.160,5335.2194,
863.250,5326.7289,
860.339,5286.4265,
857.428,5281.9811,
854.518,5211.5046,
851.607,5207.3443,
848.697,5152.9753,
845.786,5143.1561,
842.875,5130.4089,
839.965,5104.2567,
837.054,5207.3552,
834.144,5183.3214,
831.233,5163.9594,
828.323,5176.4079,
825.412,5157.3455,
822.501,5067.327,
819.591,5026.8334,
816.680,4979.9518,
813.770,4936.6734,
810.859,4895.5142,
807.949,4857.0493,
805.038,4824.9325,
802.127,4810.9394,
799.217,4811.1158,
796.306,4788.9221,
793.396,4767.7318,
790.485,4760.5721,
787.574,4756.5939,
784.664,4755.7738,
781.753,4759.6509,
778.843,4771.4266,
775.932,4755.3909,
773.022,4715.5178,
770.111,4837.337,
767.200,4796.1397,
764.290,4763.2887,
761.379,4773.0754,
758.469,4792.9763,
755.558,4737.7466,
752.648,4741.8196,
749.737,4704.1104,
746.826,4678.4966,
743.916,4623.2022,
741.005,4477.284,
738.095,4314.9086,
735.184,4147.6076,
732.274,4066.5373,
729.363,4159.5984,
726.452,4412.0067,
723.542,4574.6947,
720.631,4653.9626,
717.721,4655.0026,
714.810,4641.9091,
711.899,4658.7934,
708.989,4715.2781,
706.078,4669.9507,
703.168,4645.2661,
700.257,4609.3952,
697.347,4574.1029,
694.436,4585.6867,
691.525,4551.123,
688.615,4547.3985,
685.704,4557.8272,
682.794,4567.6888,
679.883,4567.0039,
676.973,4619.8943,
674.062,4636.3677,
671.151,4606.3119,
668.241,4573.3932,
665.330,4603.6418,
662.420,4582.8748,
659.509,4579.8949,
656.598,4590.5782,
653.688,4603.855,
650.777,4605.2191,
647.867,4622.7383,
644.956,4605.5739,
642.046,4590.552,
639.135,4599.7823,
636.224,4645.6688,
633.314,4654.4021,
630.403,4632.3854,
627.493,4633.6765,
624.582,4664.0376,
621.672,4670.3735,
618.761,4764.0975,
615.850,4802.9918,
612.940,4832.8248,
610.029,4868.2597,
607.119,4824.0404,
604.208,4849.4456,
601.297,4840.1887,
598.387,4827.5106,
595.476,4850.7392,
592.566,4862.5452,
589.655,4903.4984,
586.745,4880.3602,
583.834,4808.7912,
580.923,4759.6108,
578.013,4757.2566,
575.102,4801.3649,
572.192,4807.8287,
569.281,4781.6992,
566.371,4904.5711,
563.460,4884.1735,
560.549,4902.7854,
557.639,4937.4307,
554.728,4940.9061,
551.818,4961.1943,
548.907,5004.018,
545.996,5038.7335,
543.086,5059.3224,
540.175,5081.1244,
537.265,5081.9007,
534.354,5103.1977,
531.444,5146.9176,
528.533,5210.1432,
525.622,5287.738,
522.712,5310.0858,
519.801,5326.6089,
516.891,5370.4747,
513.980,5483.5219,
511.070,5605.6162,
508.159,5707.0676,
505.248,5778.6424,
502.338,5817.6975,
499.427,5922.6667,
496.517,5985.6957,
493.606,6021.0373,
490.695,6044.1511,
487.785,6091.1083,
484.874,6083.1156,
481.964,6084.5917,
479.053,6094.9478,
476.143,6079.5886,
473.232,6070.7116,
470.321,6069.0847,
467.411,6058.2152,
464.500,6021.1983,
461.590,6004.3521,
458.679,6040.3468,
455.769,6066.3785,
452.858,6053.8064,
449.947,6084.3636,
447.037,6077.883,
444.126,6078.8674,
441.216,6100.1811,
438.305,6132.1822,
435.395,6130.0686,
432.484,6092.8681,
429.573,6062.6652,
426.663,6135.6387,
423.752,6138.1379,
420.842,6112.4206,
417.931,6091.3819,
415.020,6118.6828,
412.110,6200.1024,
409.199,6299.0626,
406.289,6366.2135,
403.378,6349.4918,
400.468,6310.1801,
397.557,6301.7382,
394.646,6304.5476,
391.736,6302.2045,
388.825,6320.306,
385.915,6317.6421,
383.004,6336.6094,
380.094,6403.0454,
377.183,6430.887,
374.272,6500.502,
371.362,6572.3449,
368.451,6623.3635,
365.541,6684.9074,
362.630,6725.6596,
359.719,6756.8718,
356.809,6783.9875,
353.898,6789.9779,
350.988,6778.6053,
348.077,6794.3426,
345.167,6860.1548,
342.256,6870.6137,
339.345,6885.3165,
336.435,6906.1735,
333.524,6933.1083,
330.614,6916.7148,
327.703,6970.1532,
324.793,7039.5457,
321.882,7079.6881,
318.971,7105.7086,
316.061,7147.342,
313.150,7203.1035,
310.240,7272.1203,
307.329,7334.6545,
304.418,7356.8012,
301.508,7339.8557,
298.597,7284.3245,
295.687,7329.7408,
292.776,7438.6255,
289.866,7610.8712,
286.955,7863.5153,
284.044,8077.9898,
281.134,8281.2324,
278.223,8475.7379,
275.313,8647.4252,
272.402,8785.2831,
269.492,8945.7595,
266.581,9143.0316,
263.670,9274.6288,
260.760,9446.8775,
257.849,9573.4744,
254.939,9584.4826,
252.028,9706.9548,
249.117,9764.132,
246.207,9819.2424,
243.296,9983.9507,
240.386,9962.4455,
237.475,9923.5682,
234.565,9884.0419,
231.654,9816.8466,
228.743,9765.2261,
225.833,9718.1116,
222.922,9669.752,
220.012,9586.6967,
217.101,9512.5163,
214.191,9425.3769,
211.280,9298.071,
208.369,9314.1919,
205.459,9303.4685,
202.548,9289.6836,
199.638,9411.5926,
196.727,9365.1742,
193.816,9325.87,
190.906,9356.0663,
187.995,9340.1378,
185.085,9338.8807,
182.174,9364.3887,
179.264,9441.0018,
176.353,9520.1107,
173.442,9550.5611,
170.532,9515.9754,
167.621,9355.9188,
164.711,9245.3523,
161.800,9048.4714,
158.890,8649.7423,
155.979,8047.9352,
153.068,7368.7533,
150.158,6605.3984,
147.247,5687.1375,
144.337,4727.0237,
141.426,3733.4795,
138.516,2705.4574,
135.605,1984.9746,
132.694,1371.7969,
129.784,878.62278,
126.873,586.13467,
123.963,404.27492,
121.052,283.86266,
118.141,213.90026,
115.231,163.88508,
112.320,127.95047,
109.410,104.44332,
106.499,93.048832,
103.589,86.142964,
100.678,78.279053,
97.767,66.904052,
94.857,65.932011,
91.946,58.772115,
89.036,48.512102,
86.125,47.802897,
83.215,47.625,
80.304,46.188404,
77.393,41.939384,
74.483,42.280135,
71.572,38.276775,
68.662,30.209395,
65.751,25.970689,
62.840,27.03351,
59.930,30.374145,
57.019,33.194473,
54.109,28.250552,
51.198,23.418563,
48.288,20.664637,
45.377,25.588284,
42.466,26.388342,
39.556,24.740119,
36.645,25.442309,
33.735,20.951764,
30.824,16.183226,
27.914,14.780876,
25.003,14.625,
22.092,13.333382,
19.182,10.556351,
16.271,8.457881,
13.361,27.433525,
10.450,30.947618,
7.539,-106.62051,
4.629,-492.95966,
1.718,-876.32599,
-1.192,-1055.4921,
-4.103,-725.31903,
-7.013,-346.5799,
-9.924,-1.375,
