,PLDA7E~1,
Wavenumbers [1/cm],Intensity,
3014.167,0,
3011.256,0,
3008.346,51.244869,
3005.435,65.03887,
3002.525,63.829978,
2999.614,58.237664,
2996.704,68.540203,
2993.793,67.38076,
2990.882,69.77859,
2987.972,75.005045,
2985.061,72.896548,
2982.151,68.119327,
2979.240,62.014243,
2976.329,82.513651,
2973.419,79,
2970.508,73.45003,
2967.598,78.238956,
2964.687,83.955163,
2961.777,87.717976,
2958.866,72.998515,
2955.955,94.730063,
2953.045,76.751691,
2950.134,92.638492,
2947.224,109.14594,
2944.313,86.292023,
2941.403,112.25045,
2938.492,87,
2935.581,87,
2932.671,99.918441,
2929.760,95.207697,
2926.850,91.36579,
2923.939,92.761695,
2921.028,87.770596,
2918.118,105.67758,
2915.207,94.240609,
2912.297,85.06347,
2909.386,111.38687,
2906.476,98.744392,
2903.565,103.72518,
2900.654,101.15371,
2897.744,95.761128,
2894.833,82.360725,
2891.923,96.487203,
2889.012,82.127167,
2886.102,79.228374,
2883.191,66.015104,
2880.280,41.406691,
2877.370,-62.12182,
2874.459,-115.36462,
2871.549,-57.315398,
2868.638,58.645284,
2865.727,77.423061,
2862.817,71.613647,
2859.906,80.102551,
2856.996,105.0317,
2854.085,97.119746,
2851.175,98.262046,
2848.264,102.853,
2845.353,93.194103,
2842.443,100.80209,
2839.532,96.671656,
2836.622,95.972004,
2833.711,105.94819,
2830.801,108.59706,
2827.890,109.56118,
2824.979,104.28399,
2822.069,114.80667,
2819.158,99.520217,
2816.248,115.44789,
2813.337,111.36097,
2810.427,117.69835,
2807.516,104.58281,
2804.605,114.32211,
2801.695,109.61844,
2798.784,117,
2795.874,110.56463,
2792.963,117.64287,
2790.052,107.00236,
2787.142,113.86838,
2784.231,114.25776,
2781.321,118.43426,
2778.410,107.51016,
2775.500,111.65862,
2772.589,100.46329,
2769.678,116.78845,
2766.768,107.43495,
2763.857,113.21002,
2760.947,112.52206,
2758.036,118.54142,
2755.126,120.23932,
2752.215,117,
2749.304,114.3831,
2746.394,112.54029,
2743.483,119.25001,
2740.573,129.42041,
2737.662,96.711524,
2734.751,121.41756,
2731.841,117,
2728.930,116.91942,
2726.020,121.99479,
2723.109,125.97925,
2720.199,125.21562,
2717.288,124.91241,
2714.377,128.3541,
2711.467,125.01648,
2708.556,129.34021,
2705.646,141.22536,
2702.735,133.67526,
2699.825,136.61998,
2696.914,135.04773,
2694.003,141.68781,
2691.093,122.4284,
2688.182,133.27408,
2685.272,122.47795,
2682.361,133.91157,
2679.450,130.25931,
2676.540,136.22356,
2673.629,144.34531,
2670.719,139.64233,
2667.808,135.24318,
2664.898,128.67509,
2661.987,135.19987,
2659.076,134.36422,
2656.166,147.7576,
2653.255,134.78061,
2650.345,136.40835,
2647.434,141.65704,
2644.524,134.91126,
2641.613,145.77184,
2638.702,140.20515,
2635.792,135.59124,
2632.881,146.9168,
2629.971,147.97991,
2627.060,138.33188,
2624.149,150,
2621.239,140.23073,
2618.328,152.27942,
2615.418,137.99091,
2612.507,155.03157,
2609.597,152.1018,
2606.686,146.9739,
2603.775,148.5992,
2600.865,149.82254,
2597.954,156.47914,
2595.044,161.04428,
2592.133,158.94912,
2589.223,155.97578,
2586.312,154.31659,
2583.401,151.89781,
2580.491,163.88939,
2577.580,142,
2574.670,145.59758,
2571.759,148.39384,
2568.848,156.17134,
2565.938,150.76185,
2563.027,159.09772,
2560.117,165.44861,
2557.206,177.94465,
2554.296,162.6865,
2551.385,164.68599,
2548.474,174.9632,
2545.564,177.09497,
2542.653,171.38926,
2539.743,169.5801,
2536.832,172.81683,
2533.922,170.28385,
2531.011,180.85061,
2528.100,169.46344,
2525.190,172.83771,
2522.279,192.63996,
2519.369,160.1701,
2516.458,156.78328,
2513.548,180.79975,
2510.637,174.18445,
2507.726,175.43866,
2504.816,169.18715,
2501.905,175.11585,
2498.995,173.47775,
2496.084,178.2404,
2493.173,168.13146,
2490.263,170.58419,
2487.352,169.45907,
2484.442,180.2848,
2481.531,179.94682,
2478.621,184.37443,
2475.710,192.90799,
2472.799,182.97307,
2469.889,192.87812,
2466.978,178.23729,
2464.068,178.6614,
2461.157,171.46491,
2458.247,191.97066,
2455.336,190.76711,
2452.425,184.21698,
2449.515,190.87734,
2446.604,194.23038,
2443.694,202.58142,
2440.783,181.9482,
2437.872,204.92707,
2434.962,200.1106,
2432.051,196.87663,
2429.141,202.71176,
2426.230,201.13038,
2423.320,193.74302,
2420.409,192.29477,
2417.498,203.39326,
2414.588,215.62733,
2411.677,201.07172,
2408.767,202.24114,
2405.856,201.40714,
2402.946,210.52994,
2400.035,202.3122,
2397.124,211.20322,
2394.214,197.3244,
2391.303,214.07723,
2388.393,199.63249,
2385.482,218.67815,
2382.571,177.35468,
2379.661,177.55799,
2376.750,208.78561,
2373.840,221.78437,
2370.929,230.90253,
2368.019,219.19273,
2365.108,221.58115,
2362.197,231.16715,
2359.287,231.21003,
2356.376,228.00352,
2353.466,229.19691,
2350.555,226.83989,
2347.645,227.32847,
2344.734,227.84792,
2341.823,229.95025,
2338.913,234.75671,
2336.002,233.44972,
2333.092,240.43679,
2330.181,240,
2327.270,225.82508,
2324.360,235.94103,
2321.449,242.96939,
2318.539,241.93577,
2315.628,241.09233,
2312.718,241.11674,
2309.807,246.86337,
2306.896,246.51174,
2303.986,249.25972,
2301.075,261.80846,
2298.165,254.24007,
2295.254,262.71994,
2292.344,252.31535,
2289.433,248.62545,
2286.522,247.75438,
2283.612,257.69005,
2280.701,247.61437,
2277.791,266.23858,
2274.880,249.71197,
2271.969,252.90535,
2269.059,261.40601,
2266.148,266.16361,
2263.238,255.90348,
2260.327,272.7241,
2257.417,270.66055,
2254.506,266.69512,
2251.595,270.69808,
2248.685,273.6885,
2245.774,251.97833,
2242.864,275.83294,
2239.953,260.59307,
2237.043,269.89642,
2234.132,277.10129,
2231.221,282.97418,
2228.311,276.30156,
2225.400,284.80298,
2222.490,278,
2219.579,286.5476,
2216.669,300.51192,
2213.758,290.82483,
2210.847,270.87911,
2207.937,302.49344,
2205.026,304.44549,
2202.116,281.76857,
2199.205,295.52518,
2196.294,297.05799,
2193.384,307.39451,
2190.473,297.98826,
2187.563,317.9565,
2184.652,310.95796,
2181.742,319.93156,
2178.831,326.87165,
2175.920,340.25137,
2173.010,352.05102,
2170.099,356.13343,
2167.189,380.94977,
2164.278,375.90754,
2161.368,387.28568,
2158.457,397.74342,
2155.546,429.49907,
2152.636,447.48403,
2149.725,455.65771,
2146.815,457,
2143.904,477.71002,
2140.993,497.57677,
2138.083,491.02427,
2135.172,501.52939,
2132.262,499.87764,
2129.351,508.55177,
2126.441,490.67955,
2123.530,494.50614,
2120.619,450.17435,
2117.709,441.83575,
2114.798,430.6692,
2111.888,426.48752,
2108.977,401.20528,
2106.067,377.14109,
2103.156,370.48066,
2100.245,368.00063,
2097.335,366.95288,
2094.424,360.85593,
2091.514,368.26326,
2088.603,341.44235,
2085.692,344.13388,
2082.782,340.12047,
2079.871,329.49942,
2076.961,356.93351,
2074.050,371.59394,
2071.140,345.93088,
2068.229,357.36067,
2065.318,366.35851,
2062.408,353.33285,
2059.497,341.22025,
2056.587,366.44156,
2053.676,360.93413,
2050.766,329.3864,
2047.855,345.59806,
2044.944,363.47276,
2042.034,351.02896,
2039.123,360.93939,
2036.213,356.7689,
2033.302,362.26082,
2030.391,378.52506,
2027.481,382.28052,
2024.570,349.81511,
2021.660,374.10786,
2018.749,375.12622,
2015.839,354.74869,
2012.928,371.05705,
2010.017,380.85776,
2007.107,366.41869,
2004.196,377.23813,
2001.286,396.66783,
1998.375,392.562,
1995.465,376.20089,
1992.554,384.39402,
1989.643,371.51846,
1986.733,366.90965,
1983.822,381.73043,
1980.912,368.30647,
1978.001,363.42302,
1975.090,395.39847,
1972.180,386.82847,
1969.269,384.92531,
1966.359,383.21612,
1963.448,375.34742,
1960.538,388.60717,
1957.627,374.16717,
1954.716,389.48292,
1951.806,399.19227,
1948.895,418.81179,
1945.985,392.50653,
1943.074,380.32833,
1940.164,395.06733,
1937.253,395.70872,
1934.342,386.43583,
1931.432,386.50473,
1928.521,407.58549,
1925.611,410.23383,
1922.700,405.62569,
1919.790,413.61262,
1916.879,394.53449,
1913.968,419.9668,
1911.058,415.66967,
1908.147,414.71974,
1905.237,432.64702,
1902.326,397.24298,
1899.415,373.60854,
1896.505,379.04215,
1893.594,385.0854,
1890.684,417.16979,
1887.773,433.53457,
1884.863,440.5672,
1881.952,431.35265,
1879.041,416.67861,
1876.131,415.62876,
1873.220,411.64158,
1870.310,444.41698,
1867.399,393.86365,
1864.489,437.87064,
1861.578,412.14819,
1858.667,437.10776,
1855.757,452.03222,
1852.846,424.79485,
1849.936,445.86087,
1847.025,436.46958,
1844.114,434.96469,
1841.204,430.51049,
1838.293,442.98836,
1835.383,445.0815,
1832.472,453.45391,
1829.562,471.58203,
1826.651,453.75157,
1823.740,436.44826,
1820.830,454.83483,
1817.919,468.32939,
1815.009,433.18194,
1812.098,471.88186,
1809.188,450.7365,
1806.277,467.57949,
1803.366,456.28282,
1800.456,473.71444,
1797.545,484.4327,
1794.635,464.61393,
1791.724,436.15532,
1788.813,442.20026,
1785.903,443.93798,
1782.992,440.83008,
1780.082,415.26339,
1777.171,376.32333,
1774.261,367.47057,
1771.350,417.7915,
1768.439,419.85118,
1765.529,443.73155,
1762.618,491.29129,
1759.708,518.61962,
1756.797,498.7197,
1753.887,499.00146,
1750.976,494.77226,
1748.065,491.67434,
1745.155,474.0905,
1742.244,499.06606,
1739.334,503.93648,
1736.423,506.89158,
1733.512,515.36587,
1730.602,514.00793,
1727.691,518.37362,
1724.781,549.10333,
1721.870,522.39504,
1718.960,508.24438,
1716.049,553.98258,
1713.138,542.4801,
1710.228,502.44753,
1707.317,550.95886,
1704.407,541.82885,
1701.496,543.64619,
1698.586,559.70774,
1695.675,575.97134,
1692.764,608.24182,
1689.854,610.95669,
1686.943,597.47216,
1684.033,602.85098,
1681.122,577.4418,
1678.211,604.73351,
1675.301,610.9815,
1672.390,622.01196,
1669.480,625.93582,
1666.569,618.68558,
1663.659,672.70229,
1660.748,713.63099,
1657.837,645.13723,
1654.927,696.39829,
1652.016,713,
1649.106,713.12241,
1646.195,717.4965,
1643.285,697.91146,
1640.374,736.85366,
1637.463,731.13492,
1634.553,792.80789,
1631.642,780.11944,
1628.732,791.02963,
1625.821,796.04711,
1622.911,867.59427,
1620.000,859.11339,
1617.089,904.08457,
1614.179,907.9154,
1611.268,998.50528,
1608.358,1028.689,
1605.447,1046.0287,
1602.536,1069.3653,
1599.626,1072.8399,
1596.715,1048.4948,
1593.805,1051.366,
1590.894,1060.8067,
1587.984,1048.1425,
1585.073,1027.282,
1582.162,1013.1465,
1579.252,1004.4536,
1576.341,1043.0532,
1573.431,1020.1067,
1570.520,1031.6382,
1567.610,1048.4315,
1564.699,1015.7485,
1561.788,967.49329,
1558.878,961.19316,
1555.967,972.26731,
1553.057,982.37925,
1550.146,948.51281,
1547.235,907.88053,
1544.325,895.43447,
1541.414,905.80114,
1538.504,901.64113,
1535.593,894.35606,
1532.683,894.02787,
1529.772,883.55005,
1526.861,889.05821,
1523.951,880.14588,
1521.040,841.71285,
1518.130,849.6738,
1515.219,856.92023,
1512.309,852.96398,
1509.398,860.48867,
1506.487,848.34623,
1503.577,859.03586,
1500.666,807.33577,
1497.756,810.76281,
1494.845,822.24122,
1491.934,875.86457,
1489.024,834.47737,
1486.113,825.58228,
1483.203,825.88817,
1480.292,812.42382,
1477.382,792.21854,
1474.471,797.97593,
1471.560,809.70799,
1468.650,817.09964,
1465.739,824.76441,
1462.829,770.70553,
1459.918,770.12187,
1457.008,786.27674,
1454.097,791.41064,
1451.186,809.42553,
1448.276,807.7966,
1445.365,825.32306,
1442.455,857.02606,
1439.544,869.48221,
1436.633,808.46673,
1433.723,844.23416,
1430.812,876.86257,
1427.902,824.39116,
1424.991,798.80157,
1422.081,834.69908,
1419.170,793.93292,
1416.259,830.7434,
1413.349,844.77621,
1410.438,839.0022,
1407.528,846.94361,
1404.617,859.45841,
1401.707,865.58982,
1398.796,889.18526,
1395.885,894.5707,
1392.975,867,
1390.064,870.53171,
1387.154,875.02777,
1384.243,861.31022,
1381.332,858.44266,
1378.422,862.53136,
1375.511,872.83595,
1372.601,930.13736,
1369.690,910.99777,
1366.780,954.52211,
1363.869,942.29978,
1360.958,929.69892,
1358.048,969.53183,
1355.137,999.05137,
1352.227,993.59473,
1349.316,996.88721,
1346.406,1007.9331,
1343.495,992.01044,
1340.584,984.60703,
1337.674,998.32485,
1334.763,1049.271,
1331.853,1003.8367,
1328.942,1066.9309,
1326.032,1063.5813,
1323.121,1023.9518,
1320.210,1067.6033,
1317.300,1042.8791,
1314.389,998.80541,
1311.479,1033.9414,
1308.568,1082.9713,
1305.657,1063.8855,
1302.747,1041.6394,
1299.836,1064.7224,
1296.926,1126.06,
1294.015,1105.8348,
1291.105,1134.0579,
1288.194,1126.8176,
1285.283,1153.3561,
1282.373,1180.1874,
1279.462,1207.1173,
1276.552,1215.9606,
1273.641,1208.6204,
1270.731,1198.8851,
1267.820,1193.8269,
1264.909,1254.2524,
1261.999,1226.5007,
1259.088,1212.8189,
1256.178,1207.7177,
1253.267,1246.127,
1250.356,1221.4283,
1247.446,1162.3424,
1244.535,1119.125,
1241.625,1109.8444,
1238.714,1115.1318,
1235.804,1094.3982,
1232.893,1033.5023,
1229.982,1021.8961,
1227.072,989.30487,
1224.161,988.68101,
1221.251,962.19767,
1218.340,954.29562,
1215.430,950.59572,
1212.519,926.62582,
1209.608,918.30128,
1206.698,942.12752,
1203.787,924.2211,
1200.877,921.89451,
1197.966,952.46593,
1195.055,1018.8469,
1192.145,1054.043,
1189.234,1026.3164,
1186.324,1039.7304,
1183.413,1055.9594,
1180.503,1044.0235,
1177.592,1041.4948,
1174.681,1015.8185,
1171.771,987.12363,
1168.860,992.48217,
1165.950,969.61761,
1163.039,958.41278,
1160.129,967.7971,
1157.218,962.53939,
1154.307,965.80921,
1151.397,981.40198,
1148.486,942.99713,
1145.576,959.96145,
1142.665,959.07354,
1139.754,948.42283,
1136.844,920.08879,
1133.933,923.66265,
1131.023,925.03018,
1128.112,915.35709,
1125.202,915.51691,
1122.291,914.62669,
1119.380,919.09527,
1116.470,928.80309,
1113.559,935.41274,
1110.649,950.09691,
1107.738,940.38964,
1104.828,922.6712,
1101.917,928.35547,
1099.006,950.72171,
1096.096,939.08619,
1093.185,924.16015,
1090.275,923,
1087.364,925.74449,
1084.453,928.12493,
1081.543,939.95552,
1078.632,938.33028,
1075.722,910.01794,
1072.811,936,
1069.901,936,
1066.990,944.08331,
1064.079,947.36103,
1061.169,943.58159,
1058.258,947.19925,
1055.348,966.40667,
1052.437,984.7363,
1049.527,963.33566,
1046.616,972.02396,
1043.705,963.75082,
1040.795,971.21607,
1037.884,978.01148,
1034.974,976.02062,
1032.063,975.76906,
1029.153,989.54593,
1026.242,977.43654,
1023.331,964.5008,
1020.421,987.79275,
1017.510,1014.6877,
1014.600,1024.0395,
1011.689,1019.1448,
1008.778,1008.7898,
1005.868,961.67955,
1002.957,1037.3907,
1000.047,1063.56,
997.136,1097.779,
994.226,1127.8152,
991.315,1142.1312,
988.404,1147.3243,
985.494,1148.252,
982.583,1114.8463,
979.673,1099.0253,
976.762,1086.1935,
973.852,1098.5644,
970.941,1124.6674,
968.030,1129.0462,
965.120,1118.0501,
962.209,1129.9857,
959.299,1131.2918,
956.388,1129.8801,
953.477,1131.8772,
950.567,1133.1243,
947.656,1126.3369,
944.746,1136.5316,
941.835,1168.5827,
938.925,1170.7356,
936.014,1165.4709,
933.103,1150.6417,
930.193,1124.8039,
927.282,1111.4959,
924.372,1102.1942,
921.461,1089.2176,
918.551,1082.6763,
915.640,1075.9007,
912.729,1074.9038,
909.819,1088.7759,
906.908,1071.9274,
903.998,1081.3397,
901.087,1066.8143,
898.176,1079.9054,
895.266,1107.5392,
892.355,1111.7435,
889.445,1105.0294,
886.534,1114.1836,
883.624,1138.2035,
880.713,1162.2693,
877.802,1153.8091,
874.892,1102.4177,
871.981,1048.0013,
869.071,921.01858,
866.160,909.34939,
863.250,1006.7839,
860.339,1090.2841,
857.428,1092.8262,
854.518,1108.8796,
851.607,1104.7193,
848.697,1045.5355,
845.786,1013.8103,
842.875,1008.6505,
839.965,1027.3986,
837.054,1116.2233,
834.144,1136.1133,
831.233,1148.666,
828.323,1137.6683,
825.412,1125.5416,
822.501,1130.7659,
819.591,1118.3699,
816.680,1118,
813.770,1102.9639,
810.859,1080.4628,
807.949,1071.9927,
805.038,1092.6018,
802.127,1089.3093,
799.217,1089,
796.306,1091.8379,
793.396,1092.0534,
790.485,1085.2096,
787.574,1071.0623,
784.664,1072.7025,
781.753,1107.2202,
778.843,1100.9661,
775.932,1088.4196,
773.022,1114.634,
770.111,1118.7219,
767.200,1098.4446,
764.290,1098.3567,
761.379,1112.8467,
758.469,1125.9073,
755.558,1117.8784,
752.648,1113.8054,
749.737,1078.4022,
746.826,1073.5204,
743.916,1094.8637,
741.005,1108.0742,
738.095,1091.0248,
735.184,1021.0693,
732.274,967.17923,
729.363,951.06953,
726.452,979.71745,
723.542,1050.1347,
720.631,1067.7617,
717.721,1083.4569,
714.810,1094.6648,
711.899,1094.297,
708.989,1074.1239,
706.078,1126.886,
703.168,1127.2484,
700.257,1118.1749,
697.347,1106.5663,
694.436,1070.2875,
691.525,1117.712,
688.615,1106.617,
685.704,1099.1803,
682.794,1102.2554,
679.883,1091.658,
676.973,1128.521,
674.062,1126.4288,
671.151,1104.7818,
668.241,1080.4263,
665.330,1069.416,
662.420,1078.202,
659.509,1128.8897,
656.598,1141.421,
653.688,1118.9296,
650.777,1111.4059,
647.867,1093.8867,
644.956,1068.9489,
642.046,1070.5109,
639.135,1088.2751,
636.224,1077.9324,
633.314,1064.4354,
630.403,1081.6924,
627.493,1097.5363,
624.582,1110.0646,
621.672,1155.2082,
618.761,1153.9602,
615.850,1140.8783,
612.940,1140.563,
610.029,1161.4989,
607.119,1176.5019,
604.208,1173.7399,
601.297,1175.4896,
598.387,1172.6941,
595.476,1158.7827,
592.566,1177.6723,
589.655,1155.7323,
586.745,1151.9813,
583.834,1164.5608,
580.923,1162.91,
578.013,1148,
575.102,1145.7208,
572.192,1150.2156,
569.281,1153.0474,
566.371,1136.6123,
563.460,1146.993,
560.549,1157.3601,
557.639,1173.2054,
554.728,1198.0437,
551.818,1151.2248,
548.907,1156.2353,
545.996,1167.9439,
543.086,1176.8717,
540.175,1204.1243,
537.265,1208.8971,
534.354,1213.0101,
531.444,1208.1976,
528.533,1188.3311,
525.622,1192.9868,
522.712,1183.0784,
519.801,1169.8899,
516.891,1171.1119,
513.980,1226.0869,
511.070,1233.8174,
508.159,1263.1764,
505.248,1299.2576,
502.338,1314.4804,
499.427,1296.7282,
496.517,1325.9394,
493.606,1345.9431,
490.695,1332.0743,
487.785,1318.218,
484.874,1322.4622,
481.964,1338.0431,
479.053,1354.2646,
476.143,1351.1927,
473.232,1333.0149,
470.321,1326.9732,
467.411,1324.2011,
464.500,1313.1551,
461.590,1319.2811,
458.679,1317.6982,
455.769,1313.4247,
452.858,1313.1814,
449.947,1343.7386,
447.037,1342.7189,
444.126,1337.2606,
441.216,1342.0853,
438.305,1377.1341,
435.395,1353.8076,
432.484,1346.9183,
429.573,1356.7575,
426.663,1351.4365,
423.752,1295.2065,
420.842,1180.1195,
417.931,1037.9559,
415.020,918.13535,
412.110,1094.7084,
409.199,1242.6625,
406.289,1320.6206,
403.378,1297.9155,
400.468,1272.9677,
397.557,1271.1698,
394.646,1298.009,
391.736,1355.6761,
388.825,1376.7945,
385.915,1405.8843,
383.004,1426.5711,
380.094,1427.5393,
377.183,1418.5096,
374.272,1429.5695,
371.362,1443.6489,
368.451,1451.3221,
365.541,1473.0877,
362.630,1486.1011,
359.719,1482.825,
356.809,1462.6311,
353.898,1489.5879,
350.988,1470.4182,
348.077,1450.9041,
345.167,1457.6216,
342.256,1450.1509,
339.345,1482.5431,
336.435,1503.5619,
333.524,1479.3288,
330.614,1489.761,
327.703,1509.429,
324.793,1513.6572,
321.882,1481.0397,
318.971,1497.3954,
316.061,1499.5818,
313.150,1495.3071,
310.240,1493.0808,
307.329,1523.7294,
304.418,1529.6167,
301.508,1517.8646,
298.597,1502.3159,
295.687,1519.2855,
292.776,1535.5,
289.866,1549.1138,
286.955,1563.8883,
284.044,1600.155,
281.134,1625.5543,
278.223,1642.3291,
275.313,1692.4353,
272.402,1737.2733,
269.492,1734.4338,
266.581,1674.527,
263.670,1667.9104,
260.760,1703.0892,
257.849,1740.8494,
254.939,1751.8576,
252.028,1757.0669,
249.117,1753.0612,
246.207,1756.2282,
243.296,1795.7582,
240.386,1858.7693,
237.475,1886.9265,
234.565,1876.2483,
231.654,1839.7291,
228.743,1823.9448,
225.833,1831.4154,
222.922,1860.0635,
220.012,1818.5358,
217.101,1802.0557,
214.191,1812.1136,
211.280,1855.7614,
208.369,1831.4147,
205.459,1849.1415,
202.548,1890.4847,
199.638,1858.5561,
196.727,1860.6432,
193.816,1869.7092,
190.906,1877.4983,
187.995,1920.2157,
185.085,1910.4115,
182.174,1897.6913,
179.264,1951.8987,
176.353,1953.5145,
173.442,1937.9479,
170.532,1909.4555,
167.621,1861.8711,
164.711,1793.8154,
161.800,1711.0675,
158.890,1614.624,
155.979,1466.2105,
153.068,1328.158,
150.158,1188.898,
147.247,994.33298,
144.337,828.31935,
141.426,663.93479,
138.516,489.01333,
135.605,363.81802,
132.694,242.64668,
129.784,139.47403,
126.873,100.85702,
123.963,70.806265,
121.052,47.767637,
118.141,32.061793,
115.231,27.026008,
112.320,25.423636,
109.410,23.681961,
106.499,11.575322,
103.589,12.361527,
100.678,16.086487,
97.767,18.930237,
94.857,14.149077,
91.946,6.3564478,
89.036,-0.98391883,
86.125,5.3989286,
83.215,6.4690796,
80.304,5.2817019,
77.393,3.1571921,
74.483,4.9654049,
71.572,8.1741127,
68.662,11.099523,
65.751,1.9156585,
62.840,4.2987218,
59.930,8.5017104,
57.019,2.8610545,
54.109,2,
51.198,1.3967814,
48.288,0.03397465,
45.377,4.2542431,
42.466,4.763342,
39.556,1.9639328,
36.645,-4.3557791,
33.735,-1.8460123,
30.824,0.67467816,
27.914,-3.5323733,
25.003,0.9810998,
22.092,1.7396681,
19.182,-2.4508113,
16.271,14.336952,
13.361,101.49847,
10.450,236.15814,
7.539,376.51953,
4.629,151.73956,
1.718,-195.63219,
-1.192,-530.26157,
-4.103,-509.80237,
-7.013,-327.6296,
-9.924,-4,
