,PLIQUI~4,
Wavenumbers [1/cm],Intensity,
3014.167,-0.5,
3011.256,-2.8499678,
3008.346,49.441968,
3005.435,66.040639,
3002.525,69.36745,
2999.614,66.629909,
2996.704,73.82681,
2993.793,89.78456,
2990.882,79.881592,
2987.972,81.535315,
2985.061,96.923656,
2982.151,96.931924,
2979.240,86.284226,
2976.329,98.781397,
2973.419,101.13081,
2970.508,103.81664,
2967.598,99.786747,
2964.687,108.84307,
2961.777,107.06405,
2958.866,109.49109,
2955.955,128.32964,
2953.045,125.13311,
2950.134,123.5,
2947.224,109.92703,
2944.313,125.39886,
2941.403,116.94024,
2938.492,126.09622,
2935.581,125.52702,
2932.671,135.8948,
2929.760,125.53849,
2926.850,134.76128,
2923.939,141.97661,
2921.028,148.10583,
2918.118,146.7796,
2915.207,147.6203,
2912.297,146.51693,
2909.386,143.09124,
2906.476,145.14325,
2903.565,137.69259,
2900.654,151.05309,
2897.744,150.16055,
2894.833,127.21127,
2891.923,144.66351,
2889.012,129.83526,
2886.102,138.60134,
2883.191,93.551921,
2880.280,79.791862,
2877.370,5.0002115,
2874.459,-19.776964,
2871.549,12.224558,
2868.638,130.46077,
2865.727,119.17296,
2862.817,152.4706,
2859.906,141.86752,
2856.996,158.47283,
2854.085,172.42228,
2851.175,138.5,
2848.264,158.40716,
2845.353,157.41373,
2842.443,161.88538,
2839.532,165.18662,
2836.622,147.41016,
2833.711,156.18132,
2830.801,170.29118,
2827.890,159.8549,
2824.979,161.57401,
2822.069,170.63647,
2819.158,179.45957,
2816.248,168.52316,
2813.337,176.04634,
2810.427,175.36777,
2807.516,169.24109,
2804.605,162.15626,
2801.695,179.85528,
2798.784,166.05238,
2795.874,165.64512,
2792.963,166.07149,
2790.052,180.49721,
2787.142,163.52623,
2784.231,158.04813,
2781.321,170.1286,
2778.410,179.5,
2775.500,177.20241,
2772.589,157.15519,
2769.678,170.07341,
2766.768,168.80486,
2763.857,179.23603,
2760.947,174.00946,
2758.036,183.12425,
2755.126,183.88034,
2752.215,182.30905,
2749.304,180.3723,
2746.394,185.92338,
2743.483,188.05,
2740.573,193.82303,
2737.662,172.9571,
2734.751,182.05824,
2731.841,170.90476,
2728.930,174.80515,
2726.020,177.73495,
2723.109,183.06708,
2720.199,191.12818,
2717.288,189.02555,
2714.377,185.7918,
2711.467,186.05715,
2708.556,201.19137,
2705.646,207.19015,
2702.735,194.683,
2699.825,199.25086,
2696.914,196.40501,
2694.003,175.94064,
2691.093,188.9284,
2688.182,194.42815,
2685.272,188.26102,
2682.361,188.25873,
2679.450,192.5,
2676.540,194.43903,
2673.629,191.83184,
2670.719,193.14233,
2667.808,198.25682,
2664.898,204.31809,
2661.987,214.03342,
2659.076,207.02587,
2656.166,200.03246,
2653.255,202.01871,
2650.345,216.39655,
2647.434,225.44227,
2644.524,204.27219,
2641.613,201.38561,
2638.702,199.5,
2635.792,206.28265,
2632.881,208.20217,
2629.971,222.73493,
2627.060,212.33219,
2624.149,213.69064,
2621.239,215.02075,
2618.328,217.5,
2615.418,215.84091,
2612.507,214.9822,
2609.597,205.6018,
2606.686,220.4739,
2603.775,231.22223,
2600.865,225.50337,
2597.954,221.45209,
2595.044,222.81267,
2592.133,225.66559,
2589.223,233.4158,
2586.312,234.52511,
2583.401,236.35765,
2580.491,233.95192,
2577.580,227.53466,
2574.670,241.30483,
2571.759,228.00513,
2568.848,232.5,
2565.938,234.88093,
2563.027,235.93865,
2560.117,232.13552,
2557.206,219.84318,
2554.296,226.99199,
2551.385,253.062,
2548.474,241.94424,
2545.564,237.5,
2542.653,241.26846,
2539.743,237.04313,
2536.832,252.37851,
2533.922,243.56308,
2531.011,249.14986,
2528.100,252.43379,
2525.190,253.87172,
2522.279,246.92208,
2519.369,252.78318,
2516.458,250.94759,
2513.548,260.97264,
2510.637,249.11483,
2507.726,259.74907,
2504.816,269.81342,
2501.905,242.225,
2498.995,263.73888,
2496.084,267.80662,
2493.173,272.36854,
2490.263,264.33162,
2487.352,282.4984,
2484.442,263.20234,
2481.531,267.76069,
2478.621,261.96445,
2475.710,287.33898,
2472.799,269.95288,
2469.889,268.86563,
2466.978,268.04628,
2464.068,285.90745,
2461.157,270.53752,
2458.247,271.61771,
2455.336,278.5,
2452.425,269.5849,
2449.515,276.70791,
2446.604,289.32721,
2443.694,289.89558,
2440.783,292.88063,
2437.872,284.28121,
2434.962,281.3894,
2432.051,289.01234,
2429.141,289.92351,
2426.230,297.97847,
2423.320,294.98604,
2420.409,293.22413,
2417.498,298.14043,
2414.588,292.58743,
2411.677,286.67929,
2408.767,295.29429,
2405.856,302.27859,
2402.946,311.87533,
2400.035,305.01407,
2397.124,320.51069,
2394.214,312.92882,
2391.303,287.4668,
2388.393,293.5,
2385.482,294.45594,
2382.571,305.70296,
2379.661,305.26719,
2376.750,306.50506,
2373.840,315.59989,
2370.929,324.47834,
2368.019,333.2346,
2365.108,334.96597,
2362.197,331.2781,
2359.287,323.3234,
2356.376,336.47182,
2353.466,320.57713,
2350.555,311.16538,
2347.645,337.56489,
2344.734,327.95157,
2341.823,333.33417,
2338.913,342.19103,
2336.002,332.61243,
2333.092,346.32738,
2330.181,344.93737,
2327.270,350.94995,
2324.360,362.69341,
2321.449,350.71427,
2318.539,346.71409,
2315.628,341.15627,
2312.718,337.14978,
2309.807,353.63663,
2306.896,360.03522,
2303.986,365.66876,
2301.075,356.73404,
2298.165,348.72099,
2295.254,359.21994,
2292.344,369.29257,
2289.433,354.81273,
2286.522,362.33472,
2283.612,360.00891,
2280.701,369.07844,
2277.791,369.06105,
2274.880,384.21197,
2271.969,385.08436,
2269.059,377.05858,
2266.148,381.8773,
2263.238,374.50387,
2260.327,385.63795,
2257.417,389.16055,
2254.506,389.24072,
2251.595,390.63449,
2248.685,387.1885,
2245.774,401.52167,
2242.864,379.92641,
2239.953,401.86549,
2237.043,392.08323,
2234.132,378.861,
2231.221,383.65761,
2228.311,398.1572,
2225.400,394.58444,
2222.490,397.31433,
2219.579,403.33808,
2216.669,410.031,
2213.758,406.76144,
2210.847,406.08187,
2207.937,428.52277,
2205.026,425.72245,
2202.116,418.97558,
2199.205,421.21224,
2196.294,436.61597,
2193.384,440.94749,
2190.473,434.35211,
2187.563,450.52417,
2184.652,456.55428,
2181.742,463.68196,
2178.831,474.41443,
2175.920,483.33424,
2173.010,491.20068,
2170.099,502.29911,
2167.189,551.50718,
2164.278,559.10302,
2161.368,594.92888,
2158.457,601.20881,
2155.546,629.15098,
2152.636,675.12756,
2149.725,682.34565,
2146.815,699.83262,
2143.904,735.39963,
2140.993,741.25124,
2138.083,759.8526,
2135.172,747.55038,
2132.262,759.02465,
2129.351,764.21376,
2126.441,733.34457,
2123.530,736.99492,
2120.619,688.50934,
2117.709,658.48994,
2114.798,625.07671,
2111.888,591.93761,
2108.977,574.87747,
2106.067,531.61462,
2103.156,531.93786,
2100.245,525.48494,
2097.335,499.21205,
2094.424,483.21805,
2091.514,490.50542,
2088.603,489.5323,
2085.692,487.95719,
2082.782,484.60448,
2079.871,494.46499,
2076.961,485.33951,
2074.050,482.40303,
2071.140,483.87904,
2068.229,496.32944,
2065.318,491.30326,
2062.408,488.26477,
2059.497,480.11906,
2056.587,468.76773,
2053.676,469.66617,
2050.766,451.19357,
2047.855,468.90194,
2044.944,451.16025,
2042.034,467.55201,
2039.123,472.66162,
2036.213,482.30886,
2033.302,464.17407,
2030.391,475.46556,
2027.481,491.70727,
2024.570,490.12866,
2021.660,478.20955,
2018.749,482.68995,
2015.839,484.54068,
2012.928,464.58054,
2010.017,464.42183,
2007.107,470.91869,
2004.196,488.39292,
2001.286,493.62369,
1998.375,470.49507,
1995.465,485.525,
1992.554,455.56502,
1989.643,472.70503,
1986.733,462.62369,
1983.822,480.10192,
1980.912,463.22259,
1978.001,460.20316,
1975.090,470.5,
1972.180,474.3617,
1969.269,462.64937,
1966.359,463.47314,
1963.448,505.56474,
1960.538,482.79357,
1957.627,486.09134,
1954.716,482.64363,
1951.806,500.74839,
1948.895,501.80168,
1945.985,474.04902,
1943.074,468.70658,
1940.164,477.36534,
1937.253,467.47404,
1934.342,468.577,
1931.432,469.99527,
1928.521,488.52764,
1925.611,458.97447,
1922.700,453.58011,
1919.790,488.36669,
1916.879,489.779,
1913.968,477.51475,
1911.058,481.88739,
1908.147,497.24887,
1905.237,466.9191,
1902.326,458.08222,
1899.415,463.8122,
1896.505,457.49387,
1893.594,430.32617,
1890.684,453.22523,
1887.773,496.43086,
1884.863,481.72779,
1881.952,472.59248,
1879.041,495.43822,
1876.131,513.9013,
1873.220,441.53509,
1870.310,479.69722,
1867.399,518.92423,
1864.489,508.5,
1861.578,507.37921,
1858.667,496.35329,
1855.757,491.51432,
1852.846,482.28459,
1849.936,508.84834,
1847.025,525.96958,
1844.114,518.42937,
1841.204,509.97203,
1838.293,520.00249,
1835.383,511.94201,
1832.472,522.51217,
1829.562,485.58983,
1826.651,481.06465,
1823.740,524.98665,
1820.830,516.66517,
1817.919,524.3444,
1815.009,534.34987,
1812.098,504.98033,
1809.188,553.08903,
1806.277,536.94264,
1803.366,518.61645,
1800.456,526.76401,
1797.545,545.4576,
1794.635,514.46798,
1791.724,507.00486,
1788.813,518.11749,
1785.903,554.20943,
1782.992,507.10809,
1780.082,530.95581,
1777.171,496.49464,
1774.261,464.45476,
1771.350,468.43226,
1768.439,506.5,
1765.529,526.04913,
1762.618,559.64564,
1759.708,579.18487,
1756.797,575.66667,
1753.887,589.19388,
1750.976,580.37566,
1748.065,572.55991,
1745.155,576.94518,
1742.244,576.82427,
1739.334,563.80589,
1736.423,572.33736,
1733.512,547.21129,
1730.602,557.94051,
1727.691,577.01491,
1724.781,604.0973,
1721.870,616.13337,
1718.960,605.16652,
1716.049,620.11847,
1713.138,608.11008,
1710.228,597.66733,
1707.317,630.99828,
1704.407,613.04007,
1701.496,596.82678,
1698.586,621.37156,
1695.675,621.62858,
1692.764,630.0205,
1689.854,616.1496,
1686.943,658.01607,
1684.033,681.92877,
1681.122,652.02677,
1678.211,700.03365,
1675.301,661.62025,
1672.390,688.44916,
1669.480,671.90912,
1666.569,722.14451,
1663.659,695.6596,
1660.748,765.82779,
1657.837,781.80017,
1654.927,750.96858,
1652.016,770.64579,
1649.106,776.98962,
1646.195,796.16433,
1643.285,782.61393,
1640.374,788.48257,
1637.463,834.95036,
1634.553,860.56401,
1631.642,931.04397,
1628.732,889.93256,
1625.821,962.51832,
1622.911,990.34222,
1620.000,1040.8575,
1617.089,1129.709,
1614.179,1191.7515,
1611.268,1269.5629,
1608.358,1306.8144,
1605.447,1374.5005,
1602.536,1406.4566,
1599.626,1370.7828,
1596.715,1434.6625,
1593.805,1378.0024,
1590.894,1347.6026,
1587.984,1326.3121,
1585.073,1293.7214,
1582.162,1302.6931,
1579.252,1292.4072,
1576.341,1296.7096,
1573.431,1265.6067,
1570.520,1286.3107,
1567.610,1249.3032,
1564.699,1284.2521,
1561.788,1236.5992,
1558.878,1205.0862,
1555.967,1202.1787,
1553.057,1191.2932,
1550.146,1152.9292,
1547.235,1133.6807,
1544.325,1116.403,
1541.414,1100.3398,
1538.504,1106.207,
1535.593,1094.9973,
1532.683,1069.5279,
1529.772,1070.2624,
1526.861,1059.5789,
1523.951,1013.9639,
1521.040,994.29599,
1518.130,1009.1086,
1515.219,1020.6601,
1512.309,1009.3333,
1509.398,988.37441,
1506.487,1005.5319,
1503.577,970.67563,
1500.666,979.40272,
1497.756,992.1353,
1494.845,963.66009,
1491.934,967.42441,
1489.024,944.32458,
1486.113,970.38925,
1483.203,910.32826,
1480.292,895.71191,
1477.382,860.55358,
1474.471,877.82351,
1471.560,878.24334,
1468.650,862.5178,
1465.739,890.44598,
1462.829,877.27186,
1459.918,865.99733,
1457.008,861.29983,
1454.097,844.80274,
1451.186,863.7882,
1448.276,905.72423,
1445.365,908.31912,
1442.455,885.96639,
1439.544,893.32104,
1436.633,870.24776,
1433.723,876.50604,
1430.812,860.3574,
1427.902,834.87553,
1424.991,892.68904,
1422.081,851.37858,
1419.170,831.08285,
1416.259,808.24842,
1413.349,821.62579,
1410.438,781.31454,
1407.528,805.91818,
1404.617,814.64754,
1401.707,826.28744,
1398.796,851.69229,
1395.885,834.3502,
1392.975,807.52108,
1390.064,835.56993,
1387.154,872.52777,
1384.243,858.81022,
1381.332,856.05333,
1378.422,860.11356,
1375.511,852.61931,
1372.601,928.99034,
1369.690,882.35221,
1366.780,970.12829,
1363.869,935.20241,
1360.958,967.29795,
1358.048,1030.5054,
1355.137,1031.3699,
1352.227,1026.0556,
1349.316,1079.8834,
1346.406,1126.8786,
1343.495,1119.4617,
1340.584,1152.5,
1337.674,1151.7496,
1334.763,1146.3821,
1331.853,1169.5629,
1328.942,1214.9732,
1326.032,1178.9033,
1323.121,1208.0302,
1320.210,1246.805,
1317.300,1243.5637,
1314.389,1237.1251,
1311.479,1251.1116,
1308.568,1290.7985,
1305.657,1349.3335,
1302.747,1354.8876,
1299.836,1292.1193,
1296.926,1400.5165,
1294.015,1486.9329,
1291.105,1443.8313,
1288.194,1546.9278,
1285.283,1603.1401,
1282.373,1646.1405,
1279.462,1673.2841,
1276.552,1686.0748,
1273.641,1704.6474,
1270.731,1724.5,
1267.820,1723.8768,
1264.909,1720.6538,
1261.999,1714.1005,
1259.088,1703.1551,
1256.178,1662.2465,
1253.267,1658.5688,
1250.356,1638.5051,
1247.446,1592.1229,
1244.535,1540.2367,
1241.625,1474.7446,
1238.714,1421.8591,
1235.804,1417.5195,
1232.893,1367.1256,
1229.982,1363.9481,
1227.072,1347.6524,
1224.161,1313.7204,
1221.251,1284.4202,
1218.340,1288.1606,
1215.430,1252.6593,
1212.519,1225.7442,
1209.608,1238.7525,
1206.698,1244.968,
1203.787,1237.3844,
1200.877,1221.3358,
1197.966,1234.8232,
1195.055,1276.4559,
1192.145,1303.0349,
1189.234,1363.3498,
1186.324,1393.591,
1183.413,1394.5,
1180.503,1416.4216,
1177.592,1442.7724,
1174.681,1383.1918,
1171.771,1353.8503,
1168.860,1369.0328,
1165.950,1367.2748,
1163.039,1351.1351,
1160.129,1363.9652,
1157.218,1358.2706,
1154.307,1328.2244,
1151.397,1313.5427,
1148.486,1301.6642,
1145.576,1220.1212,
1142.665,1280.4993,
1139.754,1280.6182,
1136.844,1271.0964,
1133.933,1258.7024,
1131.023,1238.3371,
1128.112,1232.1415,
1125.202,1243.9445,
1122.291,1225.6226,
1119.380,1219.985,
1116.470,1269.4066,
1113.559,1244.57,
1110.649,1244.013,
1107.738,1253.8582,
1104.828,1244.3526,
1101.917,1226.2752,
1099.006,1233.6546,
1096.096,1248.9838,
1093.185,1256.8858,
1090.275,1252.6444,
1087.364,1213.7632,
1084.453,1242.0596,
1081.543,1279.2529,
1078.632,1284.3205,
1075.722,1284.294,
1072.811,1257.6862,
1069.901,1260.3059,
1066.990,1305.7666,
1064.079,1289.2794,
1061.169,1296.9351,
1058.258,1323.6637,
1055.348,1336.6181,
1052.437,1340.2396,
1049.527,1368.3923,
1046.616,1339.7209,
1043.705,1348.8322,
1040.795,1373.5707,
1037.884,1381.9598,
1034.974,1386.3209,
1032.063,1394.4925,
1029.153,1378.3961,
1026.242,1377.5312,
1023.331,1389.9992,
1020.421,1412.7159,
1017.510,1420.3794,
1014.600,1415.6936,
1011.689,1424.7535,
1008.778,1459.1805,
1005.868,1451.7239,
1002.957,1476.6742,
1000.047,1529.276,
997.136,1582.1522,
994.226,1613.6384,
991.315,1627.9802,
988.404,1635.1497,
985.494,1607.6918,
982.583,1616.2574,
979.673,1578.7227,
976.762,1562.1516,
973.852,1572.8763,
970.941,1586.7217,
968.030,1590.4654,
965.120,1635.2852,
962.209,1584.1327,
959.299,1589.665,
956.388,1595.5,
953.477,1595.911,
950.567,1601.9899,
947.656,1619.6168,
944.746,1635.7584,
941.835,1617.8743,
938.925,1620.0805,
936.014,1637.1573,
933.103,1633.9046,
930.193,1599.7046,
927.282,1584.2709,
924.372,1580.0428,
921.461,1555.1988,
918.551,1530.8148,
915.640,1502.0773,
912.729,1475.2797,
909.819,1469.6137,
906.908,1493.2016,
903.998,1493.7046,
901.087,1497.9555,
898.176,1519.5878,
895.266,1534.4694,
892.355,1525.4265,
889.445,1546.4082,
886.534,1595.7574,
883.624,1592.7162,
880.713,1585.9896,
877.802,1587.5843,
874.892,1584.33,
871.981,1550.6258,
869.071,1471.2616,
866.160,1485.0984,
863.250,1526.8554,
860.339,1551.3522,
857.428,1551.7088,
854.518,1569.5241,
851.607,1570.3561,
848.697,1508.5965,
845.786,1478.4241,
842.875,1487.336,
839.965,1514.1458,
837.054,1544.9094,
834.144,1581.3745,
831.233,1568.5014,
828.323,1538.7171,
825.412,1527.193,
822.501,1542.8191,
819.591,1527.9439,
816.680,1513.0769,
813.770,1486.3194,
810.859,1475.2074,
807.949,1480.1537,
805.038,1480.219,
802.127,1444.8245,
799.217,1432.5553,
796.306,1448.7974,
793.396,1456.4923,
790.485,1445.0788,
787.574,1443.5311,
784.664,1444.3512,
781.753,1458.5907,
778.843,1477.7521,
775.932,1478.7718,
773.022,1460.9954,
770.111,1515.7732,
767.200,1520.2613,
764.290,1486.4052,
761.379,1457.5613,
758.469,1451.7093,
755.558,1451.9894,
752.648,1434.8828,
749.737,1455.6532,
746.826,1468.5,
743.916,1446.9997,
741.005,1384.7138,
738.095,1324.6349,
735.184,1329.656,
732.274,1246.1492,
729.363,1229.0389,
726.452,1361.563,
723.542,1411.7454,
720.631,1390.7993,
717.721,1439.066,
714.810,1472.5057,
711.899,1457.8069,
708.989,1450.5446,
706.078,1456.1091,
703.168,1457.5,
700.257,1444.2977,
697.347,1426.3695,
694.436,1429.5436,
691.525,1431.1513,
688.615,1408.8592,
685.704,1407.5874,
682.794,1423.5,
679.883,1423.2117,
676.973,1416.8007,
674.062,1444.8518,
671.151,1432.1319,
668.241,1405.6977,
665.330,1441.084,
662.420,1432.298,
659.509,1434.9445,
656.598,1444.8567,
653.688,1456.1103,
650.777,1461.257,
647.867,1454.09,
644.956,1451.2617,
642.046,1425.6241,
639.135,1396.3691,
636.224,1418.4761,
633.314,1413.7125,
630.403,1436.7396,
627.493,1471.1674,
624.582,1493.6731,
621.672,1467.5373,
618.761,1472.5795,
615.850,1502.0494,
612.940,1534.4045,
610.029,1542.3206,
607.119,1475.202,
604.208,1491.9304,
601.297,1509.4763,
598.387,1512.3406,
595.476,1500.3913,
592.566,1509.8362,
589.655,1534.1762,
586.745,1516.1222,
583.834,1480.2329,
580.923,1493.3104,
578.013,1461.9211,
575.102,1470.1341,
572.192,1474.6397,
569.281,1458.8128,
566.371,1449.4213,
563.460,1472.4859,
560.549,1504.9148,
557.639,1529.8428,
554.728,1531.677,
551.818,1502.8053,
548.907,1523.3142,
545.996,1529.2251,
543.086,1516.5329,
540.175,1539.8923,
537.265,1531.3601,
534.354,1545.0592,
531.444,1552.1897,
528.533,1527.8728,
525.622,1561.2386,
522.712,1570.3203,
519.801,1574.1732,
516.891,1585.8557,
513.980,1622.2476,
511.070,1650.1522,
508.159,1666.2308,
505.248,1681.7634,
502.338,1710.4263,
499.427,1742.0714,
496.517,1763.5101,
493.606,1767.1067,
490.695,1755.8908,
487.785,1765.8981,
484.874,1787.5329,
481.964,1780.2278,
479.053,1761.1189,
476.143,1788.7655,
473.232,1757.4074,
470.321,1735.7416,
467.411,1715.6098,
464.500,1684.9933,
461.590,1743.9553,
458.679,1763.2515,
455.769,1757.3083,
452.858,1743.3972,
449.947,1780.8298,
447.037,1813.3772,
444.126,1827.2818,
441.216,1825.7489,
438.305,1838.7017,
435.395,1821.4865,
432.484,1823.5858,
429.573,1842.8075,
426.663,1852.6894,
423.752,1846.5258,
420.842,1711.0611,
417.931,1552.6381,
415.020,1549.6047,
412.110,1681.1904,
409.199,1744.1699,
406.289,1776.4726,
403.378,1828.3463,
400.468,1782.9867,
397.557,1753.5897,
394.646,1773.4375,
391.736,1865.1861,
388.825,1855.3811,
385.915,1849.839,
383.004,1853.782,
380.094,1871.9185,
377.183,1919.3245,
374.272,1950.4118,
371.362,1968.7376,
368.451,1977.3206,
365.541,1990.8303,
362.630,1977.5665,
359.719,1978.0024,
356.809,2012.1828,
353.898,2006.9412,
350.988,2007.6699,
348.077,2001.659,
345.167,1985.4516,
342.256,2043.723,
339.345,2036.5855,
336.435,2019.3863,
333.524,2028.7014,
330.614,2003.3661,
327.703,2008.3351,
324.793,2019.7266,
321.882,2017.4513,
318.971,1997.3784,
316.061,1993.9182,
313.150,2009.5095,
310.240,2048.0995,
307.329,2088.805,
304.418,2099.0286,
301.508,2074.383,
298.597,2006.2647,
295.687,2010.6586,
292.776,2046.7502,
289.866,2089.0988,
286.955,2082.4503,
284.044,2145.3824,
281.134,2212.8636,
278.223,2273.1225,
275.313,2332.0709,
272.402,2341.5955,
269.492,2334.7472,
266.581,2325.4459,
263.670,2338.6792,
260.760,2351.9029,
257.849,2379.2338,
254.939,2432.8072,
252.028,2436.3954,
249.117,2454.8594,
246.207,2471.7118,
243.296,2457.071,
240.386,2423.5034,
237.475,2389.5958,
234.565,2363.3052,
231.654,2368.4179,
228.743,2351.0882,
225.833,2317.3768,
222.922,2273.0288,
220.012,2305.8138,
217.101,2284.6035,
214.191,2248.4402,
211.280,2238.2557,
208.369,2190.4031,
205.459,2192.2535,
202.548,2230.0014,
199.638,2232.904,
196.727,2194.8935,
193.816,2201.4186,
190.906,2282.3222,
187.995,2277.2541,
185.085,2295.3599,
182.174,2303.984,
179.264,2254.1132,
176.353,2306.1701,
173.442,2319.647,
170.532,2282.7197,
167.621,2250.2758,
164.711,2194.1989,
161.800,2134.788,
158.890,2085.8465,
155.979,1917.115,
153.068,1798.5249,
150.158,1692.2826,
147.247,1432.3839,
144.337,1211.6693,
141.426,985.47533,
138.516,732.41273,
135.605,516.40933,
132.694,346.70367,
129.784,221.28429,
126.873,148.34104,
123.963,97.079511,
121.052,63.267637,
118.141,47.561793,
115.231,37.552015,
112.320,32.652728,
109.410,29.727382,
106.499,20.469364,
103.589,19.060254,
100.678,17.87027,
97.767,13.604644,
94.857,12.114022,
91.946,10.290667,
89.036,8.3871021,
86.125,7.6778968,
83.215,5.3763186,
80.304,4.2182981,
77.393,6.3428079,
74.483,10.43081,
71.572,10.325887,
68.662,6.5692675,
65.751,7.2757186,
62.840,6.536596,
59.930,4.9381414,
57.019,2.8228954,
54.109,4.8886434,
51.198,6.1983907,
48.288,5.4263883,
45.377,-3.7175266,
42.466,-0.080051889,
39.556,9.2336956,
36.645,1.5096033,
33.735,1.5769939,
30.824,2.8373391,
27.914,0.73381334,
25.003,-0.74527495,
22.092,0.11452279,
19.182,3.5686486,
16.271,5.667119,
13.361,49.910172,
10.450,128.36979,
7.539,238.0053,
4.629,261.85308,
1.718,184.37456,
-1.192,-54.048867,
-4.103,-57.762543,
-7.013,-28.035083,
-9.924,0.5,
