,PLEE25~1,
Wavenumbers [1/cm],Intensity,
3014.167,0.125,
3011.256,-1.5250322,
3008.346,56.764066,
3005.435,78.125,
3002.525,74.954978,
2999.614,68.837991,
2996.704,69.762114,
2993.793,85.496544,
2990.882,80.216645,
2987.972,92.180495,
2985.061,90.711191,
2982.151,76.005673,
2979.240,71.405399,
2976.329,92.384556,
2973.419,76.78636,
2970.508,81.658347,
2967.598,81.838253,
2964.687,86.154211,
2961.777,97.125,
2958.866,94.459323,
2955.955,103.74888,
2953.045,98.556755,
2950.134,78.635186,
2947.224,100.38481,
2944.313,94.00107,
2941.403,120.60128,
2938.492,90.710373,
2935.581,92.899242,
2932.671,107.68292,
2929.760,99.263465,
2926.850,101.125,
2923.939,103.20444,
2921.028,102.81321,
2918.118,101.5847,
2915.207,95.593311,
2912.297,92.129231,
2909.386,119.48997,
2906.476,104.31882,
2903.565,108.67464,
2900.654,94.854009,
2897.744,96.810695,
2894.833,80.37227,
2891.923,84.015997,
2889.012,59.125,
2886.102,39.79529,
2883.191,17.13444,
2880.280,-110.70279,
2877.370,-337.00244,
2874.459,-418.18919,
2871.549,-231.42588,
2868.638,-13.091587,
2865.727,28.448019,
2862.817,55.039436,
2859.906,83.01104,
2856.996,82.125,
2854.085,101.49058,
2851.175,92.552725,
2848.264,90.693666,
2845.353,103.23284,
2842.443,102.53475,
2839.532,111.97564,
2836.622,101.64193,
2833.711,111.17681,
2830.801,107.62868,
2827.890,103.1897,
2824.979,114.767,
2822.069,109.21598,
2819.158,115.60478,
2816.248,113.87211,
2813.337,117.69207,
2810.427,121.16908,
2807.516,128.54219,
2804.605,121.35096,
2801.695,123.86184,
2798.784,121.19892,
2795.874,114.7002,
2792.963,117.55372,
2790.052,130.12307,
2787.142,127.08542,
2784.231,123.22126,
2781.321,119.125,
2778.410,114.14531,
2775.500,113.25189,
2772.589,116.47133,
2769.678,121.44581,
2766.768,123.31335,
2763.857,124.91305,
2760.947,117.65337,
2758.036,130.59639,
2755.126,130.74466,
2752.215,131.2523,
2749.304,126.14659,
2746.394,118.30037,
2743.483,122.42503,
2740.573,137.41713,
2737.662,107.93268,
2734.751,134.82393,
2731.841,141.90888,
2728.930,134.47242,
2726.020,141.34954,
2723.109,133.37258,
2720.199,144.67509,
2717.288,130.49361,
2714.377,143.92894,
2711.467,138.56785,
2708.556,138.55026,
2705.646,138.8292,
2702.735,132.96263,
2699.825,141.03774,
2696.914,143.50591,
2694.003,142.61118,
2691.093,135.10695,
2688.182,144.63537,
2685.272,141.88602,
2682.361,140.70142,
2679.450,143.83282,
2676.540,140.28759,
2673.629,148.45684,
2670.719,149.125,
2667.808,142.46545,
2664.898,137.02091,
2661.987,146.42497,
2659.076,152.10775,
2656.166,157.22031,
2653.255,149.23215,
2650.345,162.47709,
2647.434,153.75318,
2644.524,146.84686,
2641.613,161.1822,
2638.702,156.21969,
2635.792,157.0931,
2632.881,151.73232,
2629.971,164.19224,
2627.060,160.95781,
2624.149,162.82813,
2621.239,159.37352,
2618.328,164.19248,
2615.418,149.76137,
2612.507,166.22776,
2609.597,176.29865,
2606.686,156.0467,
2603.775,171.00595,
2600.865,161.89288,
2597.954,171.69377,
2595.044,165.10729,
2592.133,170.95941,
2589.223,171.23342,
2586.312,166.97926,
2583.401,169.32937,
2580.491,175.11055,
2577.580,151.15141,
2574.670,169.06216,
2571.759,164.76627,
2568.848,168.64992,
2565.938,160.69639,
2563.027,171.24769,
2560.117,176.94742,
2557.206,172.41282,
2554.296,168.84125,
2551.385,174.05897,
2548.474,184.90307,
2545.564,164.01135,
2542.653,197.42031,
2539.743,176.72974,
2536.832,172.65584,
2533.922,199.85692,
2531.011,181.75012,
2528.100,173.32708,
2525.190,177.03074,
2522.279,182.0781,
2519.369,176.89884,
2516.458,181.57967,
2513.548,177.75249,
2510.637,184.37093,
2507.726,186.87593,
2504.816,182.99986,
2501.905,183.74817,
2498.995,204.06528,
2496.084,203.73824,
2493.173,195.17732,
2490.263,205.47305,
2487.352,210.70767,
2484.442,198.84663,
2481.531,198.9175,
2478.621,211.03498,
2475.710,207.14034,
2472.799,205.67212,
2469.889,203.36601,
2466.978,212.84664,
2464.068,204.50592,
2461.157,200.24245,
2458.247,213.81623,
2455.336,205.61618,
2452.425,206.14859,
2449.515,196.59694,
2446.604,216.29083,
2443.694,230.79934,
2440.783,208.88288,
2437.872,227.83328,
2434.962,221.17569,
2432.051,219.73603,
2429.141,217.97202,
2426.230,236.88637,
2423.320,222.75349,
2420.409,220.83023,
2417.498,217.50984,
2414.588,230.93484,
2411.677,232.05328,
2408.767,228.86024,
2405.856,225.125,
2402.946,225.80954,
2400.035,218.03344,
2397.124,243.75604,
2394.214,216.4762,
2391.303,219.94817,
2388.393,221.88546,
2385.482,211.56562,
2382.571,174.7447,
2379.661,193.125,
2376.750,216.27757,
2373.840,248.02806,
2370.929,244.21164,
2368.019,246.24506,
2365.108,253.14856,
2362.197,257.88942,
2359.287,243.96511,
2356.376,261.08626,
2353.466,247.30649,
2350.555,258.84024,
2347.645,262.61243,
2344.734,256.54896,
2341.823,263.00892,
2338.913,253.61158,
2336.002,269.94553,
2333.092,271.3665,
2330.181,250.28105,
2327.270,261.18991,
2324.360,257.31841,
2321.449,264.72708,
2318.539,275.80387,
2315.628,256.2429,
2312.718,283.27259,
2309.807,271.87645,
2306.896,286.1563,
2303.986,288.55348,
2301.075,287.84836,
2298.165,286.34599,
2295.254,290.9742,
2292.344,278.80545,
2289.433,287.41454,
2286.522,282.28566,
2283.612,297.09568,
2280.701,297.66312,
2277.791,274.72612,
2274.880,292.54894,
2271.969,295.84105,
2269.059,288.38659,
2266.148,304.33869,
2263.238,300.92809,
2260.327,310.88345,
2257.417,296.26,
2254.506,306.36148,
2251.595,307.69957,
2248.685,299.96925,
2245.774,300.82825,
2242.864,319.25467,
2239.953,317.48369,
2237.043,305.125,
2234.132,303.47306,
2231.221,312.07337,
2228.311,319.60438,
2225.400,317.32202,
2222.490,324.86769,
2219.579,325.73167,
2216.669,323.61308,
2213.758,344.38907,
2210.847,343.64642,
2207.937,320.02079,
2205.026,345.5699,
2202.116,338.63136,
2199.205,346.70053,
2196.294,337.811,
2193.384,344.80901,
2190.473,349.69894,
2187.563,357.10567,
2184.652,356.58908,
2181.742,374.05656,
2178.831,381.43634,
2175.920,400.03939,
2173.010,389.79904,
2170.099,396.39038,
2167.189,409.25416,
2164.278,428.73907,
2161.368,437.83932,
2158.457,451.52832,
2155.546,480.65482,
2152.636,490.21542,
2149.725,502.776,
2146.815,527.35751,
2143.904,530.62686,
2140.993,541.17783,
2138.083,558.93656,
2135.172,556.6124,
2132.262,568.13908,
2129.351,541.65239,
2126.441,571.7659,
2123.530,552.63114,
2120.619,511.46435,
2117.709,515.5775,
2114.798,481.07494,
2111.888,472.61252,
2108.977,451.78062,
2106.067,427.99096,
2103.156,424.125,
2100.245,435.10994,
2097.335,411.00458,
2094.424,413.71524,
2091.514,419.40452,
2088.603,404.37848,
2085.692,393.21425,
2082.782,403.26146,
2079.871,399.26736,
2076.961,409.28549,
2074.050,433.04015,
2071.140,396.46948,
2068.229,417.49219,
2065.318,416.187,
2062.408,416.69308,
2059.497,409.11904,
2056.587,403.57855,
2053.676,428.25674,
2050.766,406.43442,
2047.855,436.12823,
2044.944,402.52404,
2042.034,413.41991,
2039.123,434.68392,
2036.213,419.70276,
2033.302,423.36399,
2030.391,440.78575,
2027.481,453.56396,
2024.570,420.72593,
2021.660,449.87809,
2018.749,424.5049,
2015.839,436.27723,
2012.928,452.19379,
2010.017,457.50176,
2007.107,457.05585,
2004.196,457.54165,
2001.286,451.1038,
1998.375,450.51673,
1995.465,451.91161,
1992.554,468.7778,
1989.643,469.19413,
1986.733,467.23202,
1983.822,468.13756,
1980.912,457.11469,
1978.001,455.8022,
1975.090,491.71889,
1972.180,488.33246,
1969.269,481.55891,
1966.359,488.26023,
1963.448,481.16727,
1960.538,485.2401,
1957.627,504.95783,
1954.716,528.49301,
1951.806,523.77082,
1948.895,530.38622,
1945.985,493.78023,
1943.074,501.88149,
1940.164,499.32699,
1937.253,505.125,
1934.342,499.07367,
1931.432,504.09346,
1928.521,521.21654,
1925.611,524.68346,
1922.700,529.66505,
1919.790,521.65112,
1916.879,518.2645,
1913.968,542.09549,
1911.058,542.25713,
1908.147,547.04765,
1905.237,559.17642,
1902.326,527.96056,
1899.415,502.39449,
1896.505,456.76944,
1893.594,464.10985,
1890.684,520.45816,
1887.773,563.02972,
1884.863,562.73092,
1881.952,553.03252,
1879.041,558.93341,
1876.131,562.75376,
1873.220,532.61603,
1870.310,617.23695,
1867.399,540.48445,
1864.489,542.47549,
1861.578,551.125,
1858.667,558.60699,
1855.757,597.54147,
1852.846,588.67369,
1849.936,601.103,
1847.025,569.41696,
1844.114,590.79327,
1841.204,596.39773,
1838.293,584.12167,
1835.383,611.81048,
1832.472,602.87978,
1829.562,594.26224,
1826.651,596.33856,
1823.740,604.31659,
1820.830,584.20353,
1817.919,611.32881,
1815.009,592.58175,
1812.098,590.81791,
1809.188,604.25675,
1806.277,598.27992,
1803.366,584.35791,
1800.456,598.5097,
1797.545,603.46551,
1794.635,587.51201,
1791.724,590.95023,
1788.813,598.32911,
1785.903,594.71038,
1782.992,532.80903,
1780.082,477.58865,
1777.171,384.44886,
1774.261,358.25018,
1771.350,441.00678,
1768.439,568.66049,
1765.529,628.58434,
1762.618,668.78752,
1759.708,663.28788,
1756.797,640.05682,
1753.887,639.33054,
1750.976,652.38023,
1748.065,641.53514,
1745.155,627.29277,
1742.244,649.62405,
1739.334,662.80971,
1736.423,668.07079,
1733.512,659.21034,
1730.602,672.32939,
1727.691,679.66032,
1724.781,687.99077,
1721.870,709.4394,
1718.960,716.5917,
1716.049,735.58244,
1713.138,719.4601,
1710.228,723.08738,
1707.317,723.24043,
1704.407,724.92179,
1701.496,736.06357,
1698.586,747.28883,
1695.675,772.45342,
1692.764,743.8299,
1689.854,772.73919,
1686.943,770.2599,
1684.033,785.72762,
1681.122,748.77071,
1678.211,796.65865,
1675.301,813.07567,
1672.390,813.14294,
1669.480,819.25335,
1666.569,835.45509,
1663.659,861.76196,
1660.748,899.7008,
1657.837,878.54052,
1654.927,897.6873,
1652.016,920.51752,
1649.106,896.6391,
1646.195,917.36476,
1643.285,927.83138,
1640.374,956.87065,
1637.463,899.8544,
1634.553,994.18411,
1631.642,998.22272,
1628.732,1007.0894,
1625.821,1001.1963,
1622.911,1109.5108,
1620.000,1102.2258,
1617.089,1147.2096,
1614.179,1140.3506,
1611.268,1246.9983,
1608.358,1311.1751,
1605.447,1288.6677,
1602.536,1329.0599,
1599.626,1331.2051,
1596.715,1328.4022,
1593.805,1323.6533,
1590.894,1307.2729,
1587.984,1311.1876,
1585.073,1264.4793,
1582.162,1259.4645,
1579.252,1283.0374,
1576.341,1244.0665,
1573.431,1241.7399,
1570.520,1258.6482,
1567.610,1259.3995,
1564.699,1246.5245,
1561.788,1244.2377,
1558.878,1236.2491,
1555.967,1233.4463,
1553.057,1226.4699,
1550.146,1211.0632,
1547.235,1200.583,
1544.325,1183.4212,
1541.414,1159.1636,
1538.504,1146.0698,
1535.593,1147.0465,
1532.683,1160.2317,
1529.772,1142.3692,
1526.861,1117.6088,
1523.951,1124.2162,
1521.040,1101.523,
1518.130,1110.7988,
1515.219,1117.2053,
1512.309,1109.107,
1509.398,1110.8285,
1506.487,1105.2662,
1503.577,1144.2182,
1500.666,1107.2589,
1497.756,1130.5231,
1494.845,1110.8048,
1491.934,1103.2352,
1489.024,1136.9225,
1486.113,1102.8908,
1483.203,1097.4605,
1480.292,1109.8527,
1477.382,1131.523,
1474.471,1113.871,
1471.560,1081.001,
1468.650,1103.2389,
1465.739,1082.2576,
1462.829,1048.3982,
1459.918,1076.6944,
1457.008,1103.5711,
1454.097,1109.8303,
1451.186,1114.0554,
1448.276,1114.8251,
1445.365,1126.0523,
1442.455,1125.8843,
1439.544,1160.6382,
1436.633,1147.2223,
1433.723,1165.9732,
1430.812,1228.0511,
1427.902,1225.6142,
1424.991,1162.1141,
1422.081,1159.2075,
1419.170,1203.1921,
1416.259,1204.4546,
1413.349,1212.1879,
1410.438,1231.2199,
1407.528,1218.169,
1404.617,1218.2804,
1401.707,1238.8436,
1398.796,1244.4607,
1395.885,1226.1367,
1392.975,1203.1039,
1390.064,1208.0177,
1387.154,1249.6299,
1384.243,1262.677,
1381.332,1256.4025,
1378.422,1150.6174,
1375.511,1237.738,
1372.601,1289.8114,
1369.690,1278.695,
1366.780,1329.9834,
1363.869,1307.0747,
1360.958,1308.9702,
1358.048,1345.604,
1355.137,1388.7808,
1352.227,1388.6216,
1349.316,1353.7931,
1346.406,1341.9988,
1343.495,1354.1041,
1340.584,1372.8392,
1337.674,1376.0178,
1334.763,1374.8074,
1331.853,1366.4624,
1328.942,1363.4566,
1326.032,1390.0405,
1323.121,1330.9201,
1320.210,1334.0959,
1317.300,1296.9553,
1314.389,1295.5284,
1311.479,1341.9793,
1308.568,1352.1452,
1305.657,1328.8201,
1302.747,1312.9557,
1299.836,1326.582,
1296.926,1343.9114,
1294.015,1339.3147,
1291.105,1362.0191,
1288.194,1388.2885,
1285.283,1409.8771,
1282.373,1431.9453,
1279.462,1455.9482,
1276.552,1452.3297,
1273.641,1434.8842,
1270.731,1419.6593,
1267.820,1375.1393,
1264.909,1359.2682,
1261.999,1382.8906,
1259.088,1403.8694,
1256.178,1443.6655,
1253.267,1437.8499,
1250.356,1411.0984,
1247.446,1371.3754,
1244.535,1348.6473,
1241.625,1332.8028,
1238.714,1312.5023,
1235.804,1299.5474,
1232.893,1256.1281,
1229.982,1241.7877,
1227.072,1231.8293,
1224.161,1214.3149,
1221.251,1191.7678,
1218.340,1190.3075,
1215.430,1160.6434,
1212.519,1135.4833,
1209.608,1127.5569,
1206.698,1115.7422,
1203.787,1125.738,
1200.877,1094.4125,
1197.966,1147.4629,
1195.055,1161.2172,
1192.145,1220.2271,
1189.234,1224.8516,
1186.324,1244.9459,
1183.413,1260.6174,
1180.503,1246.4034,
1177.592,1230.1552,
1174.681,1206.1113,
1171.771,1198.6305,
1168.860,1177.1963,
1165.950,1164.6432,
1163.039,1156.5378,
1160.129,1164.7424,
1157.218,1150.9726,
1154.307,1145.9342,
1151.397,1162.8304,
1148.486,1122.4276,
1145.576,1106.9708,
1142.665,1103.4192,
1139.754,1127.5339,
1136.844,1093.908,
1133.933,1097.6527,
1131.023,1099.8505,
1128.112,1075.7694,
1125.202,1063.8883,
1122.291,1086.629,
1119.380,1096.9778,
1116.470,1081.9748,
1113.559,1082.4447,
1110.649,1102.1155,
1107.738,1105.1594,
1104.828,1103.7021,
1101.917,1104.7993,
1099.006,1094.5785,
1096.096,1104.5124,
1093.185,1078.1723,
1090.275,1069.6508,
1087.364,1078.4168,
1084.453,1081.4376,
1081.543,1081.4397,
1078.632,1086.2589,
1075.722,1091.9966,
1072.811,1089.0486,
1069.901,1116.1197,
1066.990,1087.4084,
1064.079,1088.9717,
1061.169,1090.9158,
1058.258,1098.4417,
1055.348,1119.3558,
1052.437,1136.5012,
1049.527,1122.6215,
1046.616,1109.5891,
1043.705,1144.351,
1040.795,1135.3314,
1037.884,1116.5389,
1034.974,1125.884,
1032.063,1148.6406,
1029.153,1132.0598,
1026.242,1139.8444,
1023.331,1140.9583,
1020.421,1145.3076,
1017.510,1162.2524,
1014.600,1181.7377,
1011.689,1183.0028,
1008.778,1150.1554,
1005.868,1092.0787,
1002.957,1086.9165,
1000.047,1118.885,
997.136,1222.1605,
994.226,1297.2787,
991.315,1308.6894,
988.404,1302.4765,
985.494,1298.3194,
982.583,1262.3441,
979.673,1233.7123,
976.762,1242.151,
973.852,1254.567,
970.941,1251.5684,
968.030,1249.5875,
965.120,1285.989,
962.209,1253.5924,
959.299,1245.292,
956.388,1251.4045,
953.477,1251.7816,
950.567,1255.8891,
947.656,1287.7881,
944.746,1277.5934,
941.835,1280.3643,
938.925,1295.6021,
936.014,1288.456,
933.103,1283.6585,
930.193,1294.7328,
927.282,1268.8042,
924.372,1262.885,
921.461,1244.4514,
918.551,1243.3534,
915.640,1238.2012,
912.729,1224.7832,
909.819,1220.7914,
906.908,1218.2641,
903.998,1233.2369,
901.087,1225.6679,
898.176,1243.9391,
895.266,1263.8248,
892.355,1249.3815,
889.445,1256.0956,
886.534,1297.0337,
883.624,1284.2672,
880.713,1273.6146,
877.802,1260.6189,
874.892,1201.0911,
871.981,1037.7515,
869.071,894.89591,
866.160,939.81093,
863.250,1075.4414,
860.339,1195.5412,
857.428,1241.5076,
854.518,1242.1621,
851.607,1208.8794,
848.697,1088.2595,
845.786,1006.5439,
842.875,1024.5663,
839.965,1134.451,
837.054,1250.1157,
834.144,1249.2869,
831.233,1277.7896,
828.323,1300.0381,
825.412,1308.7689,
822.501,1309.8271,
819.591,1308.1743,
816.680,1290.4968,
813.770,1263.5709,
810.859,1237.4903,
807.949,1222.6762,
805.038,1228.3064,
802.127,1262.8778,
799.217,1256.4349,
796.306,1253.6926,
793.396,1257.6289,
790.485,1267.7578,
787.574,1284.5334,
784.664,1268.9513,
781.753,1254.7183,
778.843,1248.6349,
775.932,1252.4459,
773.022,1263.7734,
770.111,1274.4019,
767.200,1272.8411,
764.290,1254.7887,
761.379,1251.9717,
758.469,1264.4045,
755.558,1253.8089,
752.648,1243.2191,
749.737,1245.0417,
746.826,1248.5237,
743.916,1254.5926,
741.005,1262.1817,
738.095,1227.271,
735.184,1177.3612,
732.274,1116.0014,
729.363,1093.2641,
726.452,1141.9354,
723.542,1235.0157,
720.631,1260.7676,
717.721,1283.7375,
714.810,1291.1762,
711.899,1279.3626,
708.989,1263.2241,
706.078,1279.9524,
703.168,1286.5539,
700.257,1288.125,
697.347,1287.4729,
694.436,1285.4742,
691.525,1298.335,
688.615,1263.3903,
685.704,1259.6878,
682.794,1286.9335,
679.883,1295.332,
676.973,1277.7019,
674.062,1282.4201,
671.151,1279.2351,
668.241,1266.266,
665.330,1257.1628,
662.420,1257.9615,
659.509,1306.3798,
656.598,1325.47,
653.688,1308.3739,
650.777,1288.4769,
647.867,1269.3651,
644.956,1223.6419,
642.046,1187.76,
639.135,1169.9809,
636.224,1158.4154,
633.314,1216.373,
630.403,1268.9625,
627.493,1296.2772,
624.582,1305.0113,
621.672,1335.8991,
618.761,1308.2473,
615.850,1304.0839,
612.940,1312.9065,
610.029,1323.5717,
607.119,1332.2577,
604.208,1350.1653,
601.297,1372.579,
598.387,1378.3795,
595.476,1355.9077,
592.566,1374.7973,
589.655,1367.1109,
586.745,1362.8609,
583.834,1350.852,
580.923,1300.1771,
578.013,1308.8092,
575.102,1301.9476,
572.192,1305.8435,
569.281,1329.6242,
566.371,1354.6682,
563.460,1350.7758,
560.549,1346.1759,
557.639,1357.8217,
554.728,1392.218,
551.818,1346.1793,
548.907,1372.6898,
545.996,1377.8519,
543.086,1349.7961,
540.175,1352.9106,
537.265,1371.9563,
534.354,1371.5996,
531.444,1367.4689,
528.533,1376.4561,
525.622,1381.1118,
522.712,1402.1479,
519.801,1400.9954,
516.891,1383.1332,
513.980,1407.9106,
511.070,1442.525,
508.159,1462.3334,
505.248,1466.1207,
502.338,1458.4353,
499.427,1503.2016,
496.517,1517.3876,
493.606,1519.798,
490.695,1523.2647,
487.785,1538.6605,
484.874,1537.2477,
481.964,1536.7861,
479.053,1535.6317,
476.143,1521.0404,
473.232,1469.0473,
470.321,1505.5679,
467.411,1548.6631,
464.500,1501.0171,
461.590,1536.2411,
458.679,1546.125,
455.769,1555.2619,
452.858,1572.2617,
449.947,1544.7602,
447.037,1508.787,
444.126,1512.7856,
441.216,1557.2259,
438.305,1580.8458,
435.395,1574.9461,
432.484,1569.2915,
429.573,1561.7349,
426.663,1534.3699,
423.752,1295.6999,
420.842,1020.9544,
417.931,809.01453,
415.020,783.98871,
412.110,1123.3251,
409.199,1360.1053,
406.289,1466.7939,
403.378,1434.9918,
400.468,1395.6801,
397.557,1391.3514,
394.646,1440.8736,
391.736,1554.7769,
388.825,1575.1412,
385.915,1594.962,
383.004,1604.8407,
380.094,1600.699,
377.183,1631.5505,
374.272,1652.0662,
371.362,1669.1889,
368.451,1685.8515,
365.541,1681.3482,
362.630,1695.966,
359.719,1705.8694,
356.809,1699.1671,
353.898,1716.3895,
350.988,1713.5302,
348.077,1702.1881,
345.167,1687.7788,
342.256,1641.4606,
339.345,1673.8282,
336.435,1705.242,
333.524,1683.2994,
330.614,1720.5572,
327.703,1729.558,
324.793,1721.4536,
321.882,1705.0475,
318.971,1673.0794,
316.061,1672.8679,
313.150,1685.9726,
310.240,1691.9095,
307.329,1740.0057,
304.418,1731.3119,
301.508,1708.365,
298.597,1746.8667,
295.687,1770.4422,
292.776,1779.2917,
289.866,1782.64,
286.955,1804.0631,
284.044,1870.3749,
281.134,1905.6438,
278.223,1906.3584,
275.313,1928.4641,
272.402,1969.141,
269.492,1955.2015,
266.581,1870.2811,
263.670,1886.4551,
260.760,1861.8715,
257.849,1887.4769,
254.939,2037.189,
252.028,2020.305,
249.117,2020.8911,
246.207,2048.8767,
243.296,2121.3483,
240.386,2121.2891,
237.475,2120.5827,
234.565,2126.3551,
231.654,2127.8158,
228.743,2124.0974,
225.833,2134.2355,
222.922,2164.3968,
220.012,2170.2252,
217.101,2145.1356,
214.191,2132.8613,
211.280,2185.2387,
208.369,2181.0512,
205.459,2175.528,
202.548,2176.5094,
199.638,2196.1019,
196.727,2224.9023,
193.816,2247.0383,
190.906,2256.6583,
187.995,2271.8628,
185.085,2265.3036,
182.174,2247.6197,
179.264,2230.9961,
176.353,2277.8242,
173.442,2286.9971,
170.532,2252.6888,
167.621,2231.7805,
164.711,2138.8808,
161.800,2015.1501,
158.890,1883.4399,
155.979,1785.3736,
153.068,1630.9223,
150.158,1438.619,
147.247,1282.8234,
144.337,1098.12,
141.426,883.19976,
138.516,633.00472,
135.605,443.93615,
132.694,294.22879,
129.784,181.46677,
126.873,111.38404,
123.963,81.760106,
121.052,61.059745,
118.141,38.214881,
115.231,33.861578,
112.320,27.888641,
109.410,20.352382,
106.499,11.094364,
103.589,10.805763,
100.678,12.125,
97.767,12.125,
94.857,11.432011,
91.946,6.2876695,
89.036,0.36687698,
86.125,8.168135,
83.215,5.8776372,
80.304,1.8855673,
77.393,1.1773974,
74.483,7.6763496,
71.572,11.487352,
68.662,11.155255,
65.751,1.2649399,
62.840,4.3871258,
59.930,11.125,
57.019,11.125,
54.109,0.37610474,
51.198,-3.2556887,
48.288,5.1646371,
45.377,10.088284,
42.466,10.476123,
39.556,7.6645257,
36.645,4.8557648,
33.735,1.0095092,
30.824,-2.3167739,
27.914,-3.7191244,
25.003,-0.76181262,
22.092,4.031141,
19.182,10.651306,
16.271,26.739579,
13.361,130.06033,
10.450,322.13817,
7.539,665.01102,
4.629,808.85545,
1.718,758.5619,
-1.192,427.41824,
-4.103,164.54098,
-7.013,15.132485,
-9.924,-0.875,
