,PL3E71~1,
Wavenumbers [1/cm],Intensity,
3014.167,-1.375,
3011.256,0.17501074,
3008.346,146.16735,
3005.435,166.1621,
3002.525,166.75755,
2999.614,162.37827,
2996.704,181.03222,
2993.793,190.36809,
2990.882,191.10594,
2987.972,190.69058,
2985.061,198.3048,
2982.151,198.67038,
2979.240,199.10693,
2976.329,208.12773,
2973.419,219.73257,
2970.508,221.54168,
2967.598,219.48524,
2964.687,238.05774,
2961.777,239.625,
2958.866,244.29068,
2955.955,260.04312,
2953.045,271.79054,
2950.134,263.01858,
2947.224,270.51112,
2944.313,274.71474,
2941.403,291.57755,
2938.492,262.51933,
2935.581,276.10353,
2932.671,282.14431,
2929.760,284.50578,
2926.850,284.88628,
2923.939,284.46613,
2921.028,278.31321,
2918.118,295.00409,
2915.207,294.68838,
2912.297,292.65462,
2909.386,305.6177,
2906.476,298.59411,
2903.565,302.1576,
2900.654,291.73118,
2897.744,300.1724,
2894.833,280.29481,
2891.923,312.3558,
2889.012,280.42269,
2886.102,271.49796,
2883.191,272.63066,
2880.280,215.19914,
2877.370,95.06128,
2874.459,13.725858,
2871.549,122.91535,
2868.638,254.95071,
2865.727,283.49804,
2862.817,289.15308,
2859.906,302.38567,
2856.996,330.13179,
2854.085,318.94221,
2851.175,320.83886,
2848.264,325.04666,
2845.353,334.15053,
2842.443,323.8055,
2839.532,332.86385,
2836.622,322.625,
2833.711,320.52139,
2830.801,324.91985,
2827.890,328.60578,
2824.979,342.40296,
2822.069,351.68186,
2819.158,350.92419,
2816.248,346.10763,
2813.337,341.96524,
2810.427,351.79442,
2807.516,361.30844,
2804.605,351.53845,
2801.695,350.33556,
2798.784,359.77285,
2795.874,344.46931,
2792.963,366.91096,
2790.052,351.6295,
2787.142,354.58542,
2784.231,340.07687,
2781.321,356.36779,
2778.410,339.69987,
2775.500,333.43466,
2772.589,353.35665,
2769.678,368.48165,
2766.768,367.37839,
2763.857,353.83695,
2760.947,357.07141,
2758.036,379.96914,
2755.126,364.57586,
2752.215,377.66602,
2749.304,375.15739,
2746.394,368.10684,
2743.483,380.77497,
2740.573,386.625,
2737.662,376.19896,
2734.751,388.06676,
2731.841,384.05723,
2728.930,391.87071,
2726.020,391.28299,
2723.109,381.07867,
2720.199,393.91872,
2717.288,392.64324,
2714.377,400.6873,
2711.467,406.65796,
2708.556,402.27384,
2705.646,405.625,
2702.735,411.45232,
2699.825,408.07046,
2696.914,415.48228,
2694.003,410.95509,
2691.093,395.60695,
2688.182,404.37167,
2685.272,411.97919,
2682.361,425.26037,
2679.450,416.67029,
2676.540,408.05181,
2673.629,421.32459,
2670.719,408.55199,
2667.808,408.67364,
2664.898,433.40418,
2661.987,428.82487,
2659.076,427.11638,
2656.166,433.75483,
2653.255,441.21854,
2650.345,444.1132,
2647.434,454.11057,
2644.524,450.55546,
2641.613,445.39621,
2638.702,451.46719,
2635.792,432.34384,
2632.881,448.94614,
2629.971,462.49749,
2627.060,469.2925,
2624.149,469.05624,
2621.239,465.35277,
2618.328,454.75216,
2615.418,458.28864,
2612.507,462.72776,
2609.597,468.25773,
2606.686,463.40412,
2603.775,470.94643,
2600.865,475.625,
2597.954,492.48126,
2595.044,491.93767,
2592.133,488.67588,
2589.223,497.89028,
2586.312,496.33352,
2583.401,500.58484,
2580.491,491.9952,
2577.580,471.68606,
2574.670,504.1972,
2571.759,490.42295,
2568.848,505.08917,
2565.938,490.76778,
2563.027,510.04086,
2560.117,503.65299,
2557.206,504.28182,
2554.296,500.40074,
2551.385,519.50101,
2548.474,544.5514,
2545.564,519.7646,
2542.653,524.08809,
2539.743,523.15581,
2536.832,537.99323,
2533.922,549.57769,
2531.011,539.75058,
2528.100,528.02223,
2525.190,532.83443,
2522.279,540.85949,
2519.369,535.36147,
2516.458,534.41891,
2513.548,557.47948,
2510.637,565.50203,
2507.726,560.50232,
2504.816,545.74901,
2501.905,550.17561,
2498.995,572.26669,
2496.084,567.23824,
2493.173,562.54586,
2490.263,546.45662,
2487.352,552.41793,
2484.442,572.04898,
2481.531,567.72614,
2478.621,579.81938,
2475.710,583.54832,
2472.799,579.79085,
2469.889,582.62774,
2466.978,578.61457,
2464.068,581.70965,
2461.157,587.12256,
2458.247,591.12517,
2455.336,600.73262,
2452.425,601.86557,
2449.515,604.85162,
2446.604,611.86234,
2443.694,615.02058,
2440.783,602.62162,
2437.872,625.15096,
2434.962,619.19181,
2432.051,638.60033,
2429.141,647.45431,
2426.230,654.36424,
2423.320,628.76745,
2420.409,644.11221,
2417.498,639.23174,
2414.588,644.98238,
2411.677,660.72854,
2408.767,636.625,
2405.856,638.50118,
2402.946,661.16119,
2400.035,667.92781,
2397.124,681.15443,
2394.214,660.6518,
2391.303,662.37635,
2388.393,664.13197,
2385.482,673.18438,
2382.571,647.625,
2379.661,652.46212,
2376.750,661.20381,
2373.840,682.01866,
2370.929,675.75496,
2368.019,694.3122,
2365.108,683.04385,
2362.197,698.54289,
2359.287,701.04505,
2356.376,707.60915,
2353.466,707.625,
2350.555,707.625,
2347.645,708.8091,
2344.734,721.4453,
2341.823,724.625,
2338.913,733.18467,
2336.002,728.19903,
2333.092,757.44104,
2330.181,756.60711,
2327.270,750.90003,
2324.360,743.77592,
2321.449,756.33248,
2318.539,757.19993,
2315.628,768.99431,
2312.718,769.97522,
2309.807,755.48837,
2306.896,755.89261,
2303.986,759.14445,
2301.075,764.49731,
2298.165,765.03836,
2295.254,767.53883,
2292.344,759.08961,
2289.433,787.24272,
2286.522,787.45972,
2283.612,808.59568,
2280.701,810.02859,
2277.791,794.66507,
2274.880,797.97896,
2271.969,820.1641,
2269.059,828.77757,
2266.148,840.51148,
2263.238,826.13467,
2260.327,842.55576,
2257.417,819.84389,
2254.506,837.02956,
2251.595,843.33406,
2248.685,842.46925,
2245.774,850.53692,
2242.864,853.58761,
2239.953,839.08016,
2237.043,839.45607,
2234.132,853.04311,
2231.221,867.75679,
2228.311,862.53609,
2225.400,850.52565,
2222.490,883.29605,
2219.579,890.9669,
2216.669,898.59161,
2213.758,918.67077,
2210.847,906.27994,
2207.937,909.29926,
2205.026,931.40431,
2202.116,900.89992,
2199.205,921.48829,
2196.294,919.67496,
2193.384,956.91354,
2190.473,953.03932,
2187.563,954.741,
2184.652,979.22745,
2181.742,986.46639,
2178.831,1009.2554,
2175.920,1033.6195,
2173.010,1057.4765,
2170.099,1077.6235,
2167.189,1111.8618,
2164.278,1147.9999,
2161.368,1183.0517,
2158.457,1234.3338,
2155.546,1275.1693,
2152.636,1321.4973,
2149.725,1358.5914,
2146.815,1421.6229,
2143.904,1448.8443,
2140.993,1491.9002,
2138.083,1494.5793,
2135.172,1518.6418,
2132.262,1522.8838,
2129.351,1525.1146,
2126.441,1487.5181,
2123.530,1460.2097,
2120.619,1421.2856,
2117.709,1398.187,
2114.798,1349.7632,
2111.888,1292.6883,
2108.977,1240.6581,
2106.067,1178.1558,
2103.156,1156.7065,
2100.245,1124.6325,
2097.335,1133.0124,
2094.424,1100.6413,
2091.514,1080.9099,
2088.603,1079.1503,
2085.692,1069.7589,
2082.782,1084.1229,
2079.871,1085.2318,
2076.961,1083.625,
2074.050,1063.7402,
2071.140,1083.6941,
2068.229,1073.8971,
2065.318,1075.7733,
2062.408,1073.1931,
2059.497,1074.0357,
2056.587,1062.7299,
2053.676,1087.6564,
2050.766,1069.7035,
2047.855,1083.0237,
2044.944,1093.5657,
2042.034,1073.151,
2039.123,1077.0661,
2036.213,1086.7406,
2033.302,1094.3205,
2030.391,1102.9131,
2027.481,1111.064,
2024.570,1094.2398,
2021.660,1146.1364,
2018.749,1114.701,
2015.839,1117.4321,
2012.928,1125.6133,
2010.017,1126.8595,
2007.107,1134.5839,
2004.196,1134.2796,
2001.286,1131.0454,
1998.375,1139.7953,
1995.465,1145.6375,
1992.554,1158.2661,
1989.643,1145.1435,
1986.733,1156.3039,
1983.822,1155.5622,
1980.912,1179.476,
1978.001,1157.9979,
1975.090,1159.8128,
1972.180,1162.2114,
1969.269,1163.0216,
1966.359,1145.5166,
1963.448,1151.4269,
1960.538,1172.2322,
1957.627,1205.0492,
1954.716,1229.0217,
1951.806,1196.4134,
1948.895,1225.9064,
1945.985,1190.357,
1943.074,1181.8316,
1940.164,1202.9425,
1937.253,1210.4339,
1934.342,1198.1464,
1931.432,1226.0256,
1928.521,1233.5853,
1925.611,1228.3458,
1922.700,1217.5449,
1919.790,1193.0935,
1916.879,1227.7653,
1913.968,1228.6275,
1911.058,1230.4178,
1908.147,1242.9535,
1905.237,1243.2867,
1902.326,1206.7243,
1899.415,1208.1384,
1896.505,1219.0104,
1893.594,1221.5244,
1890.684,1233.3963,
1887.773,1247.4176,
1884.863,1267.7275,
1881.952,1243.4228,
1879.041,1245.9983,
1876.131,1265.2838,
1873.220,1245.9612,
1870.310,1292.7505,
1867.399,1241.5206,
1864.489,1244.4428,
1861.578,1265.092,
1858.667,1274.7597,
1855.757,1297.2515,
1852.846,1267.8763,
1849.936,1267.7181,
1847.025,1277.6201,
1844.114,1314.1098,
1841.204,1315.3278,
1838.293,1286.6317,
1835.383,1305.578,
1832.472,1328.1833,
1829.562,1347.8727,
1826.651,1340.5306,
1823.740,1353.7362,
1820.830,1356.995,
1817.919,1383.3138,
1815.009,1371.6441,
1812.098,1348.877,
1809.188,1375.7025,
1806.277,1371.7578,
1803.366,1302.6398,
1800.456,1364.3287,
1797.545,1391.5045,
1794.635,1367.529,
1791.724,1348.2755,
1788.813,1357.0255,
1785.903,1372.6947,
1782.992,1397.7009,
1780.082,1330.0808,
1777.171,1280.6116,
1774.261,1230.26,
1771.350,1282.6555,
1768.439,1386.6069,
1765.529,1430.8093,
1762.618,1451.4563,
1759.708,1446.4075,
1756.797,1474.2765,
1753.887,1485.1877,
1750.976,1469.8043,
1748.065,1468.7817,
1745.155,1482.3152,
1742.244,1494.5978,
1739.334,1513.7426,
1736.423,1504.668,
1733.512,1516.5438,
1730.602,1526.6171,
1727.691,1542.9782,
1724.781,1547.625,
1721.870,1575.7918,
1718.960,1557.958,
1716.049,1574.4383,
1713.138,1587.175,
1710.228,1608.6418,
1707.317,1645.2387,
1704.407,1658.609,
1701.496,1620.4284,
1698.586,1644.3445,
1695.675,1672.8248,
1692.764,1679.3586,
1689.854,1707.3691,
1686.943,1690.2658,
1684.033,1719.8551,
1681.122,1728.4891,
1678.211,1727.6345,
1675.301,1754.5417,
1672.390,1821.6609,
1669.480,1833.7132,
1666.569,1845.0186,
1663.659,1876.6866,
1660.748,1940.9528,
1657.837,1958.2811,
1654.927,1988.6793,
1652.016,2033.4512,
1649.106,2065.4989,
1646.195,2021.8718,
1643.285,2073.377,
1640.374,2104.3079,
1637.463,2044.5165,
1634.553,2147.093,
1631.642,2113.4491,
1628.732,2279.7791,
1625.821,2305.7179,
1622.911,2446.8248,
1620.000,2514.7683,
1617.089,2661.6598,
1614.179,2749.1715,
1611.268,2949.0035,
1608.358,3060.5213,
1605.447,3113.7111,
1602.536,3225.6558,
1599.626,3243.7443,
1596.715,3194.7069,
1593.805,3205.723,
1590.894,3142.4554,
1587.984,3116.3032,
1585.073,3064.2776,
1582.162,3048.9459,
1579.252,3045.9884,
1576.341,3000.7655,
1573.431,2988.8418,
1570.520,2945.8199,
1567.610,2943.0565,
1564.699,2923.424,
1561.788,2861.8086,
1558.878,2819.8249,
1555.967,2790.8051,
1553.057,2803.5903,
1550.146,2760.087,
1547.235,2739.9735,
1544.325,2714.431,
1541.414,2682.8446,
1538.504,2641.6036,
1535.593,2627.5361,
1532.683,2619.8456,
1529.772,2564.2191,
1526.861,2540.2343,
1523.951,2526.9707,
1521.040,2489.3202,
1518.130,2475.7263,
1515.219,2502.8643,
1512.309,2536.0394,
1509.398,2555.3875,
1506.487,2511.846,
1503.577,2467.478,
1500.666,2463.8269,
1497.756,2437.4296,
1494.845,2387.1453,
1491.934,2399.7321,
1489.024,2432.4568,
1486.113,2352.9572,
1483.203,2391.0334,
1480.292,2388.1399,
1477.382,2406.8312,
1474.471,2374.0234,
1471.560,2369.156,
1468.650,2380.5076,
1465.739,2353.8815,
1462.829,2325.2855,
1459.918,2316.52,
1457.008,2318.6712,
1454.097,2336.8762,
1451.186,2349.2188,
1448.276,2356.3838,
1445.365,2375.5168,
1442.455,2388.5904,
1439.544,2440.3506,
1436.633,2393.0341,
1433.723,2449.2572,
1430.812,2427.8226,
1427.902,2367.6025,
1424.991,2366.6547,
1422.081,2302.4016,
1419.170,2383.031,
1416.259,2395.0049,
1413.349,2393.1145,
1410.438,2419.2166,
1407.528,2418.3939,
1404.617,2439.22,
1401.707,2473.9933,
1398.796,2500.3697,
1395.885,2481.9672,
1392.975,2452.6257,
1390.064,2485.9795,
1387.154,2509.3832,
1384.243,2563.3139,
1381.332,2536.2064,
1378.422,2489.1174,
1375.511,2576.238,
1372.601,2623.7035,
1369.690,2607.9089,
1366.780,2698.8772,
1363.869,2734.5222,
1360.958,2764.3734,
1358.048,2814.4103,
1355.137,2852.2414,
1352.227,2874.1479,
1349.316,2899.8452,
1346.406,2933.0782,
1343.495,2968.5937,
1340.584,2991.8753,
1337.674,2978.6986,
1334.763,3011.5664,
1331.853,2983.7495,
1328.942,3057.34,
1326.032,3051.9438,
1323.121,3012.3177,
1320.210,3018.9367,
1317.300,3020.952,
1314.389,3038.2366,
1311.479,3086.7122,
1308.568,3119.1107,
1305.657,3115.7488,
1302.747,3127.117,
1299.836,3171.5588,
1296.926,3252.7869,
1294.015,3320.8169,
1291.105,3370.2937,
1288.194,3402.9835,
1285.283,3491.9654,
1282.373,3558.7967,
1279.462,3605.5264,
1276.552,3622.0502,
1273.641,3641.0586,
1270.731,3653.516,
1267.820,3598.9977,
1264.909,3651.4595,
1261.999,3607.8899,
1259.088,3642.5505,
1256.178,3629.2088,
1253.267,3582.8949,
1250.356,3515.4447,
1247.446,3447.3806,
1244.535,3385.4153,
1241.625,3306.1992,
1238.714,3247.5886,
1235.804,3252.3678,
1232.893,3183.1366,
1229.982,3129.3984,
1227.072,3093.186,
1224.161,3099.8705,
1221.251,3026.4296,
1218.340,2985.7253,
1215.430,2936.8854,
1212.519,2896.8336,
1209.608,2880.12,
1206.698,2868.7102,
1203.787,2880.1577,
1200.877,2880.9125,
1197.966,2933.9629,
1195.055,2960.516,
1192.145,3035.2513,
1189.234,3114.4211,
1186.324,3180.6285,
1183.413,3199.1428,
1180.503,3163.0406,
1177.592,3125.5039,
1174.681,3133.8956,
1171.771,3080.2335,
1168.860,3063.2648,
1165.950,3017.2791,
1163.039,2963.324,
1160.129,2958.7815,
1157.218,2948.4341,
1154.307,2937.3847,
1151.397,2951.9755,
1148.486,2935.9304,
1145.576,2901.3121,
1142.665,2848.0374,
1139.754,2859.8976,
1136.844,2833.512,
1133.933,2801.8568,
1131.023,2814.5903,
1128.112,2822.1995,
1125.202,2794.7361,
1122.291,2828.9983,
1119.380,2824.625,
1116.470,2824.625,
1113.559,2846.276,
1110.649,2842.1475,
1107.738,2859.6652,
1104.828,2871.303,
1101.917,2857.8498,
1099.006,2860.8104,
1096.096,2893.2274,
1093.185,2870.3993,
1090.275,2853.2489,
1087.364,2837.2748,
1084.453,2813.6261,
1081.543,2818.9067,
1078.632,2823.8812,
1075.722,2790.9683,
1072.811,2837.4245,
1069.901,2862.7491,
1066.990,2829.0584,
1064.079,2874.3856,
1061.169,2926.1355,
1058.258,2940.4257,
1055.348,2937.68,
1052.437,2954.953,
1049.527,2957.0278,
1046.616,2967.4537,
1043.705,2959.3758,
1040.795,2998.7663,
1037.884,3037.2914,
1034.974,3040.4523,
1032.063,3025.4403,
1029.153,3039.4945,
1026.242,3055.0637,
1023.331,3079.7901,
1020.421,3078.3511,
1017.510,3099.1566,
1014.600,3111.281,
1011.689,3118.5889,
1008.778,3152.6139,
1005.868,3118.4744,
1002.957,3213.1134,
1000.047,3295.329,
997.136,3428.1056,
994.226,3500.502,
991.315,3477.1399,
988.404,3429.3824,
985.494,3412.3565,
982.583,3400.3647,
979.673,3332.0452,
976.762,3349.8964,
973.852,3372.1108,
970.941,3368.2562,
968.030,3380.4227,
965.120,3373.7145,
962.209,3395.0281,
959.299,3437.5787,
956.388,3424.5069,
953.477,3394.6375,
950.567,3394.2977,
947.656,3425.3016,
944.746,3453.3369,
941.835,3433.5699,
938.925,3450.9987,
936.014,3437.8395,
933.103,3414.6843,
930.193,3411.2316,
927.282,3388.5251,
924.372,3368.2306,
921.461,3337.6418,
918.551,3307.2923,
915.640,3251.4055,
912.729,3199.9187,
909.819,3215.1836,
906.908,3242.1412,
903.998,3239.6482,
901.087,3257.0837,
898.176,3269.0566,
895.266,3287.4471,
892.355,3329.5933,
889.445,3361.4854,
886.534,3382.4968,
883.624,3406.1371,
880.713,3422.2596,
877.802,3411.6028,
874.892,3352.2319,
871.981,3228.9284,
869.071,3157.0829,
866.160,3196.372,
863.250,3308.7395,
860.339,3392.4888,
857.428,3399.7294,
854.518,3407.1566,
851.607,3356.4004,
848.697,3278.8433,
845.786,3236.2077,
842.875,3244.5006,
839.965,3300.4605,
837.054,3396.1925,
834.144,3446.7464,
831.233,3429.2936,
828.323,3414.6359,
825.412,3408.7956,
822.501,3392.0716,
819.591,3355.7101,
816.680,3315.3621,
813.770,3283.0709,
810.859,3272.7837,
807.949,3272.4908,
805.038,3258.3396,
802.127,3231.1764,
799.217,3221.1711,
796.306,3214.0844,
793.396,3239.8238,
790.485,3278.8864,
787.574,3254.0921,
784.664,3266.3937,
781.753,3280.7027,
778.843,3287.1151,
775.932,3292.5632,
773.022,3304.1322,
770.111,3307.4025,
767.200,3285.5469,
764.290,3272.8462,
761.379,3283.9858,
758.469,3304.2767,
755.558,3291.1874,
752.648,3276.5245,
749.737,3240.9855,
746.826,3237.1454,
743.916,3256.5341,
741.005,3260.9393,
738.095,3210.6029,
735.184,3173.8774,
732.274,3112.7165,
729.363,3082.4104,
726.452,3126.1431,
723.542,3217.6045,
720.631,3248.6193,
717.721,3266.3634,
714.810,3288.0908,
711.899,3309.3676,
708.989,3299.6845,
706.078,3301.2276,
703.168,3277.9434,
700.257,3257.6741,
697.347,3251.0597,
694.436,3252.5159,
691.525,3248.4969,
688.615,3258.3165,
685.704,3259.8764,
682.794,3250.5825,
679.883,3241.454,
676.973,3259.8855,
674.062,3260.4346,
671.151,3259.94,
668.241,3263.2927,
665.330,3269.457,
662.420,3287.0291,
659.509,3293.1647,
656.598,3291.5958,
653.688,3291.0756,
650.777,3302.0579,
647.867,3285.3351,
644.956,3239.5228,
642.046,3207.406,
639.135,3195.2713,
636.224,3182.7284,
633.314,3203.3708,
630.403,3250.0097,
627.493,3293.6039,
624.582,3332.2804,
621.672,3398.0159,
618.761,3416.5837,
615.850,3426.0329,
612.940,3447.7263,
610.029,3493.5414,
607.119,3559.0807,
604.208,3517.3441,
601.297,3533.5183,
598.387,3555.0068,
595.476,3517.9565,
592.566,3510.8729,
589.655,3492.132,
586.745,3473.5117,
583.834,3447.5716,
580.923,3397.5587,
578.013,3386.5724,
575.102,3407.7157,
572.192,3418.122,
569.281,3404.4844,
566.371,3403.7018,
563.460,3410.6797,
560.549,3437.9889,
557.639,3460.9394,
554.728,3454.4626,
551.818,3467.728,
548.907,3468.7968,
545.996,3458.6828,
543.086,3451.671,
540.175,3484.3742,
537.265,3488.0736,
534.354,3509.696,
531.444,3537.5914,
528.533,3555.7354,
525.622,3557.2873,
522.712,3567.3331,
519.801,3559.8773,
516.891,3551.867,
513.980,3622.3279,
511.070,3647.6424,
508.159,3696.2181,
505.248,3760.1533,
502.338,3819.8224,
499.427,3860.7295,
496.517,3897.6452,
493.606,3915.2696,
490.695,3908.8063,
487.785,3895.7198,
484.874,3913.6579,
481.964,3942.482,
479.053,3945.9298,
476.143,3855.3102,
473.232,3825.1653,
470.321,3839.9538,
467.411,3862.3326,
464.500,3852.6056,
461.590,3851.8399,
458.679,3875.2877,
455.769,3916.0494,
452.858,3957.7734,
449.947,3911.1736,
447.037,3931.963,
444.126,3961.9765,
441.216,3975.9209,
438.305,3954.5868,
435.395,4011.9436,
432.484,4058.2113,
429.573,4081.82,
426.663,4095.5026,
423.752,3913.9012,
420.842,3718.1701,
417.931,3568.2052,
415.020,3528.0122,
412.110,3802.4432,
409.199,4052.2801,
406.289,4174.6638,
403.378,4073.5917,
400.468,4063.7638,
397.557,4104.8419,
394.646,4169.5194,
391.736,4231.118,
388.825,4215.2791,
385.915,4180.8222,
383.004,4182.3227,
380.094,4251.7402,
377.183,4253.9976,
374.272,4285.0207,
371.362,4341.235,
368.451,4411.7528,
365.541,4364.469,
362.630,4374.5671,
359.719,4390.6653,
356.809,4385.5733,
353.898,4417.7716,
350.988,4443.9846,
348.077,4444.6854,
345.167,4412.1387,
342.256,4442.0214,
339.345,4443.1849,
336.435,4441.6217,
333.524,4453.2862,
330.614,4410.8123,
327.703,4395.5714,
324.793,4408.8347,
321.882,4452.6755,
318.971,4473.4919,
316.061,4476.7185,
313.150,4465.2345,
310.240,4441.4868,
307.329,4487.791,
304.418,4523.4953,
301.508,4542.4435,
298.597,4538.001,
295.687,4594.5132,
292.776,4643.7085,
289.866,4685.0563,
286.955,4734.5509,
284.044,4818.1574,
281.134,4881.1394,
278.223,4926.7443,
275.313,5023.2723,
272.402,5069.1847,
269.492,5071.4655,
266.581,5040.6714,
263.670,5097.2803,
260.760,5139.7442,
257.849,5182.872,
254.939,5237.9132,
252.028,5261.0642,
249.117,5274.1933,
246.207,5301.0284,
243.296,5383.7486,
240.386,5356.0575,
237.475,5320.4891,
234.565,5286.6876,
231.654,5236.2912,
228.743,5234.8309,
225.833,5239.4907,
222.922,5235.1686,
220.012,5246.8255,
217.101,5190.7577,
214.191,5135.8375,
211.280,5159.8438,
208.369,5148.8415,
205.459,5190.535,
202.548,5253.3492,
199.638,5199.6512,
196.727,5232.4174,
193.816,5268.5383,
190.906,5278.3868,
187.995,5300.1076,
185.085,5334.5778,
182.174,5354.4391,
179.264,5316.8552,
176.353,5377.3437,
173.442,5375.5564,
170.532,5293.1677,
167.621,5160.5082,
164.711,4994.8098,
161.800,4824.0483,
158.890,4667.1477,
155.979,4270.7087,
153.068,3843.0032,
150.158,3397.8171,
147.247,2940.4815,
144.337,2428.2025,
141.426,1903.6282,
138.516,1384.599,
135.605,978.63754,
132.694,658.50864,
129.784,424.07151,
126.873,303.21457,
123.963,216.59636,
121.052,150.07804,
118.141,100.81881,
115.231,81.4396,
112.320,64.30501,
109.410,50.397803,
106.499,43.988406,
103.589,39.823728,
100.678,40.069595,
97.767,46.468034,
94.857,36.923153,
91.946,28.997002,
89.036,23.963694,
86.125,26.09131,
83.215,22.377637,
80.304,17.188404,
77.393,12.939384,
74.483,17.86608,
71.572,19.900296,
68.662,18.07086,
65.751,12.419251,
62.840,14.478616,
59.930,16.564852,
57.019,8.80895,
54.109,4.6391958,
51.198,3.8314371,
48.288,6.6702995,
45.377,12.297324,
42.466,16.686097,
39.556,17.437747,
36.645,4.0961329,
33.735,3.2212423,
30.824,4.0787912,
27.914,-0.82943553,
25.003,9.2098371,
22.092,11.750145,
19.182,4.3343687,
16.271,26.018563,
13.361,109.22306,
10.450,205.25494,
7.539,168.24423,
4.629,-174.92093,
1.718,-610.53363,
-1.192,-1012.0889,
-4.103,-856.76737,
-7.013,-505.08694,
-9.924,-5.375,
