,Pliquid_AuCOFNPs-citrate13new_1E-1mgmL_100uL_CTR_0E-1mgL_16h_785nm_133mW_3s_1acc_2_RamanShift__2__93,
Raman shift [1/cm],Intensity,
3014.167,2.375,
3011.256,0.72496779,
3008.346,11.365328,
3005.435,20.33613,
3002.525,31.05509,
2999.614,29.513973,
2996.704,26.834797,
2993.793,30.75576,
2990.882,30.329177,
2987.972,21.41536,
2985.061,30.261701,
2982.151,26.971635,
2979.240,40.85693,
2976.329,39.358619,
2973.419,30.975258,
2970.508,20.991663,
2967.598,41.610341,
2964.687,31.628396,
2961.777,40.998968,
2958.866,40.710808,
2955.955,36.616151,
2953.045,37.741892,
2950.134,47.258399,
2947.224,48.346531,
2944.313,45.577279,
2941.403,46.851277,
2938.492,54.098582,
2935.581,44.289139,
2932.671,49.495173,
2929.760,45.028838,
2926.850,46.061466,
2923.939,51.650668,
2921.028,57.898444,
2918.118,54.834697,
2915.207,64.735913,
2912.297,61.425776,
2909.386,65.966244,
2906.476,55.92557,
2903.565,59.003888,
2900.654,68.104009,
2897.744,48.701878,
2894.833,66.952457,
2891.923,62.862203,
2889.012,68.71026,
2886.102,56.938519,
2883.191,69.359896,
2880.280,87.729069,
2877.370,121.20049,
2874.459,110.90952,
2871.549,102.76978,
2868.638,95.828616,
2865.727,74.555796,
2862.817,59.731955,
2859.906,64.121443,
2856.996,64.827449,
2854.085,61.290941,
2851.175,68.754541,
2848.264,59.448501,
2845.353,72.288732,
2842.443,64.781267,
2839.532,71.01672,
2836.622,48.76823,
2833.711,53.789454,
2830.801,52.38235,
2827.890,44.626764,
2824.979,55.942982,
2822.069,66.181674,
2819.158,51.275271,
2816.248,52.88079,
2813.337,72.745747,
2810.427,41.507234,
2807.516,48.475624,
2804.605,58.783655,
2801.695,60.940791,
2798.784,68.783615,
2795.874,65.385568,
2792.963,62.446597,
2790.052,59.376501,
2787.142,67.40123,
2784.231,59.084626,
2781.321,68.117795,
2778.410,52.694791,
2775.500,61.204309,
2772.589,53.682342,
2769.678,53.944939,
2766.768,63.621606,
2763.857,66.215075,
2760.947,56.41913,
2758.036,57.445028,
2755.126,54.178423,
2752.215,63.993103,
2749.304,65.353409,
2746.394,51.608823,
2743.483,65.175009,
2740.573,57.164796,
2737.662,58.385352,
2734.751,66.491488,
2731.841,48.644224,
2728.930,64.599571,
2726.020,69.26794,
2723.109,54.643336,
2720.199,63.943761,
2717.288,60.199816,
2714.377,62.729101,
2711.467,63.555222,
2708.556,70.981315,
2705.646,81.825726,
2702.735,55.385317,
2699.825,71.244115,
2696.914,44.99314,
2694.003,69.705086,
2691.093,57.928551,
2688.182,61.193519,
2685.272,62.375,
2682.361,63.16321,
2679.450,70.745346,
2676.540,74.988842,
2673.629,56.375,
2670.719,68.579259,
2667.808,60.153169,
2664.898,61.452819,
2661.987,66.241645,
2659.076,72.357754,
2656.166,69.729972,
2653.255,73.300171,
2650.345,75.375,
2647.434,71.203522,
2644.524,69.761093,
2641.613,71.060732,
2638.702,70.390781,
2635.792,60.403923,
2632.881,76.642886,
2629.971,79.737443,
2627.060,61.539691,
2624.149,73.240631,
2621.239,72.883893,
2618.328,75.035902,
2615.418,68.038637,
2612.507,82.406572,
2609.597,65.854041,
2606.686,58.738459,
2603.775,68.696431,
2600.865,67.25894,
2597.954,71.327086,
2595.044,67.40157,
2592.133,67.489711,
2589.223,82.073957,
2586.312,78.375,
2583.401,73.885934,
2580.491,74.908636,
2577.580,79.398105,
2574.670,91.437839,
2571.759,85.824487,
2568.848,78.789331,
2565.938,75.517777,
2563.027,87.838627,
2560.117,86.561908,
2557.206,97.935884,
2554.296,76.837243,
2551.385,87.862895,
2548.474,84.227047,
2545.564,88.375,
2542.653,85.670306,
2539.743,81.276419,
2536.832,73.517049,
2533.922,76.422308,
2531.011,82.949697,
2528.100,88.643281,
2525.190,76.67869,
2522.279,84.07847,
2519.369,93.846972,
2516.458,85.042847,
2513.548,94.465796,
2510.637,79.297241,
2507.726,90.252315,
2504.816,78.874434,
2501.905,72.940244,
2498.995,81.613876,
2496.084,83.535268,
2493.173,75.506456,
2490.263,82.745638,
2487.352,91.1246,
2484.442,91.640504,
2481.531,96.3166,
2478.621,90.213877,
2475.710,90.336661,
2472.799,88.334608,
2469.889,99.798827,
2466.978,88.663789,
2464.068,77.628948,
2461.157,87.412524,
2458.247,85.080902,
2455.336,86.715508,
2452.425,97.073125,
2449.515,95.007015,
2446.604,90.259808,
2443.694,86.375,
2440.783,88.804054,
2437.872,77.776114,
2434.962,90.739052,
2432.051,89.572386,
2429.141,84.933778,
2426.230,91.049044,
2423.320,99.118018,
2420.409,91.240406,
2417.498,84.588477,
2414.588,98.542226,
2411.677,99.661867,
2408.767,105.85728,
2405.856,102.78214,
2402.946,94.791444,
2400.035,82.283444,
2397.124,90.28408,
2394.214,104.7262,
2391.303,103.91091,
2388.393,93.923812,
2385.482,94.198753,
2382.571,113.69125,
2379.661,119.63083,
2376.750,109.11397,
2373.840,100.80626,
2370.929,88.504957,
2368.019,102.98953,
2365.108,97.817408,
2362.197,104.91752,
2359.287,103.79505,
2356.376,112.35563,
2353.466,99.162659,
2350.555,104.35007,
2347.645,110.92731,
2344.734,112.58698,
2341.823,117.29208,
2338.913,98.039196,
2336.002,112.97067,
2333.092,114.55896,
2330.181,115.39289,
2327.270,103.14507,
2324.360,89.617863,
2321.449,118.85118,
2318.539,101.71443,
2315.628,121.57525,
2312.718,103.34415,
2309.807,116.85319,
2306.896,123.12304,
2303.986,119.76459,
2301.075,110.82183,
2298.165,117.75019,
2295.254,124.28883,
2292.344,114.16757,
2289.433,105.73409,
2286.522,118.02228,
2283.612,117.85458,
2280.701,110.18219,
2277.791,120.93418,
2274.880,114.01293,
2271.969,120.79887,
2269.059,111.49217,
2266.148,123.31824,
2263.238,128.27461,
2260.327,143.96115,
2257.417,135.52834,
2254.506,130.01604,
2251.595,127.95323,
2248.685,117.95579,
2245.774,106.46308,
2242.864,135.6069,
2239.953,149.96127,
2237.043,135.6475,
2234.132,131.375,
2231.221,116.45245,
2228.311,107.76547,
2225.400,142.95282,
2222.490,130.04605,
2219.579,131.22073,
2216.669,127.83446,
2213.758,125.93839,
2210.847,136.49589,
2207.937,132.70074,
2205.026,162.48637,
2202.116,156.16162,
2199.205,151.363,
2196.294,141.937,
2193.384,148.05901,
2190.473,154.66491,
2187.563,133.60701,
2184.652,184.68846,
2181.742,195.10125,
2178.831,181.53067,
2175.920,184.71197,
2173.010,196.60119,
2170.099,205.84127,
2167.189,185.35347,
2164.278,181.9348,
2161.368,187.94539,
2158.457,207.68049,
2155.546,199.20864,
2152.636,194.375,
2149.725,206.026,
2146.815,207.40837,
2143.904,216.27463,
2140.993,215.375,
2138.083,225.95245,
2135.172,230.98836,
2132.262,221.75616,
2129.351,240.23371,
2126.441,245.375,
2123.530,223.00461,
2120.619,192.02631,
2117.709,199.73812,
2114.798,191.59807,
2111.888,184.22527,
2108.977,168.83857,
2106.067,162.61662,
2103.156,178.21203,
2100.245,166.36935,
2097.335,156.17081,
2094.424,144.02411,
2091.514,127.29699,
2088.603,126.81735,
2085.692,157.28939,
2082.782,159.06583,
2079.871,153.55353,
2076.961,144.9562,
2074.050,142.64773,
2071.140,131.11042,
2068.229,140.20444,
2065.318,137.09201,
2062.408,152.40526,
2059.497,149.77381,
2056.587,150.79358,
2053.676,145.65868,
2050.766,132.37575,
2047.855,123.17565,
2044.944,119.16826,
2042.034,138.55999,
2039.123,143.73527,
2036.213,140.18386,
2033.302,130.20112,
2030.391,121.9345,
2027.481,130.27733,
2024.570,146.17469,
2021.660,150.25674,
2018.749,118.32476,
2015.839,140.4918,
2012.928,133.43205,
2010.017,145.82994,
2007.107,133.44415,
2004.196,125.27975,
2001.286,128.02163,
1998.375,123.32874,
1995.465,135.89375,
1992.554,120.21635,
1989.643,137.64916,
1986.733,141.50219,
1983.822,108.51606,
1980.912,111.19693,
1978.001,120.51044,
1975.090,129.76584,
1972.180,121.78991,
1969.269,130.32047,
1966.359,132.10455,
1963.448,129.48861,
1960.538,137.05557,
1957.627,118.75889,
1954.716,153.28338,
1951.806,129.17629,
1948.895,124.4823,
1945.985,117.9665,
1943.074,119.74026,
1940.164,134.06744,
1937.253,132.32308,
1934.342,106.79372,
1931.432,112.38447,
1928.521,124.0244,
1925.611,136.62812,
1922.700,97.054567,
1919.790,124.99305,
1916.879,102.53723,
1913.968,107.36639,
1911.058,102.366,
1908.147,116.77354,
1905.237,114.41173,
1902.326,107.03275,
1899.415,130.23718,
1896.505,112.81485,
1893.594,119.37803,
1890.684,109.24431,
1887.773,106.53014,
1884.863,122.0447,
1881.952,124.79506,
1879.041,124.64447,
1876.131,101.75802,
1873.220,122.52555,
1870.310,114.30776,
1867.399,121.24705,
1864.489,107.18028,
1861.578,101.908,
1858.667,104.12346,
1855.757,139.98717,
1852.846,122.85706,
1849.936,117.21183,
1847.025,122.02464,
1844.114,106.75381,
1841.204,99.119756,
1838.293,103.36336,
1835.383,112.0145,
1832.472,134.72457,
1829.562,157.67943,
1826.651,107.67281,
1823.740,96.206443,
1820.830,124.52481,
1817.919,139.51876,
1815.009,136.2376,
1812.098,146.14665,
1809.188,123.92544,
1806.277,106.72911,
1803.366,150.97573,
1800.456,126.93534,
1797.545,120.38913,
1794.635,126.63394,
1791.724,114.5787,
1788.813,169.55983,
1785.903,133.16175,
1782.992,156.83994,
1780.082,134.71414,
1777.171,164.04578,
1774.261,183.39008,
1771.350,170.19174,
1768.439,130.86317,
1765.529,129.37688,
1762.618,141.375,
1759.708,133.71188,
1756.797,127.98864,
1753.887,135.0164,
1750.976,129.35079,
1748.065,122.98944,
1745.155,122.73629,
1742.244,102.5109,
1739.334,127.9797,
1736.423,144.375,
1733.512,151.65144,
1730.602,146.14681,
1727.691,131.86009,
1724.781,116.57635,
1721.870,127.8608,
1718.960,135.48616,
1716.049,138.05295,
1713.138,131.53503,
1710.228,133.85619,
1707.317,151.18186,
1704.407,164.15577,
1701.496,129.82464,
1698.586,130.99492,
1695.675,130.43929,
1692.764,153.09632,
1689.854,188.81596,
1686.943,172.98206,
1684.033,166.52402,
1681.122,138.85079,
1678.211,175.02286,
1675.301,179.36267,
1672.390,132.5036,
1669.480,175.24665,
1666.569,159.23535,
1663.659,149.69792,
1660.748,228.35307,
1657.837,176.81239,
1654.927,196.375,
1652.016,196.86098,
1649.106,217.25632,
1646.195,252.30307,
1643.285,248.48632,
1640.374,210.47953,
1637.463,215.75331,
1634.553,236.31589,
1631.642,232.85275,
1628.732,276.3276,
1625.821,268.39201,
1622.911,294.22849,
1620.000,319.06003,
1617.089,385.04166,
1614.179,377.62881,
1611.268,351.3788,
1608.358,419.95691,
1605.447,413.94635,
1602.536,375.16763,
1599.626,421.13144,
1596.715,424.4674,
1593.805,436.00131,
1590.894,434.73299,
1587.984,430.91063,
1585.073,415.0603,
1582.162,439.92624,
1579.252,431.46388,
1576.341,393.92927,
1573.431,417.48514,
1570.520,394.27116,
1567.610,363.51193,
1564.699,375.22577,
1561.788,385.19187,
1558.878,324.92632,
1555.967,341.3002,
1553.057,349.70273,
1550.146,321.70959,
1547.235,321.18153,
1544.325,322.58862,
1541.414,309.27414,
1538.504,294.66796,
1535.593,282.99277,
1532.683,282.96894,
1529.772,285.3563,
1526.861,277.75404,
1523.951,270.5114,
1521.040,267.71757,
1518.130,273.36039,
1515.219,289.13464,
1512.309,292.2083,
1509.398,261.7971,
1506.487,257.4456,
1503.577,281.10977,
1500.666,282.12918,
1497.756,258.12946,
1494.845,279.57511,
1491.934,284.3309,
1489.024,270.856,
1486.113,254.61234,
1483.203,235.61165,
1480.292,227.43542,
1477.382,210.21004,
1474.471,185.65577,
1471.560,202.59632,
1468.650,201.12589,
1465.739,193.81304,
1462.829,169.69594,
1459.918,177.57962,
1457.008,208.55977,
1454.097,216.21558,
1451.186,218.44463,
1448.276,222.10252,
1445.365,208.16015,
1442.455,206.02143,
1439.544,219.27237,
1436.633,217.48126,
1433.723,193.87651,
1430.812,189.48841,
1427.902,177.65341,
1424.991,147.32501,
1422.081,154.63229,
1419.170,199.44208,
1416.259,215.28569,
1413.349,187.9206,
1410.438,176.27566,
1407.528,181.81242,
1404.617,175.98095,
1401.707,163.54565,
1398.796,162.62324,
1395.885,177.70973,
1392.975,188.12482,
1390.064,163.30507,
1387.154,118.40277,
1384.243,100.71896,
1381.332,74.833708,
1378.422,49.901267,
1375.511,118.28628,
1372.601,153.4731,
1369.690,174.37667,
1366.780,222.521,
1363.869,228.56318,
1360.958,221.75349,
1358.048,199.2024,
1355.137,222.17288,
1352.227,234.32912,
1349.316,242.42546,
1346.406,294.375,
1343.495,298.36107,
1340.584,309.66076,
1337.674,306.911,
1334.763,312.25713,
1331.853,335.43791,
1328.942,363.94839,
1326.032,342.09076,
1323.121,338.59789,
1320.210,344.70237,
1317.300,355.63825,
1314.389,356.74991,
1311.479,336.21007,
1308.568,329.74264,
1305.657,357.90362,
1302.747,360.53339,
1299.836,345.6207,
1296.926,349.51145,
1294.015,395.47763,
1291.105,385.04741,
1288.194,420.11718,
1285.283,445.84307,
1282.373,453.64062,
1279.462,455.47302,
1276.552,458.69784,
1273.641,464.79146,
1270.731,480.66606,
1267.820,500.80474,
1264.909,480.35272,
1261.999,460.2724,
1259.088,512.26331,
1256.178,469.98281,
1253.267,490.76123,
1250.356,484.47541,
1247.446,465.64046,
1244.535,442.50897,
1241.625,425.35649,
1238.714,411.7887,
1235.804,392.96235,
1232.893,412.8696,
1229.982,435.81114,
1227.072,389.64023,
1224.161,422.51666,
1221.251,358.64663,
1218.340,340.85312,
1215.430,333.91483,
1212.519,311.79222,
1209.608,312.73941,
1206.698,351.77944,
1203.787,375.24435,
1200.877,384.87351,
1197.966,376.78108,
1195.055,391.73348,
1192.145,411.6559,
1189.234,412.83345,
1186.324,413.64804,
1183.413,439.78112,
1180.503,459.93185,
1177.592,444.85992,
1174.681,455.86815,
1171.771,451.34473,
1168.860,406.69026,
1165.950,391.89324,
1163.039,401.24785,
1160.129,389.2692,
1157.218,371.60617,
1154.307,384.29729,
1151.397,402.55902,
1148.486,366.52199,
1145.576,384.76048,
1142.665,393.6396,
1139.754,376.47517,
1136.844,359.06925,
1133.933,360.41307,
1131.023,362.07033,
1128.112,363.01718,
1125.202,367.02719,
1122.291,357.38579,
1119.380,385.32303,
1116.470,380.02786,
1113.559,380.14825,
1110.649,379.06531,
1107.738,388.01973,
1104.828,373.48953,
1101.917,361.19833,
1099.006,408.90076,
1096.096,409.81615,
1093.185,384.35408,
1090.275,405.03457,
1087.364,394.59417,
1084.453,389.06239,
1081.543,396.51009,
1078.632,398.7339,
1075.722,393.14518,
1072.811,422.62321,
1069.901,426.11625,
1066.990,408.59171,
1064.079,415.94374,
1061.169,436.28713,
1058.258,440.75226,
1055.348,433.02063,
1052.437,433.63541,
1049.527,404.7778,
1046.616,415.20375,
1043.705,417.14577,
1040.795,446.10771,
1037.884,450.2373,
1034.974,442.47165,
1032.063,443.41367,
1029.153,426.76383,
1026.242,446.65783,
1023.331,442.37532,
1020.421,426.73587,
1017.510,422.6161,
1014.600,439.60048,
1011.689,465.50626,
1008.778,479.84111,
1005.868,488.45222,
1002.957,497.05576,
1000.047,527.49501,
997.136,544.83558,
994.226,540.45206,
991.315,514.4567,
988.404,484.75252,
985.494,507.24074,
982.583,501.24485,
979.673,482.81548,
976.762,461.69745,
973.852,461.54124,
970.941,480.59899,
968.030,489.21305,
965.120,454.40364,
962.209,461.22398,
959.299,470.16574,
956.388,475.05489,
953.477,460.75596,
950.567,455.10611,
947.656,502.93205,
944.746,507.17983,
941.835,458.7862,
938.925,477.64531,
936.014,483.25848,
933.103,481.49617,
930.193,486.98643,
927.282,448.82506,
924.372,438.67778,
921.461,457.25781,
918.551,456.24193,
915.640,447.40039,
912.729,441.76486,
909.819,438.70946,
906.908,448.81856,
903.998,447.78427,
901.087,461.37814,
898.176,462.69427,
895.266,456.6446,
892.355,465.81445,
889.445,500.2244,
886.534,469.48474,
883.624,492.30678,
880.713,510.45785,
877.802,517.50152,
874.892,523.55885,
871.981,525.28249,
869.071,563.71148,
866.160,551.05613,
863.250,520.88269,
860.339,496.36336,
857.428,488.14024,
854.518,491.66386,
851.607,501.64869,
848.697,510.94099,
845.786,511.78017,
842.875,509.72455,
839.965,503.36995,
837.054,471.59828,
834.144,491.48834,
831.233,466.71041,
828.323,464.24472,
825.412,469.93574,
822.501,461.88577,
819.591,492.46255,
816.680,438.88773,
813.770,446.67609,
810.859,434.10552,
807.949,418.53361,
805.038,457.08075,
802.127,446.38009,
799.217,471.46369,
796.306,456.53698,
793.396,446.93998,
790.485,460.58558,
787.574,462.06003,
784.664,480.1025,
781.753,463.24548,
778.843,452.88492,
775.932,441.57271,
773.022,424.47567,
770.111,470.26005,
767.200,468.04581,
764.290,443.25988,
761.379,435.82782,
758.469,447.44527,
755.558,436.01031,
752.648,423.79125,
749.737,415.4999,
746.826,400.25325,
743.916,380.7905,
741.005,352.89437,
738.095,233.54848,
735.184,127.84736,
732.274,88.745513,
729.363,126.72265,
726.452,232.83314,
723.542,379.33333,
720.631,396.54947,
717.721,420.57029,
714.810,430.28413,
711.899,422.82055,
708.989,433.31058,
706.078,438.18282,
703.168,431.48113,
700.257,429.263,
697.347,434.24447,
694.436,437.06949,
691.525,425.81622,
688.615,406.3944,
685.704,405.87226,
682.794,416.73672,
679.883,411.05061,
676.973,403.83827,
674.062,407.47966,
671.151,423.96323,
668.241,437.08653,
665.330,423.48845,
662.420,425.88464,
659.509,428.91472,
656.598,429.07675,
653.688,431.97585,
650.777,446.53792,
647.867,421.85176,
644.956,446.0942,
642.046,465.2042,
639.135,466.58461,
636.224,467.25564,
633.314,443.43748,
630.403,437.96621,
627.493,439.14315,
624.582,446.20186,
621.672,472.33766,
618.761,478.69458,
615.850,468.80426,
612.940,460.3996,
610.029,458.95541,
607.119,438.42502,
604.208,436.375,
601.297,435.87648,
598.387,438.81459,
595.476,445.5923,
592.566,426.70266,
589.655,475.20621,
586.745,480.37467,
583.834,437.41954,
580.923,391.33709,
578.013,385.05922,
575.102,392.55241,
572.192,395.44487,
569.281,391.32759,
566.371,407.7627,
563.460,428.42264,
560.549,444.65874,
557.639,449.07799,
554.728,438.01553,
551.818,448.15964,
548.907,460.12561,
545.996,458.59921,
543.086,444.86514,
540.175,437.85732,
537.265,447.51491,
534.354,454.88683,
531.444,456.70305,
528.533,453.64419,
525.622,471.49098,
522.712,467.48721,
519.801,463.13876,
516.891,470.32219,
513.980,499.74543,
511.070,491.10544,
508.159,502.13469,
505.248,508.10869,
502.338,474.42018,
499.427,475.96385,
496.517,482.59722,
493.606,486.36552,
490.695,484.26802,
487.785,483.49822,
484.874,520.20976,
481.964,523.34859,
479.053,494.04312,
476.143,471.7722,
473.232,486.92129,
470.321,504.56626,
467.411,519.16086,
464.500,526.81259,
461.590,504.60613,
458.679,505.52883,
455.769,504.12852,
452.858,489.32942,
449.947,498.49659,
447.037,502.80204,
444.126,494.39318,
441.216,479.22704,
438.305,489.89408,
435.395,490.06373,
432.484,484.37397,
429.573,483.23257,
426.663,508.31721,
423.752,526.41564,
420.842,555.29593,
417.931,581.80594,
415.020,583.32265,
412.110,546.06273,
409.199,514.77111,
406.289,512.36366,
403.378,561.37244,
400.468,560.61644,
397.557,525.41283,
394.646,478.36903,
391.736,439.45749,
388.825,410.79671,
385.915,380.02286,
383.004,367.51358,
380.094,388.79163,
377.183,455.76202,
374.272,479.26002,
371.362,499.26868,
368.451,534.09243,
365.541,480.05384,
362.630,510.71297,
359.719,544.82339,
356.809,536.64685,
353.898,541.13964,
350.988,547.79987,
348.077,548.89009,
345.167,540.90478,
342.256,551.36374,
339.345,558.09503,
336.435,570.25796,
333.524,591.80131,
330.614,541.87587,
327.703,553.07207,
324.793,572.18801,
321.882,554.40024,
318.971,564.80844,
316.061,572.28151,
313.150,580.07023,
310.240,591.94408,
307.329,552.35533,
304.418,539.11072,
301.508,531.74112,
298.597,491.75862,
295.687,493.11568,
292.776,492.04165,
289.866,492.3571,
286.955,515.99631,
284.044,614.2499,
281.134,690.11112,
278.223,731.19517,
275.313,770.98535,
272.402,804.35384,
269.492,828.71206,
266.581,841.42909,
263.670,828.19584,
260.760,855.718,
257.849,891.04731,
254.939,910.12825,
252.028,935.70957,
249.117,932.127,
246.207,906.71505,
243.296,869.38117,
240.386,889.53569,
237.475,874.32935,
234.565,825.92398,
231.654,804.01247,
228.743,757.37313,
225.833,730.33865,
222.922,738.52566,
220.012,720.31178,
217.101,676.58989,
214.191,651.79998,
211.280,699.81253,
208.369,673.09841,
205.459,638.41248,
202.548,603.4864,
199.638,575.18608,
196.727,612.59119,
193.816,662.73738,
190.906,704.74013,
187.995,686.63951,
185.085,682.73928,
182.174,670.87962,
179.264,617.39494,
176.353,672.249,
173.442,694.77315,
170.532,675.5511,
167.621,685.64476,
164.711,681.54262,
161.800,660.62912,
158.890,617.44547,
155.979,620.16798,
153.068,579.99629,
150.158,508.82468,
147.247,458.56802,
144.337,386.59232,
141.426,307.31611,
138.516,226.3074,
135.605,150.3331,
132.694,100.30332,
129.784,66.849034,
126.873,28.232023,
123.963,22.08221,
121.052,23.658289,
118.141,24.372191,
115.231,10.874163,
112.320,7.4931796,
109.410,9.5568685,
106.499,5.2839371,
103.589,6.6160179,
100.678,5.658783,
97.767,-1.4505928,
94.857,-2.317989,
91.946,-0.20633477,
89.036,4.5039791,
86.125,11.596032,
83.215,8.5967168,
80.304,3.4172693,
77.393,0.58458951,
74.483,2.9955398,
71.572,2.2008873,
68.662,-1.486465,
65.751,-0.073562845,
62.840,4.7103179,
59.930,9.0004276,
57.019,7.5902636,
54.109,0.20906982,
51.198,-2.2121258,
48.288,3.3976498,
45.377,6.211162,
42.466,10.260535,
39.556,14.375,
36.645,14.375,
33.735,10.740261,
30.824,6.9332261,
27.914,5.5308756,
25.003,6.620275,
22.092,7.0520954,
19.182,7.0843687,
16.271,28.768563,
13.361,159.59781,
10.450,383.98438,
7.539,712.89091,
4.629,889.76452,
1.718,845.80186,
-1.192,423.33227,
-4.103,181.60513,
-7.013,42.133658,
-9.924,0.375,
