,PLB772~1,
Wavenumbers [1/cm],Intensity,
3014.167,2.875,
3011.256,-2.2749248,
3008.346,49.615033,
3005.435,73.108219,
3002.525,66.647371,
2999.614,73.668554,
2996.704,88.246139,
2993.793,93.7788,
2990.882,89.386357,
2987.972,94.930495,
2985.061,109.4218,
2982.151,99.784232,
2979.240,108.49384,
2976.329,102.13456,
2973.419,123.18309,
2970.508,111.19164,
2967.598,112.39709,
2964.687,108.1284,
2961.777,115.68698,
2958.866,121.86906,
2955.955,127.59845,
2953.045,138.14122,
2950.134,134.875,
2947.224,133.98888,
2944.313,147.76247,
2941.403,156.39872,
2938.492,150.88585,
2935.581,141.08485,
2932.671,152.0724,
2929.760,159.19042,
2926.850,148.44267,
2923.939,164.43575,
2921.028,166.49858,
2918.118,163.79439,
2915.207,159.46361,
2912.297,166.84538,
2909.386,157.68522,
2906.476,169.13061,
2903.565,160.80981,
2900.654,164.53426,
2897.744,151.91272,
2894.833,152.81318,
2891.923,154.7404,
2889.012,152.54552,
2886.102,147.72769,
2883.191,110.91465,
2880.280,88.420449,
2877.370,43.909987,
2874.459,9.3086631,
2871.549,30.599558,
2868.638,158.38216,
2865.727,149.45957,
2862.817,169.33222,
2859.906,167.90064,
2856.996,168.9067,
2854.085,165.39601,
2851.175,183.22749,
2848.264,176.21349,
2845.353,183.59463,
2842.443,172.87152,
2839.532,173.54666,
2836.622,175.66146,
2833.711,172.55632,
2830.801,178.57279,
2827.890,176.12676,
2824.979,173.96107,
2822.069,196.74991,
2819.158,190.0556,
2816.248,196.12789,
2813.337,191.98841,
2810.427,192.875,
2807.516,187.82469,
2804.605,181.10096,
2801.695,185.30921,
2798.784,188.57931,
2795.874,177.01484,
2792.963,181.80362,
2790.052,180.87543,
2787.142,185.74338,
2784.231,189.68089,
2781.321,205.74352,
2778.410,186.80013,
2775.500,189.23603,
2772.589,181.99044,
2769.678,185.65997,
2766.768,189.68665,
2763.857,186.66305,
2760.947,175.37815,
2758.036,188.58208,
2755.126,178.58013,
2752.215,196.4931,
2749.304,203.95952,
2746.394,208.02824,
2743.483,207.62499,
2740.573,205.43914,
2737.662,196.22559,
2734.751,203.96729,
2731.841,190.1717,
2728.930,202.40472,
2726.020,204.99769,
2723.109,189.93725,
2720.199,199.81558,
2717.288,210.68157,
2714.377,191.23368,
2711.467,205.92445,
2708.556,202.21521,
2705.646,220.86094,
2702.735,214.21005,
2699.825,214.89681,
2696.914,210.63681,
2694.003,208.51727,
2691.093,208.41051,
2688.182,208.98463,
2685.272,210.07842,
2682.361,206.39247,
2679.450,212.75155,
2676.540,219.89532,
2673.629,219.87949,
2670.719,215.30568,
2667.808,230.99956,
2664.898,209.95282,
2661.987,218.14171,
2659.076,233.84051,
2656.166,220.26449,
2653.255,236.3988,
2650.345,235.98752,
2647.434,233.61778,
2644.524,235.50811,
2641.613,231.90328,
2638.702,238.68563,
2635.792,243.78227,
2632.881,241.64871,
2629.971,236.27763,
2627.060,225.53938,
2624.149,242.0375,
2621.239,233.86314,
2618.328,249.5359,
2615.418,237.22954,
2612.507,234.70106,
2609.597,232.51771,
2606.686,253.31676,
2603.775,244.95436,
2600.865,252.04909,
2597.954,249.58752,
2595.044,250.15224,
2592.133,256.76029,
2589.223,260.00764,
2586.312,252.875,
2583.401,256.01735,
2580.491,266.40864,
2577.580,261.8651,
2574.670,254.76805,
2571.759,261.23373,
2568.848,258.9965,
2565.938,257.01778,
2563.027,261.28868,
2560.117,259.40773,
2557.206,250.41006,
2554.296,252.44937,
2551.385,270.13105,
2548.474,272.65269,
2545.564,268.93831,
2542.653,261.48574,
2539.743,262.30723,
2536.832,278.44697,
2533.922,276.98538,
2531.011,282.50012,
2528.100,280.47431,
2525.190,270.01639,
2522.279,273.68741,
2519.369,270.78061,
2516.458,283.99398,
2513.548,280.73881,
2510.637,265.59652,
2507.726,287.81551,
2504.816,284.50071,
2501.905,278.32439,
2498.995,283.35275,
2496.084,293.32798,
2493.173,300.53295,
2490.263,281.93147,
2487.352,309.8734,
2484.442,293.4253,
2481.531,300.39637,
2478.621,303.39163,
2475.710,292.88267,
2472.799,296.83461,
2469.889,296.66446,
2466.978,307.081,
2464.068,314.875,
2461.157,309.79508,
2458.247,299.00738,
2455.336,304.51297,
2452.425,297.85141,
2449.515,321.26169,
2446.604,316.52247,
2443.694,320.52633,
2440.783,323.06532,
2437.872,318.32803,
2434.962,306.50172,
2432.051,315.82565,
2429.141,317.875,
2426.230,328.1579,
2423.320,333.34637,
2420.409,330.20203,
2417.498,325.06321,
2414.588,318.06516,
2411.677,326.65985,
2408.767,323.40453,
2405.856,329.46786,
2402.946,332.66678,
2400.035,326.78344,
2397.124,339.44718,
2394.214,348.631,
2391.303,335.44411,
2388.393,326.14243,
2385.482,315.31562,
2382.571,331.68485,
2379.661,345.71212,
2376.750,347.50804,
2373.840,353.07183,
2370.929,358.84251,
2368.019,360.21307,
2365.108,352.38547,
2362.197,368.05584,
2359.287,350.11845,
2356.376,361.84506,
2353.466,377.16447,
2350.555,361.77528,
2347.645,364.99422,
2344.734,377.78749,
2341.823,366.15691,
2338.913,363.11829,
2336.002,370.35824,
2333.092,383.01275,
2330.181,381.06684,
2327.270,358.97511,
2324.360,390.06841,
2321.449,378.4124,
2318.539,377.64261,
2315.628,387.78267,
2312.718,373.62609,
2309.807,400.46512,
2306.896,400.67,
2303.986,406.12814,
2301.075,387.7899,
2298.165,368.31698,
2295.254,382.46568,
2292.344,415.66757,
2289.433,396.485,
2286.522,381.36161,
2283.612,396.05614,
2280.701,419.31891,
2277.791,384.11919,
2274.880,435.09305,
2271.969,422.55401,
2269.059,423.34367,
2266.148,431.2523,
2263.238,418.48119,
2260.327,437.1509,
2257.417,437.07945,
2254.506,434.58444,
2251.595,442.59504,
2248.685,438.61154,
2245.774,438.875,
2242.864,440.09696,
2239.953,433.19906,
2237.043,437.7443,
2234.132,430.1347,
2231.221,439.00679,
2228.311,436.39562,
2225.400,446.875,
2222.490,445.20395,
2219.579,449.15783,
2216.669,466.39646,
2213.758,457.96127,
2210.847,458.29313,
2207.937,467.50854,
2205.026,466.87559,
2202.116,460.31447,
2199.205,482.75029,
2196.294,483.61898,
2193.384,488.875,
2190.473,494.02289,
2187.563,514.79766,
2184.652,500.0799,
2181.742,504.51107,
2178.831,504.59098,
2175.920,527.02984,
2173.010,554.5513,
2170.099,572.14038,
2167.189,603.82477,
2164.278,603.91822,
2161.368,648.30316,
2158.457,673.39645,
2155.546,702.60193,
2152.636,729.476,
2149.725,752.19043,
2146.815,768.40784,
2143.904,790.87129,
2140.993,785.59982,
2138.083,804.44032,
2135.172,823.80783,
2132.262,841.88908,
2129.351,833.52664,
2126.441,811.20504,
2123.530,757.81888,
2120.619,750.67326,
2117.709,731.86494,
2114.798,705.05563,
2111.888,667.45077,
2108.977,630.53062,
2106.067,613.56636,
2103.156,599.55731,
2100.245,565.86873,
2097.335,553.34621,
2094.424,535.3537,
2091.514,543.31054,
2088.603,536.36356,
2085.692,533.60724,
2082.782,533.85901,
2079.871,541.19705,
2076.961,544.81042,
2074.050,513.475,
2071.140,541.33505,
2068.229,520.15365,
2065.318,527.80227,
2062.408,529.71541,
2059.497,533.92861,
2056.587,536.2706,
2053.676,517.62575,
2050.766,527.79727,
2047.855,531.16302,
2044.944,506.875,
2042.034,515.40691,
2039.123,542.53493,
2036.213,529.93495,
2033.302,532.26604,
2030.391,546.875,
2027.481,530.5093,
2024.570,542.57453,
2021.660,539.2889,
2018.749,529.33089,
2015.839,535.09087,
2012.928,504.31125,
2010.017,532.0433,
2007.107,541.94415,
2004.196,538.38691,
2001.286,537.66652,
1998.375,522.2618,
1995.465,532.39375,
1992.554,512.33404,
1989.643,504.04782,
1986.733,516.03553,
1983.822,520.14457,
1980.912,528.78596,
1978.001,530.93437,
1975.090,529.27347,
1972.180,526.49602,
1969.269,530.23422,
1966.359,528.09112,
1963.448,545.79046,
1960.538,529.52971,
1957.627,539.03291,
1954.716,530.191,
1951.806,517.26599,
1948.895,537.37105,
1945.985,502.47468,
1943.074,532.30316,
1940.164,509.31723,
1937.253,507.60968,
1934.342,519.42206,
1931.432,505.24724,
1928.521,505.1617,
1925.611,526.56966,
1922.700,509.71478,
1919.790,536.60295,
1916.879,518.61874,
1913.968,533.8541,
1911.058,541.13927,
1908.147,540.35817,
1905.237,510.47794,
1902.326,505.97427,
1899.415,505.09208,
1896.505,511.26044,
1893.594,491.51522,
1890.684,521.05122,
1887.773,540.85814,
1884.863,534.33969,
1881.952,527.80759,
1879.041,538.24832,
1876.131,541.24624,
1873.220,494.6757,
1870.310,543.56997,
1867.399,567.55513,
1864.489,548.34232,
1861.578,558.19381,
1858.667,537.62054,
1855.757,516.86068,
1852.846,537.39806,
1849.936,558.43255,
1847.025,575.5222,
1844.114,562.80437,
1841.204,561.11276,
1838.293,578.37916,
1835.383,561.66601,
1832.472,554.0263,
1829.562,563.26302,
1826.651,570.29389,
1823.740,591.53021,
1820.830,588.84342,
1817.919,560.62933,
1815.009,539.46279,
1812.098,563.80412,
1809.188,590.32456,
1806.277,581.11845,
1803.366,577.90827,
1800.456,580.86423,
1797.545,593.17311,
1794.635,552.68009,
1791.724,590.55463,
1788.813,587.88014,
1785.903,605.04747,
1782.992,612.36234,
1780.082,598.67779,
1777.171,547.20958,
1774.261,531.43459,
1771.350,529.11801,
1768.439,577.32145,
1765.529,603.42602,
1762.618,630.66186,
1759.708,620.85325,
1756.797,596.74621,
1753.887,629.34001,
1750.976,645.69896,
1748.065,628.26056,
1745.155,616.37831,
1742.244,618.48278,
1739.334,634.515,
1736.423,637.04884,
1733.512,640.24087,
1730.602,620.18251,
1727.691,624.38991,
1724.781,679.00248,
1721.870,679.99873,
1718.960,672.76384,
1716.049,678.5868,
1713.138,689.27995,
1710.228,671.72847,
1707.317,677.72071,
1704.407,677.9766,
1701.496,694.28286,
1698.586,698.64695,
1695.675,725.07484,
1692.764,721.19467,
1689.854,734.26871,
1686.943,735.84127,
1684.033,761.22926,
1681.122,730.41876,
1678.211,758.599,
1675.301,719.99525,
1672.390,752.90192,
1669.480,761.81082,
1666.569,754.64945,
1663.659,815.26698,
1660.748,839.0871,
1657.837,850.53109,
1654.927,879.99215,
1652.016,883.90304,
1649.106,845.82976,
1646.195,883.65921,
1643.285,875.78646,
1640.374,914.81228,
1637.463,912.23529,
1634.553,932.76167,
1631.642,992.53733,
1628.732,1053.0172,
1625.821,1076.9057,
1622.911,1123.6101,
1620.000,1163.3711,
1617.089,1270.7058,
1614.179,1366.1677,
1611.268,1464.1944,
1608.358,1461.2028,
1605.447,1521.2183,
1602.536,1546.3084,
1599.626,1562.5939,
1596.715,1563.875,
1593.805,1546.8827,
1590.894,1505.2448,
1587.984,1490.348,
1585.073,1504.1897,
1582.162,1474.3144,
1579.252,1452.3273,
1576.341,1425.6442,
1573.431,1451.9851,
1570.520,1437.1793,
1567.610,1418.6984,
1564.699,1406.1746,
1561.788,1333.1574,
1558.878,1340.0614,
1555.967,1357.5357,
1553.057,1360.4267,
1550.146,1325.6169,
1547.235,1284.5749,
1544.325,1252.0814,
1541.414,1241.7355,
1538.504,1212.9916,
1535.593,1195.9955,
1532.683,1216.8471,
1529.772,1203.1753,
1526.861,1163.4028,
1523.951,1133.6934,
1521.040,1110.4216,
1518.130,1111.8458,
1515.219,1125.1956,
1512.309,1110.5552,
1509.398,1131.9416,
1506.487,1115.8204,
1503.577,1077.6671,
1500.666,1088.6145,
1497.756,1050.1551,
1494.845,1088.3942,
1491.934,1052.9884,
1489.024,1087.6381,
1486.113,1011.9161,
1483.203,1015.6448,
1480.292,1031.2997,
1477.382,999.92858,
1474.471,1029.4766,
1471.560,995.8837,
1468.650,979.55827,
1465.739,971.54863,
1462.829,959.11637,
1459.918,954.97998,
1457.008,935.05935,
1454.097,941.21801,
1451.186,991.42045,
1448.276,997.84375,
1445.365,973.76994,
1442.455,989.30881,
1439.544,966.11842,
1436.633,963.56319,
1433.723,917.11821,
1430.812,931.54511,
1427.902,915.16815,
1424.991,927.48906,
1422.081,901.26816,
1419.170,947.26238,
1416.259,894.93033,
1413.349,928.45519,
1410.438,885.09351,
1407.528,918.45549,
1404.617,898.62059,
1401.707,889.96185,
1398.796,927.61972,
1395.885,905.08335,
1392.975,888.29314,
1390.064,948.16605,
1387.154,938.74429,
1384.243,949.87593,
1381.332,967.01375,
1378.422,913.17924,
1375.511,938.47232,
1372.601,1048.5419,
1369.690,974.72442,
1366.780,1054.3351,
1363.869,1046.91,
1360.958,1070.5267,
1358.048,1131.0001,
1355.137,1140.4247,
1352.227,1160.3916,
1349.316,1231.7042,
1346.406,1267.1694,
1343.495,1256.6119,
1340.584,1273.7674,
1337.674,1300.339,
1334.763,1297.2158,
1331.853,1332.4506,
1328.942,1294.7386,
1326.032,1320.053,
1323.121,1375.0377,
1320.210,1387.2136,
1317.300,1369.529,
1314.389,1415.4039,
1311.479,1458.3896,
1308.568,1466.7857,
1305.657,1512.337,
1302.747,1518.5633,
1299.836,1487.5803,
1296.926,1560.1224,
1294.015,1629.991,
1291.105,1685.7075,
1288.194,1720.0323,
1285.283,1766.9712,
1282.373,1830.3358,
1279.462,1854.5809,
1276.552,1876.9617,
1273.641,1924.8553,
1270.731,1941.7616,
1267.820,1907.4595,
1264.909,1900.7976,
1261.999,1864.5075,
1259.088,1881.8378,
1256.178,1856.3249,
1253.267,1826.5575,
1250.356,1788.3986,
1247.446,1770.9414,
1244.535,1734.6831,
1241.625,1644.9714,
1238.714,1573.8386,
1235.804,1579.2732,
1232.893,1518.6269,
1229.982,1509.967,
1227.072,1512.6829,
1224.161,1492.7029,
1221.251,1476.9629,
1218.340,1426.8804,
1215.430,1385.3589,
1212.519,1371.875,
1209.608,1383.215,
1206.698,1402.8537,
1203.787,1394.8901,
1200.877,1371.3854,
1197.966,1428.0324,
1195.055,1444.527,
1192.145,1479.9341,
1189.234,1531.1001,
1186.324,1567.0582,
1183.413,1577.5501,
1180.503,1576.5495,
1177.592,1575.3194,
1174.681,1564.0873,
1171.771,1543.8241,
1168.860,1498.2766,
1165.950,1505.9693,
1163.039,1503.9862,
1160.129,1523.1098,
1157.218,1508.5501,
1154.307,1486.1506,
1151.397,1478.6746,
1148.486,1407.7799,
1145.576,1380.8795,
1142.665,1427.0509,
1139.754,1431.6886,
1136.844,1412.9668,
1133.933,1409.567,
1131.023,1410.0424,
1128.112,1391.8772,
1125.202,1366.5658,
1122.291,1376.5125,
1119.380,1408.9443,
1116.470,1416.0045,
1113.559,1431.5667,
1110.649,1413.6102,
1107.738,1395.4452,
1104.828,1391.5394,
1101.917,1392.9874,
1099.006,1397.1841,
1096.096,1425.7999,
1093.185,1408.2399,
1090.275,1382.5969,
1087.364,1376.1889,
1084.453,1385.9994,
1081.543,1412.7185,
1078.632,1422.4589,
1075.722,1395.9526,
1072.811,1416.3237,
1069.901,1394.4922,
1066.990,1436.5249,
1064.079,1435.3063,
1061.169,1446.444,
1058.258,1461.5689,
1055.348,1467.6965,
1052.437,1481.4667,
1049.527,1505.1435,
1046.616,1512.0942,
1043.705,1517.4996,
1040.795,1514.4055,
1037.884,1498.7258,
1034.974,1508.2204,
1032.063,1544.4443,
1029.153,1537.59,
1026.242,1518.561,
1023.331,1550.3729,
1020.421,1565.2402,
1017.510,1561.5914,
1014.600,1558.8355,
1011.689,1571.7122,
1008.778,1596.9538,
1005.868,1615.153,
1002.957,1646.1258,
1000.047,1678.539,
997.136,1748.1949,
994.226,1786.752,
991.315,1788.3552,
988.404,1793.2549,
985.494,1753.7791,
982.583,1749.4963,
979.673,1754.7282,
976.762,1734.5651,
973.852,1729.0412,
970.941,1744.246,
968.030,1747.1698,
965.120,1731.9036,
962.209,1738.724,
959.299,1751.207,
956.388,1755.315,
953.477,1765.1507,
950.567,1781.1821,
947.656,1784.9864,
944.746,1785.836,
941.835,1760.7708,
938.925,1762.7716,
936.014,1773.9566,
933.103,1789.7024,
930.193,1788.4962,
927.282,1720.4332,
924.372,1749.1838,
921.461,1716.055,
918.551,1676.1521,
915.640,1664.099,
912.729,1668.2395,
909.819,1654.6543,
906.908,1668.1331,
903.998,1629.9022,
901.087,1658.0654,
898.176,1682.261,
895.266,1682.9706,
892.355,1684.058,
889.445,1711.7538,
886.534,1766.1417,
883.624,1770.1467,
880.713,1766.875,
877.802,1763.7485,
874.892,1758.6104,
871.981,1758.1069,
869.071,1598.5431,
866.160,1626.7617,
863.250,1658.1654,
860.339,1696.8086,
857.428,1749.7531,
854.518,1724.7657,
851.607,1755.5522,
848.697,1696.908,
845.786,1656.9767,
842.875,1630.0967,
839.965,1615.0405,
837.054,1689.4611,
834.144,1741.6725,
831.233,1752.5416,
828.323,1732.103,
825.412,1704.4357,
822.501,1689.3856,
819.591,1681.1216,
816.680,1657.6378,
813.770,1644.9835,
810.859,1628.2403,
807.949,1612.3238,
805.038,1608.6847,
802.127,1590.5759,
799.217,1608.2552,
796.306,1618.848,
793.396,1615.2566,
790.485,1603.1904,
787.574,1597.3732,
784.664,1610.495,
781.753,1628.3076,
778.843,1639.7957,
775.932,1642.3318,
773.022,1640.2698,
770.111,1649.2631,
767.200,1669.6691,
764.290,1668.3626,
761.379,1656.1793,
758.469,1650.4789,
755.558,1666.6837,
752.648,1626.7681,
749.737,1612.9999,
746.826,1611.2737,
743.916,1605.0567,
741.005,1579.0059,
738.095,1527.0458,
735.184,1482.2618,
732.274,1422.1737,
729.363,1416.1705,
726.452,1493.9613,
723.542,1549.8094,
720.631,1586.5147,
717.721,1607.1862,
714.810,1618.3011,
711.899,1627.073,
708.989,1640.7908,
706.078,1653.6958,
703.168,1637.4439,
700.257,1623.6373,
697.347,1616.0061,
694.436,1595.5515,
691.525,1620.4694,
688.615,1605.7498,
685.704,1587.8313,
682.794,1592.5132,
679.883,1631.388,
676.973,1576.0934,
674.062,1599.9695,
671.151,1611.1084,
668.241,1604.64,
665.330,1620.1397,
662.420,1625.7308,
659.509,1626.2401,
656.598,1622.413,
653.688,1618.3351,
650.777,1619.416,
647.867,1605.8784,
644.956,1588.6345,
642.046,1574.0706,
639.135,1566.923,
636.224,1570.9267,
633.314,1581.2479,
630.403,1599.2465,
627.493,1629.8469,
624.582,1660.4624,
621.672,1654.1265,
618.761,1659.1946,
615.850,1676.8536,
612.940,1691.5827,
610.029,1692.9022,
607.119,1681.0577,
604.208,1697.6253,
601.297,1704.875,
598.387,1699.429,
595.476,1687.8805,
592.566,1709.1314,
589.655,1702.5088,
586.745,1689.4975,
583.834,1674.8246,
580.923,1656.7186,
578.013,1630.8224,
575.102,1625.0222,
572.192,1646.2402,
569.281,1676.4074,
566.371,1640.4067,
563.460,1638.9914,
560.549,1669.1117,
557.639,1692.8924,
554.728,1674.1214,
551.818,1678.0229,
548.907,1717.268,
545.996,1724.3795,
543.086,1697.5461,
540.175,1700.6606,
537.265,1731.2947,
534.354,1730.3327,
531.444,1723.1695,
528.533,1738.5856,
525.622,1762.64,
522.712,1774.5493,
519.801,1782.3119,
516.891,1790.6921,
513.980,1804.6294,
511.070,1810.8054,
508.159,1831.9777,
505.248,1865.6435,
502.338,1903.7169,
499.427,1898.314,
496.517,1921.7639,
493.606,1947.9413,
490.695,1959.8423,
487.785,1945.2163,
484.874,1973.8937,
481.964,1965.543,
479.053,1936.4939,
476.143,1964.1405,
473.232,1948.6093,
470.321,1958.4186,
467.411,1963.4652,
464.500,1927.4956,
461.590,1951.9993,
458.679,1967.1294,
455.769,1954.026,
452.858,1915.8857,
449.947,1964.0134,
447.037,1989.6508,
444.126,1992.4811,
441.216,1985.6957,
438.305,2019.2207,
435.395,2045.511,
432.484,2057.7085,
429.573,2058.165,
426.663,2055.1244,
423.752,2005.3582,
420.842,1901.6715,
417.931,1796.7645,
415.020,1771.7387,
412.110,1827.9408,
409.199,1895.8187,
406.289,1980.542,
403.378,2089.6778,
400.468,2031.4662,
397.557,2019.0448,
394.646,2035.6488,
391.736,2065.7201,
388.825,2092.1182,
385.915,2073.2653,
383.004,2051.0172,
380.094,2055.8712,
377.183,2095,
374.272,2159.6103,
371.362,2210.1729,
368.451,2221.0969,
365.541,2191.826,
362.630,2192.6148,
359.719,2213.4895,
356.809,2244.7876,
353.898,2226.8164,
350.988,2229.4698,
348.077,2235.0038,
345.167,2232.8372,
342.256,2232.0901,
339.345,2232.4064,
336.435,2245.3667,
333.524,2276.3718,
330.614,2228.6818,
327.703,2226.1967,
324.793,2243.0308,
321.882,2257.893,
318.971,2265.3275,
316.061,2265.9217,
313.150,2270.8036,
310.240,2293.067,
307.329,2309.597,
304.418,2309.9476,
301.508,2295.9827,
298.597,2270.0681,
295.687,2303.0915,
292.776,2303.2082,
289.866,2296.5339,
286.955,2375.5775,
284.044,2433.68,
281.134,2496.0523,
278.223,2561.1563,
275.313,2597.2622,
272.402,2597.3233,
269.492,2600.43,
266.581,2615.3541,
263.670,2566.097,
260.760,2596.8,
257.849,2645.5738,
254.939,2667.5903,
252.028,2702.6196,
249.117,2723.6411,
246.207,2735.9056,
243.296,2747.6182,
240.386,2742.3451,
237.475,2728.8861,
234.565,2709.7691,
231.654,2690.0487,
228.743,2661.1342,
225.833,2630.3742,
222.922,2601.5692,
220.012,2595.0122,
217.101,2594.3471,
214.191,2593.4708,
211.280,2585.4687,
208.369,2573.4372,
205.459,2543.5207,
202.548,2519.5352,
199.638,2592.8258,
196.727,2573.302,
193.816,2587.309,
190.906,2675.3197,
187.995,2573.9563,
185.085,2573.8663,
182.174,2618.1639,
179.264,2637.6785,
176.353,2611.6807,
173.442,2592.612,
170.532,2583.5147,
167.621,2554.6757,
164.711,2468.0398,
161.800,2388.519,
158.890,2364.0483,
155.979,2138.9742,
153.068,1949.9068,
150.158,1785.62,
147.247,1566.6446,
144.337,1269.7255,
141.426,971.17776,
138.516,705.928,
135.605,510.31466,
132.694,353.74063,
129.784,232.84748,
126.873,150.60755,
123.963,97.454511,
121.052,63.642637,
118.141,47.936793,
115.231,40.058726,
112.320,36.027728,
109.410,32.966026,
106.499,22.995853,
103.589,20.875,
100.678,19.516891,
97.767,15.962204,
94.857,11.717066,
91.946,11.487443,
89.036,13.084715,
86.125,8.1202777,
83.215,8.4677611,
80.304,8.4384039,
77.393,4.1893843,
74.483,15.012294,
71.572,14.352662,
68.662,3.290605,
65.751,7.5293115,
62.840,9.356702,
59.930,8.5639966,
57.019,3.6284227,
54.109,5.8608042,
51.198,8.1766093,
48.288,8.7900634,
45.377,-1.7606076,
42.466,-0.76614859,
39.556,6.5296443,
36.645,4.4230736,
33.735,1.7980061,
30.824,1.2003218,
27.914,5.4073733,
25.003,9.6108249,
22.092,11.229191,
19.182,10.126711,
16.271,17.821103,
13.361,117.81033,
10.450,276.95618,
7.539,428.49061,
4.629,360.47941,
1.718,120.68009,
-1.192,-333.161,
-4.103,-312.12797,
-7.013,-182.07918,
-9.924,-1.125,
