,PLBCD1~1,
Wavenumbers [1/cm],Intensity,
3014.167,1.75,
3011.256,-1.1499785,
3008.346,100.23974,
3005.435,122.44258,
3002.525,118.20246,
2999.614,130.06823,
2996.704,151.29846,
2993.793,140.5023,
2990.882,141.57441,
2987.972,161.80045,
2985.061,163.32634,
2982.151,144.82394,
2979.240,151.75,
2976.329,163.02048,
2973.419,184.82702,
2970.508,187.5333,
2967.598,196.36767,
2964.687,189.22758,
2961.777,203.33988,
2958.866,191.73812,
2955.955,202.43806,
2953.045,201.48378,
2950.134,208.38849,
2947.224,218.94928,
2944.313,224.40171,
2941.403,201.02327,
2938.492,226.03726,
2935.581,226.04571,
2932.671,232.34654,
2929.760,235.06542,
2926.850,245.16805,
2923.939,246.46962,
2921.028,243.89702,
2918.118,244.51323,
2915.207,261.33216,
2912.297,243.79654,
2909.386,263.13687,
2906.476,251.30057,
2903.565,264.81519,
2900.654,275.16048,
2897.744,247.88829,
2894.833,268.64672,
2891.923,264.09929,
2889.012,255.83093,
2886.102,271.60269,
2883.191,286.74056,
2880.280,328.58255,
2877.370,369.52322,
2874.459,402.18987,
2871.549,331.39465,
2868.638,317.15825,
2865.727,287.28073,
2862.817,295.92113,
2859.906,282.75,
2856.996,292.70471,
2854.085,286.90543,
2851.175,288.60545,
2848.264,302.86799,
2845.353,266.79313,
2842.443,276.33677,
2839.532,285.42166,
2836.622,283.68815,
2833.711,283.00903,
2830.801,285.95147,
2827.890,296.66608,
2824.979,283.47807,
2822.069,297.60216,
2819.158,282.84973,
2816.248,299.17473,
2813.337,301.56463,
2810.427,305.71282,
2807.516,292.22484,
2804.605,308.01924,
2801.695,313.96051,
2798.784,305.04569,
2795.874,301.1748,
2792.963,304.75,
2790.052,299.75107,
2787.142,301.88162,
2784.231,302.20187,
2781.321,310.93282,
2778.410,301.65482,
2775.500,306.51586,
2772.589,299.90443,
2769.678,309.67832,
2766.768,302.63348,
2763.857,314.85597,
2760.947,324.77522,
2758.036,313.5015,
2755.126,326.94017,
2752.215,317.11351,
2749.304,321.70682,
2746.394,323.50198,
2743.483,321.10005,
2740.573,300.99111,
2737.662,322.52663,
2734.751,327.33244,
2731.841,333.53388,
2728.930,324.24142,
2726.020,331.96412,
2723.109,326.63658,
2720.199,332.61248,
2717.288,339.55657,
2714.377,327.94606,
2711.467,349.96319,
2708.556,339.97358,
2705.646,336.28522,
2702.735,359.91237,
2699.825,350.85907,
2696.914,351.41683,
2694.003,337.39227,
2691.093,342.19645,
2688.182,356.49667,
2685.272,350.02454,
2682.361,360.80895,
2679.450,361.12035,
2676.540,358.62806,
2673.629,350.42714,
2670.719,355.38494,
2667.808,361.70136,
2664.898,371.20428,
2661.987,374.84977,
2659.076,351.78449,
2656.166,362.58977,
2653.255,379.11905,
2650.345,381.18194,
2647.434,372.89347,
2644.524,395.36391,
2641.613,395.43573,
2638.702,370.16031,
2635.792,399.99926,
2632.881,402.28577,
2629.971,396.26005,
2627.060,389.25094,
2624.149,389.55936,
2621.239,385.22332,
2618.328,385.04671,
2615.418,395.4,
2612.507,393.44173,
2609.597,410.45459,
2606.686,425.58132,
2603.775,421.71032,
2600.865,403.63731,
2597.954,427.88755,
2595.044,411.41076,
2592.133,423.75648,
2589.223,429.85842,
2586.312,420.55403,
2583.401,422.83032,
2580.491,418.23081,
2577.580,441.72029,
2574.670,422.64305,
2571.759,428.55821,
2568.848,419.28583,
2565.938,420.79755,
2563.027,427.82275,
2560.117,443.08649,
2557.206,437.57288,
2554.296,453.23513,
2551.385,446.36996,
2548.474,439.34256,
2545.564,446.49676,
2542.653,465.1292,
2539.743,452.83626,
2536.832,443.48458,
2533.922,469.43462,
2531.011,448.10014,
2528.100,445.34931,
2525.190,454.65574,
2522.279,468.46861,
2519.369,460.03318,
2516.458,447.63456,
2513.548,462.97699,
2510.637,459.68852,
2507.726,462.49722,
2504.816,465.12429,
2501.905,446.95305,
2498.995,477.82494,
2496.084,488.00432,
2493.173,476.61854,
2490.263,486.92967,
2487.352,495.58147,
2484.442,472.16755,
2481.531,489.70204,
2478.621,491.6078,
2475.710,506.58898,
2472.799,486.98317,
2469.889,494.62812,
2466.978,507.40971,
2464.068,505.00395,
2461.157,516.01754,
2458.247,506.61762,
2455.336,510.34492,
2452.425,496.8113,
2449.515,519.44856,
2446.604,536.63481,
2443.694,520.54026,
2440.783,498.79504,
2437.872,518.3699,
2434.962,532.64862,
2432.051,525.77467,
2429.141,521.19122,
2426.230,518.81519,
2423.320,540.22137,
2420.409,543.1282,
2417.498,555.11799,
2414.588,545.58277,
2411.677,558.10455,
2408.767,538.72638,
2405.856,552.91894,
2402.946,553.84473,
2400.035,549.14437,
2397.124,559.53609,
2394.214,564.4524,
2391.303,563.89363,
2388.393,553.80579,
2385.482,526.80748,
2382.571,522.19236,
2379.661,546.61043,
2376.750,569.42968,
2373.840,575.12191,
2370.929,604.40345,
2368.019,591.47354,
2365.108,578.54058,
2362.197,577.36095,
2359.287,613.27146,
2356.376,606.77818,
2353.466,600.58394,
2350.555,598.86026,
2347.645,601.46127,
2344.734,608.35832,
2341.823,606.83292,
2338.913,621.23658,
2336.002,622.73813,
2333.092,627.71513,
2330.181,634.18737,
2327.270,616.57508,
2324.360,642.54011,
2321.449,630.54931,
2318.539,623.79282,
2315.628,633.42186,
2312.718,637.63326,
2309.807,641.86193,
2306.896,637.56065,
2303.986,655.96424,
2301.075,647.28192,
2298.165,653.73092,
2295.254,617.59018,
2292.344,654.48441,
2289.433,660.39091,
2286.522,644.509,
2283.612,655.07146,
2280.701,651.63343,
2277.791,660.70993,
2274.880,661.46197,
2271.969,660.4002,
2269.059,680.0307,
2266.148,684.32262,
2263.238,692.94304,
2260.327,705.61205,
2257.417,701.615,
2254.506,696.36824,
2251.595,690.18641,
2248.685,682.27693,
2245.774,700.67275,
2242.864,741.58294,
2239.953,722.01902,
2237.043,715.08785,
2234.132,729.76294,
2231.221,730.93342,
2228.311,725.14047,
2225.400,757.2583,
2222.490,718.37568,
2219.579,767.93763,
2216.669,764.71184,
2213.758,776.01144,
2210.847,764.04725,
2207.937,763.62785,
2205.026,772.74971,
2202.116,776.03026,
2199.205,765.6373,
2196.294,773.68399,
2193.384,776.0395,
2190.473,803.2054,
2187.563,814.779,
2184.652,820.44878,
2181.742,816.09058,
2178.831,821.62165,
2175.920,867.05967,
2173.010,889.47506,
2170.099,901.88195,
2167.189,921.0442,
2164.278,967.61935,
2161.368,1012.0345,
2158.457,1045.3753,
2155.546,1069.2039,
2152.636,1118.7712,
2149.725,1138.2466,
2146.815,1183.215,
2143.904,1208.1626,
2140.993,1248.5277,
2138.083,1287.6801,
2135.172,1314.1282,
2132.262,1293.7007,
2129.351,1287.0984,
2126.441,1285.5655,
2123.530,1254.5816,
2120.619,1228.6037,
2117.709,1151.1031,
2114.798,1117.3191,
2111.888,1060.3391,
2108.977,1013.942,
2106.067,1030.5013,
2103.156,979.68088,
2100.245,967.70671,
2097.335,903.20549,
2094.424,925.45797,
2091.514,893.10753,
2088.603,890.42743,
2085.692,888.52322,
2082.782,877.73401,
2079.871,873.57147,
2076.961,876.55627,
2074.050,894.1197,
2071.140,879.01458,
2068.229,866.92708,
2065.318,870.83625,
2062.408,878.58358,
2059.497,887.34523,
2056.587,877.9478,
2053.676,868.21707,
2050.766,874.13415,
2047.855,872.52217,
2044.944,863.95193,
2042.034,863.01595,
2039.123,864.50758,
2036.213,847.38336,
2033.302,860.09776,
2030.391,870.83455,
2027.481,876.98169,
2024.570,869.32165,
2021.660,902.56222,
2018.749,869.00369,
2015.839,896.58005,
2012.928,875.03692,
2010.017,890.80212,
2007.107,880.05092,
2004.196,872.79763,
2001.286,879.58391,
1998.375,886.9252,
1995.465,885.60357,
1992.554,900.52633,
1989.643,853.51275,
1986.733,861.46228,
1983.822,888.22341,
1980.912,866.97774,
1978.001,859.9114,
1975.090,849.12558,
1972.180,886.26459,
1969.269,886.31312,
1966.359,881.26374,
1963.448,856.41577,
1960.538,894.87511,
1957.627,884.45896,
1954.716,856.4969,
1951.806,857.69388,
1948.895,875.36741,
1945.985,868.05229,
1943.074,862.9306,
1940.164,890.34601,
1937.253,863.6851,
1934.342,858.37406,
1931.432,845.04022,
1928.521,867.61011,
1925.611,859.75681,
1922.700,823.21547,
1919.790,831.39145,
1916.879,851.42476,
1913.968,857.74385,
1911.058,861.59986,
1908.147,884.16311,
1905.237,859.95588,
1902.326,850.15742,
1899.415,835.03049,
1896.505,834.70172,
1893.594,839.64945,
1890.684,859.26634,
1887.773,862.06029,
1884.863,877.14408,
1881.952,855.45529,
1879.041,860.14928,
1876.131,878.78006,
1873.220,858.21451,
1870.310,890.95173,
1867.399,852.42173,
1864.489,869.13944,
1861.578,882.48598,
1858.667,915.37577,
1855.757,883.39439,
1852.846,846.31406,
1849.936,892.21445,
1847.025,918.45315,
1844.114,921.0935,
1841.204,916.67308,
1838.293,921.26247,
1835.383,933.97048,
1832.472,918.72565,
1829.562,917.19167,
1826.651,945.16066,
1823.740,938.19059,
1820.830,935.83664,
1817.919,946.52252,
1815.009,943.6126,
1812.098,935.5689,
1809.188,920.68027,
1806.277,929.52868,
1803.366,970.05128,
1800.456,931.0582,
1797.545,971.30316,
1794.635,976.23399,
1791.724,969.28403,
1788.813,959.15951,
1785.903,973.74235,
1782.992,923.67697,
1780.082,907.79571,
1777.171,879.08405,
1774.261,867.87972,
1771.350,899.55077,
1768.439,986.45237,
1765.529,996.0241,
1762.618,1012.48,
1759.708,1008.489,
1756.797,1010.197,
1753.887,1033.0328,
1750.976,1033.4948,
1748.065,1041.8821,
1745.155,1031.5888,
1742.244,1046.5733,
1739.334,1043.3171,
1736.423,1060.4789,
1733.512,1081.6647,
1730.602,1108.1905,
1727.691,1082.7406,
1724.781,1051.5124,
1721.870,1071.5025,
1718.960,1093.3724,
1716.049,1071.5808,
1713.138,1089.8349,
1710.228,1075.4738,
1707.317,1074.5191,
1704.407,1115.1779,
1701.496,1128.8655,
1698.586,1122.3581,
1695.675,1115.2,
1692.764,1146.9385,
1689.854,1135.3563,
1686.943,1168.5696,
1684.033,1144.3957,
1681.122,1214.5265,
1678.211,1216.7405,
1675.301,1165.9073,
1672.390,1244.8068,
1669.480,1263.9826,
1666.569,1293.6641,
1663.659,1363.9334,
1660.748,1315.4249,
1657.837,1350.9966,
1654.927,1405.766,
1652.016,1366.1107,
1649.106,1421.5089,
1646.195,1452.0617,
1643.285,1464.1575,
1640.374,1439.8371,
1637.463,1492.1191,
1634.553,1567.3263,
1631.642,1606.0214,
1628.732,1631.0759,
1625.821,1685.7997,
1622.911,1761.3217,
1620.000,1841.7295,
1617.089,1929.9789,
1614.179,2087.2378,
1611.268,2231.3592,
1608.358,2368.2884,
1605.447,2458.665,
1602.536,2534.5734,
1599.626,2533.3105,
1596.715,2454.6963,
1593.805,2480.7346,
1590.894,2470.6593,
1587.984,2426.3115,
1585.073,2356.7896,
1582.162,2391.6687,
1579.252,2345.1055,
1576.341,2300.7075,
1573.431,2258.2903,
1570.520,2196.7724,
1567.610,2195.6522,
1564.699,2227.5761,
1561.788,2181.4125,
1558.878,2132.4878,
1555.967,2110.1794,
1553.057,2068.3883,
1550.146,2056.9682,
1547.235,2023.7885,
1544.325,1985.4394,
1541.414,1963.7886,
1538.504,1953.2638,
1535.593,1919.1791,
1532.683,1896.5318,
1529.772,1884.7192,
1526.861,1825.6219,
1523.951,1786.041,
1521.040,1768.2412,
1518.130,1761.9817,
1515.219,1782.7495,
1512.309,1790.5923,
1509.398,1762.9724,
1506.487,1770.9471,
1503.577,1743.9041,
1500.666,1690.2197,
1497.756,1718.9705,
1494.845,1730.4682,
1491.934,1651.7217,
1489.024,1643.0592,
1486.113,1655.731,
1483.203,1621.2233,
1480.292,1604.0223,
1477.382,1607.4077,
1474.471,1603.3783,
1471.560,1602.4757,
1468.650,1591.1343,
1465.739,1535.1513,
1462.829,1504.3627,
1459.918,1507.7224,
1457.008,1544.2427,
1454.097,1549.407,
1451.186,1498.7887,
1448.276,1488.0916,
1445.365,1490.7453,
1442.455,1471.4681,
1439.544,1562.3276,
1436.633,1522.4094,
1433.723,1492.8595,
1430.812,1529.6366,
1427.902,1539.4196,
1424.991,1483.5016,
1422.081,1458.8131,
1419.170,1428.236,
1416.259,1452.9123,
1413.349,1427.2746,
1410.438,1444.7412,
1407.528,1469.6248,
1404.617,1480.8599,
1401.707,1477.9207,
1398.796,1498.2394,
1395.885,1516.8287,
1392.975,1501.6875,
1390.064,1511.5224,
1387.154,1531.3382,
1384.243,1513.7519,
1381.332,1567.0619,
1378.422,1609.2186,
1375.511,1598.9141,
1372.601,1622.7108,
1369.690,1671.04,
1366.780,1681.9181,
1363.869,1698.7325,
1360.958,1740.4017,
1358.048,1808.5882,
1355.137,1883.2277,
1352.227,1914.7173,
1349.316,1932.0797,
1346.406,1985.3542,
1343.495,2034.203,
1340.584,2072.2502,
1337.674,2064.1804,
1334.763,2095.7845,
1331.853,2175.5264,
1328.942,2147.6188,
1326.032,2201.6591,
1323.121,2208.0813,
1320.210,2227.0595,
1317.300,2263.13,
1314.389,2276.6388,
1311.479,2291.9732,
1308.568,2316.3908,
1305.657,2351.7126,
1302.747,2466.1931,
1299.836,2554.2586,
1296.926,2553.0574,
1294.015,2602.7008,
1291.105,2634.6884,
1288.194,2740.9891,
1285.283,2788.2301,
1282.373,2831.5546,
1279.462,2890.1806,
1276.552,2949.1596,
1273.641,3009.2205,
1270.731,3061.0425,
1267.820,3082.475,
1264.909,3103.54,
1261.999,3016.7806,
1259.088,3072.4199,
1256.178,3008.9464,
1253.267,2960.1574,
1250.356,2914.8873,
1247.446,2859.4393,
1244.535,2808.4599,
1241.625,2730.2502,
1238.714,2641.3432,
1235.804,2616.6335,
1232.893,2597.4958,
1229.982,2613.8369,
1227.072,2527.8323,
1224.161,2480.5653,
1221.251,2441.4806,
1218.340,2413.9069,
1215.430,2397.593,
1212.519,2381.7893,
1209.608,2356.6381,
1206.698,2335.8139,
1203.787,2348.6445,
1200.877,2370.8087,
1197.966,2387.8927,
1195.055,2485.1671,
1192.145,2556.5981,
1189.234,2643.522,
1186.324,2658.3842,
1183.413,2660.0647,
1180.503,2669.5617,
1177.592,2633.1034,
1174.681,2605.2055,
1171.771,2518.0082,
1168.860,2485.857,
1165.950,2518.2267,
1163.039,2478.5602,
1160.129,2480.1645,
1157.218,2481.8087,
1154.307,2459.7005,
1151.397,2454.5277,
1148.486,2469.2543,
1145.576,2441.5528,
1142.665,2390.9418,
1139.754,2425.8042,
1136.844,2406.0376,
1133.933,2348.0025,
1131.023,2325.1919,
1128.112,2325.3944,
1125.202,2315.4456,
1122.291,2346.1341,
1119.380,2369.4815,
1116.470,2342.1231,
1113.559,2395.1972,
1110.649,2429.4308,
1107.738,2429.6411,
1104.828,2433.8169,
1101.917,2450.4541,
1099.006,2449.5747,
1096.096,2448.8038,
1093.185,2449.6818,
1090.275,2440.848,
1087.364,2438.75,
1084.453,2423.001,
1081.543,2422.582,
1078.632,2439.6304,
1075.722,2450.8963,
1072.811,2477.034,
1069.901,2410.6662,
1066.990,2484.1581,
1064.079,2506.1526,
1061.169,2524.8713,
1058.258,2551.4546,
1055.348,2575.511,
1052.437,2594.3738,
1049.527,2608.5892,
1046.616,2630.3099,
1043.705,2670.5175,
1040.795,2645.3552,
1037.884,2631.8303,
1034.974,2652.1572,
1032.063,2671.6501,
1029.153,2663.2041,
1026.242,2675.3135,
1023.331,2686.5826,
1020.421,2712.4514,
1017.510,2728.3528,
1014.600,2734.0188,
1011.689,2739.741,
1008.778,2752.389,
1005.868,2768.3369,
1002.957,2833.7238,
1000.047,2968.2381,
997.136,3069.3713,
994.226,3122.919,
991.315,3123.7871,
988.404,3072.6979,
985.494,3020.1362,
982.583,2992.7264,
979.673,2977.7753,
976.762,2967.879,
973.852,2969.0541,
970.941,2982.5668,
968.030,2994.3916,
965.120,2969.7214,
962.209,2962.901,
959.299,2990.7882,
956.388,3019.5489,
953.477,3006.0332,
950.567,2985.004,
947.656,3029.962,
944.746,3001.0771,
941.835,3028.0935,
938.925,3075.5491,
936.014,3058.3072,
933.103,3015.1005,
930.193,3001.9534,
927.282,2989.5126,
924.372,2966.6812,
921.461,2919.566,
918.551,2877.0271,
915.640,2840.7523,
912.729,2825.5323,
909.819,2844.6371,
906.908,2828.631,
903.998,2834.9083,
901.087,2839.296,
898.176,2884.6519,
895.266,2935.6066,
892.355,2946.6189,
889.445,2972.6361,
886.534,2987.7777,
883.624,2999.4968,
880.713,3039.9853,
877.802,3003.1873,
874.892,2848.8946,
871.981,2759.1323,
869.071,2690.6284,
866.160,2753.9556,
863.250,2871.0982,
860.339,2955.3414,
857.428,2964.8194,
854.518,2938.065,
851.607,2879.8201,
848.697,2816.7881,
845.786,2818.6983,
842.875,2865.4706,
839.965,2926.0709,
837.054,3010.4571,
834.144,3073.4422,
831.233,3032.4205,
828.323,3041.3592,
825.412,3046.5196,
822.501,2975.0903,
819.591,2943.6871,
816.680,2886.6602,
813.770,2899.6896,
810.859,2874.6871,
807.949,2830.2622,
805.038,2843.0575,
802.127,2829.0644,
799.217,2827.75,
796.306,2822.6419,
793.396,2821.0859,
790.485,2828.1193,
787.574,2839.6913,
784.664,2811.8075,
781.753,2802.7241,
778.843,2849.7582,
775.932,2882.8491,
773.022,2847.9487,
770.111,2881.4694,
767.200,2870.0464,
764.290,2868.6394,
761.379,2880.9906,
758.469,2887.333,
755.558,2851.5555,
752.648,2845.0387,
749.737,2832.6526,
746.826,2826.75,
743.916,2832.3345,
741.005,2837.121,
738.095,2751.8739,
735.184,2748.9006,
732.274,2759.1126,
729.363,2793.3209,
726.452,2851.2583,
723.542,2870.6837,
720.631,2839.6394,
717.721,2876.7233,
714.810,2916.6988,
711.899,2906.8787,
708.989,2830.2208,
706.078,2886.6425,
703.168,2856.4229,
700.257,2826.0997,
697.347,2823.5326,
694.436,2821.8117,
691.525,2787.248,
688.615,2775.9765,
685.704,2776.7719,
682.794,2799.4732,
679.883,2858.9839,
676.973,2819.7167,
674.062,2823.8736,
671.151,2830.3117,
668.241,2824.7468,
665.330,2809.771,
662.420,2831.3368,
659.509,2845.9089,
656.598,2833.5745,
653.688,2816.1912,
650.777,2837.264,
647.867,2822.9301,
644.956,2804.8904,
642.046,2779.1661,
639.135,2767.9073,
636.224,2813.8694,
633.314,2837.6875,
630.403,2836.6555,
627.493,2867.0849,
624.582,2926.0454,
621.672,2936.3414,
618.761,2935.9901,
615.850,2935.199,
612.940,2970.2696,
610.029,3035.3304,
607.119,3014.8,
604.208,3037.6005,
601.297,3043.2633,
598.387,3049.642,
595.476,3078.0127,
592.566,3091.3929,
589.655,3069.1302,
586.745,3026.2401,
583.834,2979.4058,
580.923,2950.0438,
578.013,2998.6973,
575.102,2990.5272,
572.192,2982.6103,
569.281,2988.0328,
566.371,2939.5101,
563.460,2994.7148,
560.549,3010.0044,
557.639,3009.1497,
554.728,3032.385,
551.818,2994.9298,
548.907,2976.9994,
545.996,2983.1913,
543.086,3011.3059,
540.175,3051.0168,
537.265,3010.2932,
534.354,2997.7635,
531.444,3014.5683,
528.533,3047.5293,
525.622,3044.4255,
522.712,3090.47,
519.801,3102.4198,
516.891,3081.5143,
513.980,3124.8749,
511.070,3121.7065,
508.159,3152.1796,
505.248,3199.2652,
502.338,3232.2185,
499.427,3282.3876,
496.517,3326.8611,
493.606,3348.3946,
490.695,3345.6757,
487.785,3359.532,
484.874,3337.1935,
481.964,3342.4375,
479.053,3365.0728,
476.143,3349.7136,
473.232,3330.7649,
470.321,3332.5084,
467.411,3346.8152,
464.500,3361.9439,
461.590,3369.6013,
458.679,3352.4897,
455.769,3350.6128,
452.858,3385.363,
449.947,3429.671,
447.037,3426.6148,
444.126,3415.7924,
441.216,3420.6716,
438.305,3477.8165,
435.395,3468.0478,
432.484,3461.2505,
429.573,3453.0349,
426.663,3402.8656,
423.752,3221.6056,
420.842,2938.7846,
417.931,2710.772,
415.020,2770.6823,
412.110,3213.1811,
409.199,3474.0164,
406.289,3570.8626,
403.378,3549.5118,
400.468,3479.2043,
397.557,3451.6085,
394.646,3489.8453,
391.736,3607.9331,
388.825,3644.8904,
385.915,3674.3768,
383.004,3688.4657,
380.094,3683.8633,
377.183,3705.6851,
374.272,3741.6029,
371.362,3765.2784,
368.451,3766.0812,
365.541,3837.3821,
362.630,3843.6402,
359.719,3837.7814,
356.809,3847.5299,
353.898,3810.8387,
350.988,3847.9463,
348.077,3880.4898,
345.167,3863.2798,
342.256,3873.7387,
339.345,3876.75,
336.435,3897.847,
333.524,3950.0489,
330.614,3864.356,
327.703,3854.179,
324.793,3877.7415,
321.882,3900.6058,
318.971,3841.1304,
316.061,3867.1398,
313.150,3916.4429,
310.240,3918.6692,
307.329,3924.4671,
304.418,3936.781,
301.508,3950.9162,
298.597,3959.0607,
295.687,4017.3154,
292.776,4080.5835,
289.866,4139.0016,
286.955,4178.154,
284.044,4231.82,
281.134,4262.7123,
278.223,4275.8336,
275.313,4331.0977,
272.402,4352.6254,
269.492,4346.759,
266.581,4314.9138,
263.670,4261.2456,
260.760,4338.7342,
257.849,4460.1911,
254.939,4564.4024,
252.028,4526.6624,
249.117,4557.4327,
246.207,4597.1654,
243.296,4540.7985,
240.386,4577.1945,
237.475,4593.9872,
234.565,4570.1407,
231.654,4477.382,
228.743,4439.9136,
225.833,4412.4199,
222.922,4380.1917,
220.012,4389.6629,
217.101,4382.445,
214.191,4359.9477,
211.280,4320.6648,
208.369,4315.0587,
205.459,4324.929,
202.548,4339.1177,
199.638,4323.879,
196.727,4324.7835,
193.816,4334.0715,
190.906,4348.7246,
187.995,4348.0006,
185.085,4347.75,
182.174,4365.5754,
179.264,4431.3471,
176.353,4407.9926,
173.442,4365.371,
170.532,4314.6175,
167.621,4261.9863,
164.711,4180.4773,
161.800,4036.4358,
158.890,3792.4481,
155.979,3532.1996,
153.068,3247.8316,
150.158,2928.1031,
147.247,2524.614,
144.337,2084.5525,
141.426,1651.1807,
138.516,1245.4203,
135.605,874.03583,
132.694,591.7911,
129.784,389.63904,
126.873,265.92157,
123.963,183.84299,
121.052,125.73567,
118.141,87.898865,
115.231,77.802015,
112.320,63.582738,
109.410,48.522803,
106.499,42.113406,
103.589,35.70771,
100.678,29.577026,
97.767,23.889526,
94.857,23.057011,
91.946,27.58733,
89.036,34.072613,
86.125,29.817381,
83.215,28.75,
80.304,26.595106,
77.393,20.221576,
74.483,17.784595,
71.572,14.575887,
68.662,11.02707,
65.751,13.852874,
62.840,15.713404,
59.930,15.813569,
57.019,12.288159,
54.109,11.75,
51.198,9.6387351,
48.288,4.8066244,
45.377,11.840405,
42.466,16.398877,
39.556,17.598814,
36.645,10.576912,
33.735,9.2692485,
30.824,8.8664521,
27.914,6.0617511,
25.003,5.75,
22.092,4.4583818,
19.182,1.0635141,
16.271,-19.92119,
13.361,-93.575986,
10.450,-242.62374,
7.539,-587.59153,
4.629,-943.15736,
1.718,-1143.4997,
-1.192,-984.55076,
-4.103,-623.95509,
-7.013,-281.72898,
-9.924,-1.25,
