,PLCDF0~1,
Wavenumbers [1/cm],Intensity,
3014.167,2.625,
3011.256,-3.6249463,
3008.346,34.081476,
3005.435,48.126769,
3002.525,46.322427,
2999.614,45.566591,
2996.704,52.359025,
2993.793,64.510368,
2990.882,59.449412,
2987.972,67.609865,
2985.061,72.605306,
2982.151,73.81827,
2979.240,67.574617,
2976.329,83.149571,
2973.419,77.225258,
2970.508,75.258287,
2967.598,69.863956,
2964.687,76.057744,
2961.777,83.060953,
2958.866,73.286223,
2955.955,86.695789,
2953.045,93.54223,
2950.134,92.773678,
2947.224,86.881219,
2944.313,99.669872,
2941.403,99.410585,
2938.492,110.51933,
2935.581,94.523227,
2932.671,106.98119,
2929.760,97.248092,
2926.850,85.72237,
2923.939,116.74651,
2921.028,118.56036,
2918.118,110.84288,
2915.207,96.568074,
2912.297,117.54461,
2909.386,109.18706,
2906.476,108.9424,
2903.565,93.058317,
2900.654,114.55525,
2897.744,85.763294,
2894.833,83.017005,
2891.923,88.762911,
2889.012,83.046964,
2886.102,69.853374,
2883.191,30.664649,
2880.280,-41.786514,
2877.370,-156.96204,
2874.459,-236.31837,
2871.549,-136.88699,
2868.638,28.224923,
2865.727,55.001856,
2862.817,82.625,
2859.906,106.88997,
2856.996,92.593299,
2854.085,102.26576,
2851.175,90.935229,
2848.264,109.39483,
2845.353,124.53873,
2842.443,123.42013,
2839.532,111.32659,
2836.622,104.90039,
2833.711,113.94368,
2830.801,121.41618,
2827.890,117.06382,
2824.979,134.53893,
2822.069,122.61363,
2819.158,129.98619,
2816.248,121.21185,
2813.337,129.96524,
2810.427,131.66908,
2807.516,129.78328,
2804.605,124.85096,
2801.695,128.49342,
2798.784,127.625,
2795.874,123.19492,
2792.963,131.05372,
2790.052,140.62371,
2787.142,125.07231,
2784.231,133.52716,
2781.321,138.18498,
2778.410,127.89024,
2775.500,136.41051,
2772.589,115.89487,
2769.678,124.23252,
2766.768,128.30656,
2763.857,130.41498,
2760.947,126.57457,
2758.036,156.74625,
2755.126,122.13996,
2752.215,132.86121,
2749.304,131.22031,
2746.394,135.83669,
2743.483,142.12498,
2740.573,131.54308,
2737.662,135.85872,
2734.751,146.41622,
2731.841,136.13782,
2728.930,143.45987,
2726.020,131.18634,
2723.109,124.09942,
2720.199,137.84062,
2717.288,133.18704,
2714.377,139.07484,
2711.467,143.57555,
2708.556,155.10374,
2705.646,149.55456,
2702.735,141.96521,
2699.825,145.20135,
2696.914,154.57774,
2694.003,133.55182,
2691.093,142.16051,
2688.182,138.15241,
2685.272,131.50124,
2682.361,143.20142,
2679.450,147.74845,
2676.540,128.78759,
2673.629,139.27969,
2670.719,149.76364,
2667.808,149.77091,
2664.898,160.66391,
2661.987,148.89138,
2659.076,153.3362,
2656.166,160.09254,
2653.255,150.40561,
2650.345,170.06602,
2647.434,156.36778,
2644.524,154.01109,
2641.613,153.93927,
2638.702,150.67234,
2635.792,164.21922,
2632.881,157.16077,
2629.971,164.22237,
2627.060,151.45719,
2624.149,167.05624,
2621.239,172.37055,
2618.328,169.41306,
2615.418,166.28409,
2612.507,167.1428,
2609.597,169.25773,
2606.686,163.74148,
2603.775,178.06548,
2600.865,180.38951,
2597.954,173.24169,
2595.044,175.53643,
2592.133,181.56116,
2589.223,168.1671,
2586.312,179.94159,
2583.401,174.82937,
2580.491,174.80288,
2577.580,166.64811,
2574.670,183.39237,
2571.759,192.82705,
2568.848,183.10008,
2565.938,177.38685,
2563.027,178.40458,
2560.117,167.625,
2557.206,178.47371,
2554.296,165.19937,
2551.385,183.75706,
2548.474,176.14321,
2545.564,187.0552,
2542.653,186.16191,
2539.743,180.67429,
2536.832,192.48295,
2533.922,181.92462,
2531.011,195.9504,
2528.100,193.75395,
2525.190,204.20615,
2522.279,188.23467,
2519.369,199.11566,
2516.458,191.73336,
2513.548,186.19776,
2510.637,182.97762,
2507.726,196.44283,
2504.816,193.00156,
2501.905,193.69756,
2498.995,203.38612,
2496.084,201.77135,
2493.173,204.4144,
2490.263,199.43403,
2487.352,209.33287,
2484.442,206.61214,
2481.531,208.19955,
2478.621,205.23165,
2475.710,204.625,
2472.799,208.32451,
2469.889,203.62774,
2466.978,194.56307,
2464.068,211.99013,
2461.157,204.77997,
2458.247,213.88976,
2455.336,209.73262,
2452.425,213.5401,
2449.515,216.72896,
2446.604,222.15728,
2443.694,226.34624,
2440.783,227.76689,
2437.872,220.95318,
2434.962,225.94759,
2432.051,214.16201,
2429.141,206.93096,
2426.230,228.93003,
2423.320,243.95391,
2420.409,234.54157,
2417.498,237.24016,
2414.588,225.45013,
2411.677,235.97955,
2408.767,221.91338,
2405.856,239.12972,
2402.946,247.625,
2400.035,239.53344,
2397.124,242.52339,
2394.214,242.48821,
2391.303,223.33774,
2388.393,221.86454,
2385.482,218.80125,
2382.571,198.96687,
2379.661,206.4155,
2376.750,240.8318,
2373.840,240.07506,
2370.929,249.48421,
2368.019,263.3122,
2365.108,249.67212,
2362.197,252.58394,
2359.287,272.19659,
2356.376,254.66198,
2353.466,250.70213,
2350.555,244.05548,
2347.645,265.21705,
2344.734,271.14114,
2341.823,247.05616,
2338.913,253.13842,
2336.002,244.22067,
2333.092,257.07313,
2330.181,277.96,
2327.270,278.84502,
2324.360,257.77592,
2321.449,266.77805,
2318.539,262.75345,
2315.628,265.83523,
2312.718,274.34086,
2309.807,269.85464,
2306.896,287.63283,
2303.986,286.27431,
2301.075,275.07183,
2298.165,258.05744,
2295.254,289.84945,
2292.344,289.89059,
2289.433,274.24272,
2286.522,269.83922,
2283.612,276.93495,
2280.701,298.26173,
2277.791,282.74522,
2274.880,290.7609,
2271.969,301.88837,
2269.059,294.09367,
2266.148,297.625,
2263.238,294.92616,
2260.327,307.96987,
2257.417,311.67611,
2254.506,308.625,
2251.595,302.34504,
2248.685,302.04421,
2245.774,304.52608,
2242.864,299.75467,
2239.953,300.03193,
2237.043,296.96285,
2234.132,305.58082,
2231.221,321.70516,
2228.311,316.18687,
2225.400,302.82202,
2222.490,308.3253,
2219.579,315.27545,
2216.669,337.13692,
2213.758,331.36356,
2210.847,330.43104,
2207.937,345.01423,
2205.026,324.51421,
2202.116,321.91798,
2199.205,341.68735,
2196.294,343.501,
2193.384,353.99302,
2190.473,359.48298,
2187.563,358.654,
2184.652,363.4201,
2181.742,358.39795,
2178.831,373.61726,
2175.920,390.53939,
2173.010,407.12613,
2170.099,408.29216,
2167.189,440.6537,
2164.278,447.26621,
2161.368,470.33835,
2158.457,483.69422,
2155.546,500.85101,
2152.636,538.74197,
2149.725,554.94714,
2146.815,570.15784,
2143.904,570.3276,
2140.993,585.47145,
2138.083,605.50651,
2135.172,604.49905,
2132.262,614.61796,
2129.351,605.58358,
2126.441,597.44052,
2123.530,588.09747,
2120.619,543.68913,
2117.709,545.02275,
2114.798,502.13642,
2111.888,475.88793,
2108.977,465.98924,
2106.067,448.94069,
2103.156,428.6678,
2100.245,399.63253,
2097.335,408.01244,
2094.424,381.1463,
2091.514,383.91536,
2088.603,379.28404,
2085.692,360.8964,
2082.782,376.70922,
2079.871,369.01707,
2076.961,378.72091,
2074.050,353.78864,
2071.140,376.78591,
2068.229,380.89062,
2065.318,393.4525,
2062.408,382.8822,
2059.497,381.85717,
2056.587,377.72989,
2053.676,351.20958,
2050.766,366.93143,
2047.855,369.19781,
2044.944,354.22596,
2042.034,360.39391,
2039.123,388.28493,
2036.213,379.22274,
2033.302,377.32052,
2030.391,373.67615,
2027.481,366.8811,
2024.570,380.11036,
2021.660,374.15716,
2018.749,379.34682,
2015.839,394.26214,
2012.928,368.94715,
2010.017,368.63695,
2007.107,381.06423,
2004.196,374.88694,
2001.286,375.35293,
1998.375,372.8002,
1995.465,374.625,
1992.554,369.36622,
1989.643,379.2448,
1986.733,375.12675,
1983.822,354.4086,
1980.912,380.51535,
1978.001,360.91258,
1975.090,380.44484,
1972.180,368.7633,
1969.269,377.07906,
1966.359,385.97634,
1963.448,381.97242,
1960.538,390.36312,
1957.627,372.11724,
1954.716,377.39519,
1951.806,396.87339,
1948.895,395.50364,
1945.985,359.5482,
1943.074,380.66193,
1940.164,365.66324,
1937.253,343.75117,
1934.342,346.18917,
1931.432,345.54298,
1928.521,359.10687,
1925.611,370.34577,
1922.700,359.54489,
1919.790,354.90248,
1916.879,372.29976,
1913.968,358.64344,
1911.058,365.80519,
1908.147,388.91982,
1905.237,338.22794,
1902.326,339.52573,
1899.415,342.04816,
1896.505,315.7453,
1893.594,304.89029,
1890.684,343.37648,
1887.773,382.95215,
1884.863,381.59311,
1881.952,384.0874,
1879.041,409.05024,
1876.131,376.53482,
1873.220,364.13826,
1870.310,371.97925,
1867.399,406.08122,
1864.489,408.23556,
1861.578,396.00982,
1858.667,377.08005,
1855.757,409.44362,
1852.846,386.61475,
1849.936,391.20557,
1847.025,418.80018,
1844.114,414.9685,
1841.204,410.09703,
1838.293,415.63498,
1835.383,402.52051,
1832.472,402.55543,
1829.562,400.87578,
1826.651,392.83856,
1823.740,419.74383,
1820.830,430.625,
1817.919,372.80427,
1815.009,422.98631,
1812.098,388.74314,
1809.188,435.21403,
1806.277,416.13403,
1803.366,395.60836,
1800.456,395.55927,
1797.545,411.25622,
1794.635,410.33404,
1791.724,425.15903,
1788.813,407.625,
1785.903,406.92152,
1782.992,400.8694,
1780.082,361.7038,
1777.171,275.2813,
1774.261,241.3701,
1771.350,304.23852,
1768.439,394.00887,
1765.529,424.90192,
1762.618,440.5131,
1759.708,451.10349,
1756.797,450.03409,
1753.887,459.39613,
1750.976,463.93522,
1748.065,449.78168,
1745.155,461.3991,
1742.244,474.58423,
1739.334,443.38972,
1736.423,447.40815,
1733.512,440.34447,
1730.602,413.68053,
1727.691,441.93738,
1724.781,472.28941,
1721.870,461.52967,
1718.960,478.1808,
1716.049,465.00653,
1713.138,442.81509,
1710.228,484.01015,
1707.317,492.39414,
1704.407,515.98333,
1701.496,478.5169,
1698.586,467.23312,
1695.675,507.79618,
1692.764,514.41189,
1689.854,508.88484,
1686.943,488.33324,
1684.033,540.28384,
1681.122,543.59102,
1678.211,531.73921,
1675.301,520.65892,
1672.390,525.62799,
1669.480,526.75335,
1666.569,542.65039,
1663.659,545.1313,
1660.748,575.85638,
1657.837,588.10613,
1654.927,609.53128,
1652.016,605.7465,
1649.106,610.94325,
1646.195,623.84079,
1643.285,632.60221,
1640.374,632.04312,
1637.463,651.78713,
1634.553,661.60034,
1631.642,726.73358,
1628.732,736.70796,
1625.821,750.67603,
1622.911,828.18546,
1620.000,819.73839,
1617.089,927.43594,
1614.179,950.03278,
1611.268,991.06353,
1608.358,1048.8624,
1605.447,1086.511,
1602.536,1116.5816,
1599.626,1108.5057,
1596.715,1107.625,
1593.805,1100.4703,
1590.894,1074.9662,
1587.984,1014.4629,
1585.073,1027.7462,
1582.162,1050.8274,
1579.252,1019.4381,
1576.341,1003.6144,
1573.431,1022.7707,
1570.520,1041.6194,
1567.610,1013.5853,
1564.699,984.49926,
1561.788,939.59719,
1558.878,961.85974,
1555.967,932.71781,
1553.057,936.05576,
1550.146,930.11596,
1547.235,908.36043,
1544.325,897.53521,
1541.414,873.64288,
1538.504,863.81824,
1535.593,872.08574,
1532.683,859.84317,
1529.772,844.91873,
1526.861,823.69227,
1523.951,791.4886,
1521.040,793.59729,
1518.130,789.75548,
1515.219,792.06452,
1512.309,804.66102,
1509.398,793.69913,
1506.487,795.63298,
1503.577,787.21281,
1500.666,781.33524,
1497.756,712.20184,
1494.845,766.3443,
1491.934,735.72579,
1489.024,766.52556,
1486.113,727.75473,
1483.203,737.05935,
1480.292,704.68454,
1477.382,675.99405,
1474.471,702.08754,
1471.560,682.59836,
1468.650,698.27267,
1465.739,702.93912,
1462.829,689.67274,
1459.918,679.75756,
1457.008,690.33287,
1454.097,694.38184,
1451.186,692.77394,
1448.276,700.09046,
1445.365,707.34222,
1442.455,728.95902,
1439.544,695.99014,
1436.633,703.77992,
1433.723,688.11746,
1430.812,702.89134,
1427.902,669.50444,
1424.991,706.46717,
1422.081,655.32881,
1419.170,665.31403,
1416.259,644.94323,
1413.349,638.86976,
1410.438,667.31597,
1407.528,672.54384,
1404.617,636.92007,
1401.707,649.07113,
1398.796,698.03404,
1395.885,690.51453,
1392.975,671.87589,
1390.064,702.38434,
1387.154,683.7933,
1384.243,689.00457,
1381.332,689.64907,
1378.422,644.33008,
1375.511,696.78982,
1372.601,716.97798,
1369.690,674.90665,
1366.780,769.0055,
1363.869,759.30115,
1360.958,766.75192,
1358.048,833.39631,
1355.137,853.22606,
1352.227,850.35057,
1349.316,890.34357,
1346.406,908.14697,
1343.495,871.35846,
1340.584,890.08897,
1337.674,912.66182,
1334.763,930.01314,
1331.853,940.21268,
1328.942,952.18803,
1326.032,941.39069,
1323.121,976.41419,
1320.210,1012.9322,
1317.300,1012.8204,
1314.389,1009.764,
1311.479,1024.2366,
1308.568,1052.4294,
1305.657,1081.7488,
1302.747,1074.7177,
1299.836,1047.2959,
1296.926,1132.6333,
1294.015,1175.8415,
1291.105,1190.8331,
1288.194,1222.1785,
1285.283,1270.4372,
1282.373,1282.1953,
1279.462,1302.6834,
1276.552,1345.318,
1273.641,1363.1348,
1270.731,1353.2116,
1267.820,1363.3012,
1264.909,1343.2506,
1261.999,1290.9232,
1259.088,1326.4959,
1256.178,1329.4815,
1253.267,1333.461,
1250.356,1254.709,
1247.446,1235.987,
1244.535,1235.2545,
1241.625,1187.5214,
1238.714,1138.625,
1235.804,1143.2123,
1232.893,1146.3954,
1229.982,1054.5449,
1227.072,1081.7043,
1224.161,1069.3364,
1221.251,1041.3117,
1218.340,1030.6816,
1215.430,1004.8509,
1212.519,984.17224,
1209.608,992.83877,
1206.698,1006.8164,
1203.787,993.95162,
1200.877,969.12649,
1197.966,977.21892,
1195.055,1022.8472,
1192.145,1033.6304,
1189.234,1077.4453,
1186.324,1118.6267,
1183.413,1116.4016,
1180.503,1109.127,
1177.592,1139.9483,
1174.681,1142.3031,
1171.771,1104.6359,
1168.860,1061.7676,
1165.950,1041.4992,
1163.039,1062.7675,
1160.129,1073.0351,
1157.218,1075.0287,
1154.307,1063.155,
1151.397,1034.1935,
1148.486,1017.5789,
1145.576,996.01271,
1142.665,1027.9776,
1139.754,1034.6931,
1136.844,1015.3162,
1133.933,992.54885,
1131.023,998.67626,
1128.112,1001.6272,
1125.202,976.79891,
1122.291,983.37433,
1119.380,981.83287,
1116.470,1003.0136,
1113.559,1006.3982,
1110.649,994.83778,
1107.738,996.66227,
1104.828,1015.2758,
1101.917,1023.9324,
1099.006,1011.7589,
1096.096,1038.6899,
1093.185,1007.0818,
1090.275,1030.5216,
1087.364,1018.7858,
1084.453,1027.4989,
1081.543,1037.1192,
1078.632,1025.7303,
1075.722,1006.6757,
1072.811,990.43168,
1069.901,1001.7841,
1066.990,1047.0832,
1064.079,1052.1809,
1061.169,1041.8928,
1058.258,1050.8705,
1055.348,1066.3337,
1052.437,1051.9851,
1049.527,1045.7397,
1046.616,1100.4759,
1043.705,1086.5851,
1040.795,1106.1652,
1037.884,1107.4758,
1034.974,1092.7629,
1032.063,1091.2942,
1029.153,1097.0404,
1026.242,1100.5003,
1023.331,1107.2912,
1020.421,1116.2931,
1017.510,1134.1922,
1014.600,1132.0912,
1011.689,1125.598,
1008.778,1153.5724,
1005.868,1141.4706,
1002.957,1124.2635,
1000.047,1158.025,
997.136,1224.4843,
994.226,1261.625,
991.315,1271.672,
988.404,1289.2747,
985.494,1261.414,
982.583,1251.9919,
979.673,1273.306,
976.762,1283.3863,
973.852,1279.7629,
970.941,1276.2924,
968.030,1280.3706,
965.120,1267.6357,
962.209,1270.1934,
959.299,1264.959,
956.388,1253.1056,
953.477,1261.244,
950.567,1299.5718,
947.656,1339.9458,
944.746,1304.2644,
941.835,1315.582,
938.925,1297.5674,
936.014,1293.2007,
933.103,1287.9729,
930.193,1263.4289,
927.282,1249.9834,
924.372,1238.1449,
921.461,1233.6794,
918.551,1231.4631,
915.640,1225.1007,
912.729,1217.8934,
909.819,1215.0664,
906.908,1188.1088,
903.998,1197.7601,
901.087,1205.0805,
898.176,1204.7618,
895.266,1219.0819,
892.355,1254.112,
889.445,1240.6838,
886.534,1258.9922,
883.624,1277.4273,
880.713,1273.3972,
877.802,1258.1089,
874.892,1237.3073,
871.981,1178.3046,
869.071,995.34914,
866.160,1048.49,
863.250,1144.8115,
860.339,1229.8427,
857.428,1286.0945,
854.518,1278.7343,
851.607,1247.9478,
848.697,1173.1555,
845.786,1144.7388,
842.875,1136.0899,
839.965,1130.4313,
837.054,1203.2018,
834.144,1254.5845,
831.233,1263.9584,
828.323,1234.9398,
825.412,1218.5035,
822.501,1245.625,
819.591,1245.625,
816.680,1252.0353,
813.770,1202.8783,
810.859,1180.7473,
807.949,1186.4908,
805.038,1178.7113,
802.127,1204.2282,
799.217,1160.4108,
796.306,1155.9764,
793.396,1167.3502,
790.485,1171.625,
787.574,1171.1579,
784.664,1158.8563,
781.753,1173.3996,
778.843,1196.3275,
775.932,1207.6127,
773.022,1202.1753,
770.111,1225.0675,
767.200,1203.7856,
764.290,1208.7604,
761.379,1204.6274,
758.469,1184.2065,
755.558,1183.014,
752.648,1196.0477,
749.737,1188.8332,
746.826,1163.5775,
743.916,1138.3912,
741.005,1130.2407,
738.095,1109.1319,
735.184,1045.1299,
732.274,985.38987,
729.363,990.94658,
726.452,1072.9571,
723.542,1119.0925,
720.631,1143.0321,
717.721,1171.966,
714.810,1193.5738,
711.899,1192.4071,
708.989,1152.8678,
706.078,1176.6641,
703.168,1180.1961,
700.257,1166.2478,
697.347,1153.1897,
694.436,1169.4068,
691.525,1161.3687,
688.615,1166.543,
685.704,1164.5813,
682.794,1167.1568,
679.883,1200.0751,
676.973,1165.6162,
674.062,1172.6628,
671.151,1165.7218,
668.241,1155.4402,
665.330,1184.3435,
662.420,1199.5194,
659.509,1186.1168,
656.598,1189.1747,
653.688,1206.3151,
650.777,1207.4909,
647.867,1174.0451,
644.956,1148.0505,
642.046,1101.7988,
639.135,1068.3457,
636.224,1127.6727,
633.314,1137.2,
630.403,1179.2361,
627.493,1212.002,
624.582,1224.5096,
621.672,1241.9334,
618.761,1185.6296,
615.850,1199.5823,
612.940,1230.4065,
610.029,1237.1261,
607.119,1222.1231,
604.208,1226.3051,
601.297,1235.1057,
598.387,1233.3127,
595.476,1215.7447,
592.566,1248.8016,
589.655,1228.0615,
586.745,1207.9834,
583.834,1195.355,
580.923,1176.625,
578.013,1176.625,
575.102,1173.7571,
572.192,1195.5631,
569.281,1228.6424,
566.371,1173.0761,
563.460,1191.6109,
560.549,1221.6034,
557.639,1243.9678,
554.728,1248.5119,
551.818,1262.5576,
548.907,1268.6721,
545.996,1252.7407,
543.086,1224.4572,
540.175,1223.6786,
537.265,1267.806,
534.354,1266.0624,
531.444,1247.3463,
528.533,1250.2118,
525.622,1300.6484,
522.712,1284.3211,
519.801,1289.5378,
516.891,1325.2165,
513.980,1318.2478,
511.070,1329.5989,
508.159,1369.4873,
505.248,1396.1083,
502.338,1363.0031,
499.427,1410.0849,
496.517,1450.3421,
493.606,1458.1653,
490.695,1434.1926,
487.785,1452.6676,
484.874,1466.6108,
481.964,1457.2597,
479.053,1440.9569,
476.143,1463.2278,
473.232,1443.7623,
470.321,1434.1653,
467.411,1425.5337,
464.500,1404.9353,
461.590,1417.1871,
458.679,1441.5362,
455.769,1453.584,
452.858,1444.0566,
449.947,1457.8074,
447.037,1460.0182,
444.126,1469.2371,
441.216,1485.3604,
438.305,1483.8366,
435.395,1495.4265,
432.484,1497.4575,
429.573,1480.7974,
426.663,1434.4288,
423.752,1399.2411,
420.842,1205.6907,
417.931,981.2825,
415.020,944.88131,
412.110,1098.727,
409.199,1264.6713,
406.289,1384.5285,
403.378,1402.4867,
400.468,1361.663,
397.557,1363.0212,
394.646,1403.5596,
391.736,1477.6149,
388.825,1508.5384,
385.915,1504.3202,
383.004,1488.6274,
380.094,1480.89,
377.183,1525.2861,
374.272,1587.018,
371.362,1628.625,
368.451,1626.8469,
365.541,1597.576,
362.630,1622.9457,
359.719,1644.7056,
356.809,1630.4438,
353.898,1627.4486,
350.988,1649.4094,
348.077,1660.784,
345.167,1643.0251,
342.256,1670.6667,
339.345,1663.7449,
336.435,1655.0665,
333.524,1665.709,
330.614,1636.6479,
327.703,1638.9199,
324.793,1647.8205,
321.882,1642.6376,
318.971,1647.8417,
316.061,1659.3913,
313.150,1674.9369,
310.240,1692.0056,
307.329,1674.7591,
304.418,1679.0238,
301.508,1686.7173,
298.597,1664.5048,
295.687,1684.2967,
292.776,1670.0415,
289.866,1647.4575,
286.955,1703.6006,
284.044,1735.0275,
281.134,1790.4675,
278.223,1862.8106,
275.313,1870.916,
272.402,1888.8903,
269.492,1891.1194,
266.581,1866.9465,
263.670,1815.4838,
260.760,1834.0575,
257.849,1885.1552,
254.939,1943.8658,
252.028,1948.9681,
249.117,1950.625,
246.207,1956.4967,
243.296,1979.1899,
240.386,1971.1771,
237.475,1949.8733,
234.565,1928.076,
231.654,1949.9875,
228.743,1919.5275,
225.833,1882.9536,
222.922,1861.0371,
220.012,1912.7646,
217.101,1899.6913,
214.191,1866.8765,
211.280,1861.0568,
208.369,1877.4453,
205.459,1869.655,
202.548,1857.2824,
199.638,1924.7678,
196.727,1858.531,
193.816,1844.4774,
190.906,1946.7204,
187.995,1892.4185,
185.085,1909.562,
182.174,1949.0373,
179.264,1946.8691,
176.353,1946.625,
173.442,1936.1108,
170.532,1916.4489,
167.621,1906.3552,
164.711,1870.5142,
161.800,1805.2349,
158.890,1701.5941,
155.979,1551.4661,
153.068,1432.9633,
150.158,1329.9969,
147.247,1173.4833,
144.337,960.18042,
141.426,743.58893,
138.516,547.87762,
135.605,398.37298,
132.694,279.1385,
129.784,187.22109,
126.873,123.57454,
123.963,79.895213,
121.052,51.242505,
118.141,37.678367,
115.231,33.361578,
112.320,29.50682,
109.410,25.125092,
106.499,17.291385,
103.589,12.823728,
100.678,11.439865,
97.767,13.572678,
94.857,10.160055,
91.946,6.6094456,
89.036,3.8507958,
86.125,5.2692064,
83.215,6.1559204,
80.304,4.4701058,
77.393,-1.9034236,
74.483,7.4520244,
71.572,9.363831,
68.662,3.625,
65.751,3.625,
62.840,7.9603179,
59.930,10.190279,
57.019,1.0242136,
54.109,4.4022868,
51.198,8.2282186,
48.288,9.5117512,
45.377,-4.5558102,
42.466,-2.1306132,
39.556,8.81917,
36.645,3.9038384,
33.735,4.7019939,
30.824,5.5205651,
27.914,2.0146889,
25.003,5.3608249,
22.092,10.531141,
19.182,16.991126,
16.271,28.182968,
13.361,127.45304,
10.450,290.07623,
7.539,478.62138,
4.629,468.76395,
1.718,272.29192,
-1.192,-188.52062,
-4.103,-246.15966,
-7.013,-170.5855,
-9.924,0.625,
