,PL8F1F~1,
Wavenumbers [1/cm],Intensity,
3014.167,-1.625,
3011.256,-0.72502147,
3008.346,28.245017,
3005.435,44.915639,
3002.525,49.034955,
2999.614,38.276309,
2996.704,36.879126,
2993.793,47.118088,
2990.882,54.069647,
2987.972,66.248876,
2985.061,43.148401,
2982.151,33.045578,
2979.240,33.274235,
2976.329,47.142746,
2973.419,38.774742,
2970.508,41.97504,
2967.598,41.944879,
2964.687,37.673233,
2961.777,53.246905,
2958.866,42.376485,
2955.955,57.069669,
2953.045,53.576353,
2950.134,59.736508,
2947.224,40.517344,
2944.313,53.015314,
2941.403,67.589415,
2938.492,43.375,
2935.581,40.557828,
2932.671,52.293441,
2929.760,48.117313,
2926.850,58.956954,
2923.939,47.417072,
2921.028,41.145596,
2918.118,50.474495,
2915.207,49.318074,
2912.297,44.404619,
2909.386,33.192513,
2906.476,30.700855,
2903.565,31.003888,
2900.654,23.587351,
2897.744,21.110984,
2894.833,-0.037363497,
2891.923,-11.166704,
2889.012,-20.659684,
2886.102,-49.061481,
2883.191,-101.57874,
2880.280,-297.37148,
2877.370,-678.21724,
2874.459,-845.85695,
2871.549,-486.38526,
2868.638,-158.65605,
2865.727,-89.671205,
2862.817,-59.153083,
2859.906,-15.662046,
2856.996,7.375,
2854.085,18.818298,
2851.175,17.161138,
2848.264,23.227998,
2845.353,33.482835,
2842.443,36.777785,
2839.532,42.912262,
2836.622,45.375,
2833.711,42.21958,
2830.801,51.96471,
2827.890,55.768335,
2824.979,47.868969,
2822.069,43.500093,
2819.158,52.854783,
2816.248,59.340262,
2813.337,54.395727,
2810.427,55.205585,
2807.516,58.317342,
2804.605,61.353363,
2801.695,57.375,
2798.784,66.635769,
2795.874,61.100609,
2792.963,57.446597,
2790.052,59.375429,
2787.142,67.624884,
2784.231,61.761638,
2781.321,65.626441,
2778.410,59.830601,
2775.500,56.331203,
2772.589,59.760316,
2769.678,63.876738,
2766.768,63.679864,
2763.857,62.585019,
2760.947,56.865544,
2758.036,65.540666,
2755.126,67.755342,
2752.215,71.502299,
2749.304,62.035085,
2746.394,58.068529,
2743.483,59.425021,
2740.573,56.262172,
2737.662,46.74629,
2734.751,72.375,
2731.841,74.158883,
2728.930,60.722425,
2726.020,65.375,
2723.109,61.828667,
2720.199,71.003185,
2717.288,58.024632,
2714.377,72.662223,
2711.467,60.784889,
2708.556,60.981315,
2705.646,78.586307,
2702.735,58.882738,
2699.825,71.755022,
2696.914,72.517721,
2694.003,74.88882,
2691.093,64.535066,
2688.182,69.52241,
2685.272,63.897049,
2682.361,65.074783,
2679.450,78.206265,
2676.540,58.639213,
2673.629,69.38398,
2670.719,75.009942,
2667.808,64.201805,
2664.898,61.452819,
2661.987,62.841578,
2659.076,60.247844,
2656.166,80.76037,
2653.255,63.706635,
2650.345,77.78335,
2647.434,67.632217,
2644.524,69.988907,
2641.613,81.03245,
2638.702,64.722183,
2635.792,70.499628,
2632.881,75.684485,
2629.971,75.630023,
2627.060,76.040627,
2624.149,88.049995,
2621.239,70.582015,
2618.328,74.696805,
2615.418,64.684098,
2612.507,76.616102,
2609.597,96.446857,
2606.686,76.375,
2603.775,79.255954,
2600.865,83.139508,
2597.954,74.333281,
2595.044,88.419284,
2592.133,81.432356,
2589.223,87.832899,
2586.312,70.229262,
2583.401,74.823907,
2580.491,79.004798,
2577.580,61.399755,
2574.670,74.714577,
2571.759,64.319353,
2568.848,79.955217,
2565.938,69.184396,
2563.027,83.081839,
2560.117,80.552577,
2557.206,85.087177,
2554.296,74.606122,
2551.385,83.622982,
2548.474,96.15307,
2545.564,72.356321,
2542.653,81.448827,
2539.743,84.301064,
2536.832,93.395562,
2533.922,83.501154,
2531.011,90.000116,
2528.100,77.845357,
2525.190,80.652458,
2522.279,88.624632,
2519.369,67.33763,
2516.458,72.833212,
2513.548,74.620647,
2510.637,91.559448,
2507.726,92.189121,
2504.816,90.750424,
2501.905,80.389633,
2498.995,94.434719,
2496.084,94.761756,
2493.173,86.190562,
2490.263,88.352414,
2487.352,88.001,
2484.442,99.242248,
2481.531,91.90159,
2478.621,95.446101,
2475.710,99.275319,
2472.799,90.074511,
2469.889,97.012111,
2466.978,96.704856,
2464.068,93.586624,
2461.157,97.642543,
2458.247,97.198608,
2455.336,102.41805,
2452.425,94.134427,
2449.515,98.375,
2446.604,101.54779,
2443.694,107.375,
2440.783,94.420044,
2437.872,99.776114,
2434.962,111.68836,
2432.051,108.54771,
2429.141,103.51027,
2426.230,114.6579,
2423.320,103.00349,
2420.409,112.80436,
2417.498,112.60532,
2414.588,115.18484,
2411.677,111.12399,
2408.767,103.86909,
2405.856,105.65832,
2402.946,112.7977,
2400.035,119.76937,
2397.124,124.02741,
2394.214,108.83341,
2391.303,99.910908,
2388.393,84.698218,
2385.482,71.727495,
2382.571,20.894214,
2379.661,37.932697,
2376.750,94.424168,
2373.840,99.8844,
2370.929,120.13675,
2368.019,121.83314,
2365.108,117.35144,
2362.197,126.34763,
2359.287,129.57667,
2356.376,138.35915,
2353.466,124.35957,
2350.555,135.09024,
2347.645,138.27037,
2344.734,119.97866,
2341.823,134.0765,
2338.913,139.01977,
2336.002,135.15014,
2333.092,143.76559,
2330.181,139.79447,
2327.270,131.59502,
2324.360,136.04716,
2321.449,143.28317,
2318.539,142.73584,
2315.628,134.98012,
2312.718,136.14152,
2309.807,145.05813,
2306.896,151.09957,
2303.986,144.42048,
2301.075,152.07711,
2298.165,154.375,
2295.254,152.41809,
2292.344,145.16337,
2289.433,145.00818,
2286.522,141.50889,
2283.612,151.89542,
2280.701,155.24047,
2277.791,136.0162,
2274.880,151.375,
2271.969,154.08282,
2269.059,161.7265,
2266.148,170.94094,
2263.238,158.98119,
2260.327,156.5473,
2257.417,150.59389,
2254.506,163.73396,
2251.595,161.80043,
2248.685,160.69232,
2245.774,153.06742,
2242.864,172.01342,
2239.953,151.69225,
2237.043,152.88178,
2234.132,155.07112,
2231.221,165.16576,
2228.311,156.45749,
2225.400,164.54387,
2222.490,171.48903,
2219.579,178.76833,
2216.669,189.34638,
2213.758,181.02466,
2210.847,172.56896,
2207.937,183.88639,
2205.026,181.48637,
2202.116,173.32617,
2199.205,173.2623,
2196.294,175.689,
2193.384,167.98049,
2190.473,171.38087,
2187.563,189.24933,
2184.652,169.85131,
2181.742,209.6254,
2178.831,211.21933,
2175.920,199.87773,
2173.010,208.97591,
2170.099,205.57589,
2167.189,228.23149,
2164.278,211.16294,
2161.368,222.80412,
2158.457,223.66018,
2155.546,249.34425,
2152.636,247.31651,
2149.725,251.69714,
2146.815,264.97457,
2143.904,274.78391,
2140.993,294.97819,
2138.083,287.82182,
2135.172,286.34981,
2132.262,297.51144,
2129.351,291.80252,
2126.441,291.90899,
2123.530,285.15052,
2120.619,265.51261,
2117.709,265.58394,
2114.798,258.32494,
2111.888,247.81261,
2108.977,219.94452,
2106.067,225.8512,
2103.156,233.25484,
2100.245,230.375,
2097.335,227.48495,
2094.424,212.83744,
2091.514,226.2244,
2088.603,213.375,
2085.692,216.33037,
2082.782,214.13406,
2079.871,214.83941,
2076.961,208.82705,
2074.050,225.18106,
2071.140,221.21409,
2068.229,224.72916,
2065.318,233.69575,
2062.408,210.17002,
2059.497,200.59525,
2056.587,222.27011,
2053.676,225.92515,
2050.766,195.83838,
2047.855,239.26432,
2044.944,201.90705,
2042.034,207.03398,
2039.123,215.09554,
2036.213,218.16388,
2033.302,227.87481,
2030.391,238.375,
2027.481,236.14331,
2024.570,223.57531,
2021.660,245.83764,
2018.749,249.10907,
2015.839,242.77854,
2012.928,245.60487,
2010.017,246.375,
2007.107,245.53762,
2004.196,247.95835,
2001.286,249.56228,
1998.375,254.6378,
1995.465,258.16161,
1992.554,248.73391,
1989.643,248.34044,
1986.733,237.7829,
1983.822,277.97692,
1980.912,258.13695,
1978.001,255.42511,
1975.090,278.81163,
1972.180,257.61703,
1969.269,255.46984,
1966.359,263.9156,
1963.448,269.29706,
1960.538,257.39085,
1957.627,262.39977,
1954.716,279.88664,
1951.806,293.61695,
1948.895,310.61599,
1945.985,262.12827,
1943.074,261.78815,
1940.164,286.57699,
1937.253,291.08372,
1934.342,281.30655,
1931.432,287.80718,
1928.521,292.53044,
1925.611,300.18658,
1922.700,301.20925,
1919.790,288.31733,
1916.879,277.07249,
1913.968,291.35656,
1911.058,292.90353,
1908.147,301.57063,
1905.237,300.24259,
1902.326,257.83723,
1899.415,234.82987,
1896.505,205.27845,
1893.594,202.00007,
1890.684,256.9042,
1887.773,302.96943,
1884.863,325.21782,
1881.952,311.84519,
1879.041,310.18341,
1876.131,317.26127,
1873.220,297.45456,
1870.310,338.00272,
1867.399,322.67888,
1864.489,290.86873,
1861.578,281.73738,
1858.667,321.27016,
1855.757,353.00507,
1852.846,321.38525,
1849.936,323.44508,
1847.025,308.37744,
1844.114,313.06682,
1841.204,332.76661,
1838.293,340.85421,
1835.383,342.99151,
1832.472,327.85152,
1829.562,342.53907,
1826.651,334.91301,
1823.740,330.01485,
1820.830,316.71345,
1817.919,322.14752,
1815.009,320.95006,
1812.098,344.61121,
1809.188,343.62307,
1806.277,369.77744,
1803.366,327.40827,
1800.456,329.92457,
1797.545,338.36087,
1794.635,326.95598,
1791.724,318.03519,
1788.813,314.366,
1785.903,276.05724,
1782.992,212.59845,
1780.082,83.474267,
1777.171,-63.644296,
1774.261,-89.99908,
1771.350,90.687043,
1768.439,267.08016,
1765.529,313.19635,
1762.618,338.20626,
1759.708,362.78824,
1756.797,358.78409,
1753.887,348.96538,
1750.976,342.81283,
1748.065,353.65149,
1745.155,371.48464,
1742.244,380.99637,
1739.334,364.51854,
1736.423,380.10394,
1733.512,377.2774,
1730.602,361.90276,
1727.691,385.24312,
1724.781,394.16158,
1721.870,400.00837,
1718.960,362.73009,
1716.049,422.33195,
1713.138,418.27508,
1710.228,377.08193,
1707.317,420.911,
1704.407,426.4766,
1701.496,444.60596,
1698.586,420.50344,
1695.675,428.66779,
1692.764,433.16189,
1689.854,444.85532,
1686.943,450.20637,
1684.033,455.25082,
1681.122,459.30703,
1678.211,448.47969,
1675.301,464.32567,
1672.390,490.27631,
1669.480,457.36698,
1666.569,456.90823,
1663.659,498.65265,
1660.748,514.85439,
1657.837,489.77466,
1654.927,551.69556,
1652.016,523.66659,
1649.106,534.59161,
1646.195,504.09429,
1643.285,533.01041,
1640.374,517.18685,
1637.463,509.69006,
1634.553,581.375,
1631.642,581.36414,
1628.732,580.25057,
1625.821,559.43715,
1622.911,653.83966,
1620.000,601.05533,
1617.089,650.36007,
1614.179,622.22103,
1611.268,693.58666,
1608.358,724.97031,
1605.447,722.60354,
1602.536,750.33161,
1599.626,762.49426,
1596.715,720.71774,
1593.805,720.84666,
1590.894,731.06237,
1587.984,708.12442,
1585.073,706.07663,
1582.162,701.36568,
1579.252,739.65345,
1576.341,700.3112,
1573.431,682.89278,
1570.520,681.375,
1567.610,705.2185,
1564.699,703.94961,
1561.788,669.38938,
1558.878,650.23013,
1555.967,651.99965,
1553.057,676.70236,
1550.146,644.51329,
1547.235,629.95251,
1544.325,658.03755,
1541.414,670.21477,
1538.504,650.39191,
1535.593,643.6002,
1532.683,667.69743,
1529.772,656.63792,
1526.861,614.13309,
1523.951,603.00228,
1521.040,607.51356,
1518.130,628.28054,
1515.219,644.25561,
1512.309,627.58673,
1509.398,636.72297,
1506.487,623.91828,
1503.577,622.11336,
1500.666,597.48692,
1497.756,602.41788,
1494.845,650.61458,
1491.934,632.43799,
1489.024,651.68785,
1486.113,614.35916,
1483.203,613.15134,
1480.292,611.67798,
1477.382,638.85544,
1474.471,616.98198,
1471.560,617.80866,
1468.650,634.3572,
1465.739,646.7799,
1462.829,612.7755,
1459.918,608.36966,
1457.008,639.08287,
1454.097,631.57789,
1451.186,615.27635,
1448.276,635.9682,
1445.365,643.37342,
1442.455,633.39455,
1439.544,657.59934,
1436.633,663.79307,
1433.723,689.00113,
1430.812,684.89735,
1427.902,665.36026,
1424.991,622.71095,
1422.081,683.76344,
1419.170,666.04537,
1416.259,690.72721,
1413.349,667.9206,
1410.438,691.96442,
1407.528,694.14391,
1404.617,667.99977,
1401.707,666.56363,
1398.796,699.56026,
1395.885,713.62688,
1392.975,702.271,
1390.064,707.60914,
1387.154,696.36518,
1384.243,680.61772,
1381.332,712.94036,
1378.422,695.21059,
1375.511,730.80827,
1372.601,747.96327,
1369.690,740.80278,
1366.780,771.84844,
1363.869,765.84546,
1360.958,758.39435,
1358.048,796.53358,
1355.137,804.45037,
1352.227,800.18554,
1349.316,783.87985,
1346.406,723.8377,
1343.495,712.83497,
1340.584,751.66041,
1337.674,772.01821,
1334.763,776.24587,
1331.853,746.57448,
1328.942,795.18499,
1326.032,763.85645,
1323.121,767.9714,
1320.210,762.38619,
1317.300,734.35595,
1314.389,716.3194,
1311.479,735.78261,
1308.568,746.85221,
1305.657,715.68925,
1302.747,708.34215,
1299.836,699.32343,
1296.926,720.46046,
1294.015,722.29911,
1291.105,736.46367,
1288.194,707.22402,
1285.283,761.66727,
1282.373,768.02351,
1279.462,758.47302,
1276.552,753.3356,
1273.641,739.54208,
1270.731,696.32571,
1267.820,624.153,
1264.909,648.54045,
1261.999,695.17254,
1259.088,744.42708,
1256.178,768.78641,
1253.267,757.03109,
1250.356,750.34324,
1247.446,720.62537,
1244.535,717.22317,
1241.625,745.27497,
1238.714,742.69329,
1235.804,695.04009,
1232.893,673.24865,
1229.982,678.6084,
1227.072,655.9756,
1224.161,700.60271,
1221.251,643.85819,
1218.340,622.67062,
1215.430,648.69962,
1212.519,633.607,
1209.608,586.47687,
1206.698,588.82204,
1203.787,610.92273,
1200.877,581.59788,
1197.966,585.19452,
1195.055,611.82571,
1192.145,642.67202,
1189.234,646.18466,
1186.324,660.28571,
1183.413,669.0755,
1180.503,667.77109,
1177.592,671.17282,
1174.681,645.22089,
1171.771,630.33379,
1168.860,628.54761,
1165.950,613.86179,
1163.039,606.88299,
1160.129,594.75761,
1157.218,587.85574,
1154.307,605.81319,
1151.397,626.51192,
1148.486,597.17901,
1145.576,573.99176,
1142.665,588.19837,
1139.754,606.4612,
1136.844,604.77258,
1133.933,597.09644,
1131.023,594.31919,
1128.112,587.87609,
1125.202,573.16727,
1122.291,574.13782,
1119.380,607.24508,
1116.470,594.00716,
1113.559,599.33424,
1110.649,603.33954,
1107.738,594.73027,
1104.828,591.36819,
1101.917,596.30391,
1099.006,594.35431,
1096.096,608.59001,
1093.185,612.10202,
1090.275,596.99887,
1087.364,587.88602,
1084.453,574.68818,
1081.543,585.2185,
1078.632,597.15262,
1075.722,576.581,
1072.811,601.20317,
1069.901,570.63904,
1066.990,586.15829,
1064.079,572.68164,
1061.169,583.15324,
1058.258,596.25757,
1055.348,599.25417,
1052.437,615.01488,
1049.527,622.03234,
1046.616,587.27917,
1043.705,581.83347,
1040.795,589.67556,
1037.884,599.93811,
1034.974,610.58892,
1032.063,616.51356,
1029.153,608.51749,
1026.242,618.03201,
1023.331,615.04188,
1020.421,619.25471,
1017.510,636.50245,
1014.600,634.84124,
1011.689,601.26628,
1008.778,543.58249,
1005.868,428.5835,
1002.957,451.81306,
1000.047,512.15902,
997.136,613.83862,
994.226,692.2362,
991.315,709.02352,
988.404,687.96909,
985.494,700.18585,
982.583,647.07935,
979.673,659.12946,
976.762,662.85239,
973.852,661.25902,
970.941,662.67138,
968.030,663.97617,
965.120,667.5003,
962.209,697.33927,
959.299,671.21204,
956.388,679.65364,
953.477,698.84116,
950.567,689.82667,
947.656,658.60861,
944.746,690.89173,
941.835,684.27687,
938.925,699.48431,
936.014,697.24683,
933.103,692.7307,
930.193,701.97792,
927.282,692.23751,
924.372,689.70069,
921.461,680.5382,
918.551,672.1466,
915.640,664.55051,
912.729,658.03322,
909.819,655.59825,
906.908,664.86493,
903.998,659.80745,
901.087,658.375,
898.176,665.05573,
895.266,667.29662,
892.355,663.12857,
889.445,699.21706,
886.534,692.69603,
883.624,694.73916,
880.713,685.14717,
877.802,619.48712,
874.892,458.46331,
871.981,197.33076,
869.071,26.071117,
866.160,151.61592,
863.250,379.16004,
860.339,574.99722,
857.428,660.38348,
854.518,620.54554,
851.607,557.30828,
848.697,393.6796,
845.786,289.60427,
842.875,327.98379,
839.965,499.60913,
837.054,683.14241,
834.144,662.4236,
831.233,698.37211,
828.323,705.02156,
825.412,696.84837,
822.501,709.41758,
819.591,715.20237,
816.680,688.13136,
813.770,668.21844,
810.859,663.98493,
807.949,671.40672,
805.038,678.57854,
802.127,671.99352,
799.217,684.04665,
796.306,676.45599,
793.396,680.22246,
790.485,701.84906,
787.574,707.18817,
784.664,702.2675,
781.753,697.3491,
778.843,699.29566,
775.932,705.53546,
773.022,709.61421,
770.111,704.70875,
767.200,715.79469,
764.290,709.55108,
761.379,696.07312,
758.469,690.56034,
755.558,706.1805,
752.648,699.66367,
749.737,662.47159,
746.826,665.28739,
743.916,692.6088,
741.005,694.79851,
738.095,663.13531,
735.184,619.33166,
732.274,578.13192,
729.363,571.85029,
726.452,615.04596,
723.542,674.13167,
720.631,676.61046,
717.721,689.55045,
714.810,704.32383,
711.899,706.91954,
708.989,683.51871,
706.078,682.5737,
703.168,696.34108,
700.257,714.03901,
697.347,721.37553,
694.436,704.53156,
691.525,747.13324,
688.615,728.70291,
685.704,710.21653,
682.794,701.99208,
679.883,686.21321,
676.973,727.08312,
674.062,719.42295,
671.151,711.25166,
668.241,707.37179,
665.330,691.56408,
662.420,695.55774,
659.509,710.34348,
656.598,724.4335,
653.688,731.22479,
650.777,725.80886,
647.867,679.62184,
644.956,608.07915,
642.046,522.69621,
639.135,466.27467,
636.224,507.93998,
633.314,620.67925,
630.403,674.20585,
627.493,705.58576,
624.582,732.78929,
621.672,752.58914,
618.761,746.53555,
615.850,740.51809,
612.940,739.76574,
610.029,744.24348,
607.119,743.45385,
604.208,726.33468,
601.297,740.31274,
598.387,759.94184,
595.476,758.08342,
592.566,776.18599,
589.655,763.17775,
586.745,755.67691,
583.834,748.59164,
580.923,717.46504,
578.013,732.37498,
575.102,740.39012,
572.192,741.94586,
569.281,739.2344,
566.371,738.45178,
563.460,736.96406,
560.549,748.06969,
557.639,764.13489,
554.728,773.78374,
551.818,764.41995,
548.907,761.15617,
545.996,761.15258,
543.086,763.88486,
540.175,770.89268,
537.265,765.58077,
534.354,778.92741,
531.444,788.52318,
528.533,774.03719,
525.622,783.34855,
522.712,792.65604,
519.801,787.06424,
516.891,777.57423,
513.980,813.19184,
511.070,833.27934,
508.159,825.09287,
505.248,813.63261,
502.338,830.45942,
499.427,867.50735,
496.517,885.29418,
493.606,883.2992,
490.695,866.94706,
487.785,863.8679,
484.874,862.72878,
481.964,873.17223,
479.053,881.93997,
476.143,855.06128,
473.232,830.35408,
470.321,843.27094,
467.411,865.36196,
464.500,862.27803,
461.590,858.44933,
458.679,861.22706,
455.769,856.18333,
452.858,840.92012,
449.947,865.36592,
447.037,870.98176,
444.126,878.76894,
441.216,890.31669,
438.305,884.22124,
435.395,863.05027,
432.484,851.95825,
429.573,830.96226,
426.663,743.54609,
423.752,352.79453,
420.842,-125.99822,
417.931,-485.77422,
415.020,-444.06452,
412.110,100.96357,
409.199,478.85891,
406.289,643.23685,
403.378,575.10605,
400.468,495.72664,
397.557,534.6437,
394.646,644.93459,
391.736,780.84784,
388.825,826.85595,
385.915,848.35791,
383.004,864.51239,
380.094,888.4115,
377.183,908.72837,
374.272,909.48998,
371.362,907.72962,
368.451,916.65757,
365.541,970.69616,
362.630,981.00508,
359.719,974.11936,
356.809,967.55304,
353.898,987.02179,
350.988,956.02839,
348.077,935.53931,
345.167,958.67214,
342.256,925.05406,
339.345,939.8209,
336.435,961.375,
333.524,961.14012,
330.614,953.68856,
327.703,941.1069,
324.793,928.28151,
321.882,919.41105,
318.971,934.27991,
316.061,934.49186,
313.150,924.75596,
310.240,909.91365,
307.329,977.98015,
304.418,988.96068,
301.508,971.34424,
298.597,978.7484,
295.687,984.79292,
292.776,984.04165,
289.866,983.73433,
286.955,1004.4186,
284.044,1039.6325,
281.134,1062.8185,
278.223,1076.6263,
275.313,1119.3639,
272.402,1098.168,
269.492,1024.0943,
266.581,904.43831,
263.670,807.39452,
260.760,818.55375,
257.849,910.0631,
254.939,1069.3156,
252.028,1010.572,
249.117,1009.3027,
246.207,1060.9455,
243.296,1159.7704,
240.386,1209.5545,
237.475,1244.2057,
234.565,1264.6495,
231.654,1253.6937,
228.743,1259.4302,
225.833,1260.8016,
222.922,1251.5301,
220.012,1276.301,
217.101,1274.07,
214.191,1276.0515,
211.280,1318.2443,
208.369,1326.0847,
205.459,1349.9345,
202.548,1377.6117,
199.638,1350.0371,
196.727,1367.9999,
193.816,1385.676,
190.906,1386.7051,
187.995,1396.1175,
185.085,1395.5922,
182.174,1397.6433,
179.264,1420.7718,
176.353,1446.443,
173.442,1427.8325,
170.532,1369.0987,
167.621,1340.9807,
164.711,1245.6052,
161.800,1132.951,
158.890,1035.0681,
155.979,945.47073,
153.068,880.94778,
150.158,825.90791,
147.247,723.24074,
144.337,625.09369,
141.426,508.47952,
138.516,360.08303,
135.605,249.35187,
132.694,163.68874,
129.784,102.24273,
126.873,70.777019,
123.963,55.838948,
121.052,41.726191,
118.141,22.450837,
115.231,21.66443,
112.320,19.680456,
109.410,16.829579,
106.499,13.980958,
103.589,8.3327097,
100.678,6.0047302,
97.767,10.270356,
94.857,7.6030438,
91.946,2.3438913,
89.036,-3.1734084,
86.125,-0.33658728,
83.215,-0.15592035,
80.304,-2.7798942,
77.393,-9.1534236,
74.483,-0.45311059,
71.572,4.7373521,
68.662,4.8901275,
65.751,-0.055030042,
62.840,2.2286159,
59.930,4.6894242,
57.019,-1.6563137,
54.109,0.36080424,
51.198,2.0733907,
48.288,1.3919873,
45.377,3.5021215,
42.466,5.611658,
39.556,5.8784585,
36.645,-3.2500143,
33.735,-0.95176381,
30.824,2.2705651,
27.914,-1.2353111,
25.003,2.1108249,
22.092,7.9269501,
19.182,15.901306,
16.271,31.989579,
13.361,133.6245,
10.450,343.82043,
7.539,805.40689,
4.629,1149.46,
1.718,1260.5915,
-1.192,938.51074,
-4.103,492.66712,
-7.013,160.23376,
-9.924,-2.625,
