,PL892C~1,
Wavenumbers [1/cm],Intensity,
3014.167,-0.5,
3011.256,-0.050010737,
3008.346,104.7878,
3005.435,138.88516,
3002.525,143.87752,
2999.614,131.54935,
2996.704,137.35876,
2993.793,149.75691,
2990.882,155.23277,
2987.972,167.38901,
2985.061,153.48031,
2982.151,142.36385,
2979.240,167.01807,
2976.329,167.01365,
2973.419,163.34596,
2970.508,166.56669,
2967.598,187.11406,
2964.687,167.61889,
2961.777,185.55992,
2958.866,183.50148,
2955.955,192.12388,
2953.045,191.8848,
2950.134,204.92566,
2947.224,205.5,
2944.313,207.29772,
2941.403,214.71442,
2938.492,195.53254,
2935.581,205.56995,
2932.671,203.81757,
2929.760,205.40002,
2926.850,210.86579,
2923.939,221.46264,
2921.028,216.35298,
2918.118,225.97859,
2915.207,207.43662,
2912.297,207.47884,
2909.386,223.68978,
2906.476,217.08146,
2903.565,218.45185,
2900.654,214.5,
2897.744,203.37428,
2894.833,203.80909,
2891.923,203.90379,
2889.012,154.40752,
2886.102,168.19056,
2883.191,131.52454,
2880.280,4.8492454,
2877.370,-241.60412,
2874.459,-380.12838,
2871.549,-140.12973,
2868.638,97.648351,
2865.727,146.34612,
2862.817,155.85695,
2859.906,197.86752,
2856.996,209.99321,
2854.085,217.66178,
2851.175,218.02409,
2848.264,217.5735,
2845.353,233.58627,
2842.443,240.69443,
2839.532,227.64936,
2836.622,239.13477,
2833.711,234.12952,
2830.801,238.29853,
2827.890,238.93882,
2824.979,249.99397,
2822.069,255.30667,
2819.158,246.86119,
2816.248,266.47684,
2813.337,260.95366,
2810.427,265.45592,
2807.516,266.5,
2804.605,260.68269,
2801.695,258.63158,
2798.784,249.31315,
2795.874,261.05935,
2792.963,271.21426,
2790.052,262.50172,
2787.142,264.81569,
2784.231,260.17701,
2781.321,250.56286,
2778.410,256.06471,
2775.500,257.90483,
2772.589,255.73089,
2769.678,260.74913,
2766.768,279.92138,
2763.857,282.44412,
2760.947,263.04728,
2758.036,272.19428,
2755.126,285.92949,
2752.215,288.81825,
2749.304,290.0108,
2746.394,267.04029,
2743.483,275.4,
2740.573,278.04869,
2737.662,257.55176,
2734.751,289.15054,
2731.841,272.22893,
2728.930,288.17371,
2726.020,288.27546,
2723.109,284.72683,
2720.199,296.79372,
2717.288,290.62408,
2714.377,296.30394,
2711.467,308.41867,
2708.556,287.84021,
2705.646,325.07754,
2702.735,296.84021,
2699.825,308.88002,
2696.914,306.40453,
2694.003,302.98618,
2691.093,294.14261,
2688.182,302.77408,
2685.272,307.98649,
2682.361,294.44105,
2679.450,313.24069,
2676.540,303.43903,
2673.629,305.47755,
2670.719,321.92329,
2667.808,311.22953,
2664.898,303.47373,
2661.987,310.2998,
2659.076,305.99138,
2656.166,318.85497,
2653.255,314.72449,
2650.345,325.74864,
2647.434,328.75722,
2644.524,327.25298,
2641.613,327.35732,
2638.702,326.56312,
2635.792,320.59273,
2632.881,324.4584,
2629.971,331.09737,
2627.060,346.66656,
2624.149,339.69064,
2621.239,332.75445,
2618.328,341.73703,
2615.418,325.49546,
2612.507,349.21929,
2609.597,361.59182,
2606.686,352.86346,
2603.775,350.3373,
2600.865,350.67409,
2597.954,367.78748,
2595.044,370.19619,
2592.133,357.38529,
2589.223,356.17474,
2586.312,369.69597,
2583.401,367.86859,
2580.491,362.85576,
2577.580,356.49175,
2574.670,360.63233,
2571.759,364.13101,
2568.848,379.60514,
2565.938,361.40463,
2563.027,378.76819,
2560.117,378.77103,
2557.206,377.69188,
2554.296,370.5595,
2551.385,377.87197,
2548.474,385.75948,
2545.564,379.84821,
2542.653,383.96309,
2539.743,389.45071,
2536.832,386.70374,
2533.922,386.89423,
2531.011,406.8254,
2528.100,389.16897,
2525.190,391.61516,
2522.279,397.42135,
2519.369,374.59439,
2516.458,389.17847,
2513.548,399.26368,
2510.637,402.74593,
2507.726,404.00185,
2504.816,399.62514,
2501.905,397.25366,
2498.995,404.53044,
2496.084,431.28743,
2493.173,420.6053,
2490.263,412.72484,
2487.352,409.83387,
2484.442,423.48071,
2481.531,424.80865,
2478.621,441.67546,
2475.710,428.477,
2472.799,425.5,
2469.889,434.22578,
2466.978,436.28357,
2464.068,426.79627,
2461.157,436.03509,
2458.247,439.41197,
2455.336,450.31016,
2452.425,427.45281,
2449.515,453.13201,
2446.604,448.38481,
2443.694,443.33717,
2440.783,433.59347,
2437.872,463.42707,
2434.962,463.07603,
2432.051,465.06168,
2429.141,463.92351,
2426.230,474.7829,
2423.320,460.79958,
2420.409,486.82035,
2417.498,491.52527,
2414.588,494.49236,
2411.677,480.17728,
2408.767,475.04134,
2405.856,475.65005,
2402.946,476.82171,
2400.035,482.5,
2397.124,500.26471,
2394.214,488.5536,
2391.303,496.28997,
2388.393,487.83716,
2385.482,464.29311,
2382.571,415.79064,
2379.661,442.54633,
2376.750,480.91612,
2373.840,496.5,
2370.929,521.22926,
2368.019,517.6564,
2365.108,525.6623,
2362.197,518.55474,
2359.287,520.07995,
2356.376,541.46654,
2353.466,515.48457,
2350.555,526.61026,
2347.645,545.19668,
2344.734,555.22812,
2341.823,549.61608,
2338.913,548.21045,
2336.002,552.24162,
2333.092,562.51134,
2330.181,567.23658,
2327.270,538.15016,
2324.360,575.27362,
2321.449,561.93199,
2318.539,578.52141,
2315.628,583.68465,
2312.718,585.5,
2309.807,570.5247,
2306.896,579.71283,
2303.986,581.59755,
2301.075,597.56385,
2298.165,599.28855,
2295.254,587.78006,
2292.344,591.65347,
2289.433,600.77409,
2286.522,589.09372,
2283.612,598.02042,
2280.701,584.05609,
2277.791,604.25955,
2274.880,599.78398,
2271.969,612.62346,
2269.059,621.03133,
2266.148,623.33639,
2263.238,634.49613,
2260.327,660.36178,
2257.417,632.44889,
2254.506,638.73648,
2251.595,634.36551,
2248.685,626.02693,
2245.774,633.60975,
2242.864,645.47255,
2239.953,658.58967,
2237.043,650.43465,
2234.132,638.09483,
2231.221,650.84375,
2228.311,667.06829,
2225.400,646.97847,
2222.490,666.28508,
2219.579,678.5,
2216.669,681.48569,
2213.758,679.93398,
2210.847,683.14231,
2207.937,667.23292,
2205.026,689.94461,
2202.116,697.29934,
2199.205,718.95082,
2196.294,705.30999,
2193.384,702.52649,
2190.473,706.50587,
2187.563,733.558,
2184.652,746.7049,
2181.742,755.27295,
2178.831,772.25103,
2175.920,785.00273,
2173.010,800.62642,
2170.099,816.16568,
2167.189,840.73679,
2164.278,874.96734,
2161.368,891.21335,
2158.457,914.31264,
2155.546,940.80196,
2152.636,986.06907,
2149.725,1026.7953,
2146.815,1057.6324,
2143.904,1091.0093,
2140.993,1113.0344,
2138.083,1110.7705,
2135.172,1120.9034,
2132.262,1150.6505,
2129.351,1122.2308,
2126.441,1122.7525,
2123.530,1123.7592,
2120.619,1057.6743,
2117.709,1046.4352,
2114.798,1015.1268,
2111.888,979.17559,
2108.977,938.52647,
2106.067,902.0238,
2103.156,862.06627,
2100.245,858.50816,
2097.335,866.68325,
2094.424,837.00504,
2091.514,851.63976,
2088.603,834.63369,
2085.692,833.91257,
2082.782,839.67271,
2079.871,819.60619,
2076.961,833.27302,
2074.050,833.93636,
2071.140,844.10907,
2068.229,850.86719,
2065.318,839.99324,
2062.408,815.21938,
2059.497,813.12502,
2056.587,822.20929,
2053.676,820.05015,
2050.766,836.11435,
2047.855,822.90194,
2044.944,804.49519,
2042.034,822.23995,
2039.123,828.65825,
2036.213,825.20895,
2033.302,831.08713,
2030.391,837.60126,
2027.481,854.68285,
2024.570,865.08551,
2021.660,876.84958,
2018.749,848.23407,
2015.839,843.11417,
2012.928,862.23491,
2010.017,892.79859,
2007.107,890.47569,
2004.196,877.35712,
2001.286,874.5212,
1998.375,881.37107,
1995.465,881.92679,
1992.554,883.25293,
1989.643,867.08758,
1986.733,851.05176,
1983.822,878.21787,
1980.912,869.8955,
1978.001,862.86365,
1975.090,896.10153,
1972.180,891.6383,
1969.269,890.33047,
1966.359,898.98657,
1963.448,901.03897,
1960.538,881.83528,
1957.627,892.65791,
1954.716,929.46583,
1951.806,908.89099,
1948.895,936.13764,
1945.985,935.18954,
1943.074,912.25649,
1940.164,925.35619,
1937.253,953.47404,
1934.342,926.84172,
1931.432,906.76814,
1928.521,915.24093,
1925.611,929.14926,
1922.700,924.58564,
1919.790,944.89281,
1916.879,907.56898,
1913.968,918.48279,
1911.058,940.22673,
1908.147,949.43722,
1905.237,941.70588,
1902.326,933.22594,
1899.415,910.29877,
1896.505,881.3613,
1893.594,880.6708,
1890.684,933.99652,
1887.773,990.64587,
1884.863,1002.8462,
1881.952,960.13788,
1879.041,949.55192,
1876.131,988.14704,
1873.220,976.45125,
1870.310,988.35199,
1867.399,988.51599,
1864.489,977.56536,
1861.578,957.11518,
1858.667,985.28741,
1855.757,1001.3007,
1852.846,1003.2641,
1849.936,1010.8954,
1847.025,1002.444,
1844.114,994.73061,
1841.204,1011.521,
1838.293,1014.0141,
1835.383,1000.5815,
1832.472,1016.6635,
1829.562,1033.0552,
1826.651,1034.5,
1823.740,1047.6035,
1820.830,1040.9251,
1817.919,1064.3744,
1815.009,1037.1069,
1812.098,1047.6575,
1809.188,1034.4923,
1806.277,1060.8803,
1803.366,1040.1821,
1800.456,1080.7198,
1797.545,1082.3795,
1794.635,1063.822,
1791.724,1076.1991,
1788.813,1063.1046,
1785.903,1052.4091,
1782.992,960.03797,
1780.082,900.1687,
1777.171,801.48606,
1774.261,773.22548,
1771.350,885.73503,
1768.439,1011.9493,
1765.529,1079.1446,
1762.618,1134.3988,
1759.708,1141.0761,
1756.797,1129.4394,
1753.887,1128.3469,
1750.976,1131.0137,
1748.065,1108.0668,
1745.155,1096.5,
1742.244,1158.0787,
1739.334,1160.7424,
1736.423,1155.9785,
1733.512,1163.1382,
1730.602,1163.004,
1727.691,1170.1766,
1724.781,1185.8718,
1721.870,1207.2049,
1718.960,1196.6998,
1716.049,1235.4487,
1713.138,1228.9651,
1710.228,1228.2406,
1707.317,1234.692,
1704.407,1264.2487,
1701.496,1273.8808,
1698.586,1268.9561,
1695.675,1307.7998,
1692.764,1328.4877,
1689.854,1316.1063,
1686.943,1329.9941,
1684.033,1381.2085,
1681.122,1357.9248,
1678.211,1348.5857,
1675.301,1376.4137,
1672.390,1426.4372,
1669.480,1405.7005,
1666.569,1430.7666,
1663.659,1452.7086,
1660.748,1525.4036,
1657.837,1521.0249,
1654.927,1545.1326,
1652.016,1571.014,
1649.106,1552.0141,
1646.195,1572.2123,
1643.285,1561.9356,
1640.374,1623.5418,
1637.463,1626.5629,
1634.553,1684.6478,
1631.642,1694.804,
1628.732,1722.9266,
1625.821,1794.5321,
1622.911,1843.2239,
1620.000,1928.4165,
1617.089,1982.4254,
1614.179,2053.4695,
1611.268,2240.3618,
1608.358,2310.4097,
1605.447,2375.7291,
1602.536,2427.0262,
1599.626,2425.9003,
1596.715,2440.9292,
1593.805,2404.9381,
1590.894,2389.932,
1587.984,2333.0701,
1585.073,2339.8147,
1582.162,2273.2045,
1579.252,2253.7719,
1576.341,2253.3011,
1573.431,2280.9111,
1570.520,2260.218,
1567.610,2246.2842,
1564.699,2254.6504,
1561.788,2210.6131,
1558.878,2198.6932,
1555.967,2176.7341,
1553.057,2130.3279,
1550.146,2084.4601,
1547.235,2068.0903,
1544.325,2060.017,
1541.414,2038.9185,
1538.504,2017.7654,
1535.593,2016.3168,
1532.683,2017.9873,
1529.772,2000.2877,
1526.861,1954.1184,
1523.951,1934.3359,
1521.040,1957.2329,
1518.130,1916.9927,
1515.219,1921.6601,
1512.309,1927.428,
1509.398,1942.907,
1506.487,1910.7756,
1503.577,1903.2384,
1500.666,1880.8504,
1497.756,1895.8385,
1494.845,1852.7407,
1491.934,1882.4339,
1489.024,1862.2215,
1486.113,1885.6076,
1483.203,1851.9733,
1480.292,1810.1655,
1477.382,1835.0217,
1474.471,1817.1765,
1471.560,1795.7123,
1468.650,1801.4324,
1465.739,1819.3098,
1462.829,1785.3196,
1459.918,1777.3897,
1457.008,1796.0385,
1454.097,1770.7705,
1451.186,1764.6992,
1448.276,1812.938,
1445.365,1831.2141,
1442.455,1831.5065,
1439.544,1830.302,
1436.633,1810.0352,
1433.723,1863.1291,
1430.812,1852.1701,
1427.902,1834.4627,
1424.991,1790.8656,
1422.081,1817.9418,
1419.170,1855.9265,
1416.259,1863.1201,
1413.349,1842.3533,
1410.438,1871.1888,
1407.528,1874.2689,
1404.617,1852.8218,
1401.707,1879.0659,
1398.796,1904.8916,
1395.885,1896.2598,
1392.975,1897.3335,
1390.064,1891.3162,
1387.154,1876.183,
1384.243,1903.8084,
1381.332,1856.3733,
1378.422,1890.3983,
1375.511,1946.6052,
1372.601,1981.5981,
1369.690,2017.0745,
1366.780,2100.1194,
1363.869,2120.5,
1360.958,2107.9559,
1358.048,2151.9315,
1355.137,2192.2825,
1352.227,2225.4087,
1349.316,2263.1659,
1346.406,2259.0048,
1343.495,2246.2091,
1340.584,2287.7496,
1337.674,2318.644,
1334.763,2334.2417,
1331.853,2274.899,
1328.942,2313.4153,
1326.032,2311.1594,
1323.121,2314.6868,
1320.210,2359.1189,
1317.300,2345.0861,
1314.389,2346.1949,
1311.479,2380.1116,
1308.568,2404.3533,
1305.657,2426.9048,
1302.747,2431.7131,
1299.836,2439.5713,
1296.926,2464.7901,
1294.015,2535.578,
1291.105,2599.2574,
1288.194,2645.0409,
1285.283,2688.1521,
1282.373,2719.2187,
1279.462,2753.6564,
1276.552,2797.6576,
1273.641,2834.9902,
1270.731,2834.9164,
1267.820,2796.4613,
1264.909,2790.8075,
1261.999,2779.1658,
1259.088,2797.4082,
1256.178,2807.0646,
1253.267,2791.6217,
1250.356,2722.8381,
1247.446,2664.3371,
1244.535,2637.067,
1241.625,2608.9112,
1238.714,2568.8478,
1235.804,2522.3788,
1232.893,2435.9946,
1229.982,2458.9055,
1227.072,2411.8293,
1224.161,2397.5735,
1221.251,2355.2965,
1218.340,2299.3922,
1215.430,2270.4441,
1212.519,2248.2951,
1209.608,2234.9419,
1206.698,2250.7979,
1203.787,2252.5151,
1200.877,2229.7905,
1197.966,2299.0258,
1195.055,2334.0702,
1192.145,2394.3481,
1189.234,2436.5053,
1186.324,2482.7759,
1183.413,2499.4594,
1180.503,2480.1039,
1177.592,2465.7827,
1174.681,2450.0788,
1171.771,2425.9024,
1168.860,2400.0028,
1165.950,2345.8975,
1163.039,2315.3415,
1160.129,2329.9145,
1157.218,2349.3459,
1154.307,2338.288,
1151.397,2315.3675,
1148.486,2316.9063,
1145.576,2278.4592,
1142.665,2254.4856,
1139.754,2262.2635,
1136.844,2258.8976,
1133.933,2253.5675,
1131.023,2228.8394,
1128.112,2207.7851,
1125.202,2206.8044,
1122.291,2182.2574,
1119.380,2201.8898,
1116.470,2241.6035,
1113.559,2265.058,
1110.649,2271.8097,
1107.738,2277.8582,
1104.828,2288.7415,
1101.917,2278.2684,
1099.006,2243.0152,
1096.096,2291.4787,
1093.185,2274.7966,
1090.275,2250.8404,
1087.364,2272.9449,
1084.453,2261.8765,
1081.543,2256.6466,
1078.632,2263.158,
1075.722,2244.0732,
1072.811,2260.2446,
1069.901,2270.7238,
1066.990,2285.2416,
1064.079,2295.9857,
1061.169,2312.7552,
1058.258,2330.2758,
1055.348,2353.904,
1052.437,2387.0241,
1049.527,2380.1713,
1046.616,2397.5479,
1043.705,2384.0847,
1040.795,2395.4626,
1037.884,2406.523,
1034.974,2404.4034,
1032.063,2403.9382,
1029.153,2424.1884,
1026.242,2421.5935,
1023.331,2423.1666,
1020.421,2427.6826,
1017.510,2452.4713,
1014.600,2483.6108,
1011.689,2501.2149,
1008.778,2487.1584,
1005.868,2410.3958,
1002.957,2510.1969,
1000.047,2564.084,
997.136,2673.6468,
994.226,2754.3306,
991.315,2765.4109,
988.404,2741.61,
985.494,2690.5192,
982.583,2691.3757,
979.673,2661.5025,
976.762,2652.2613,
973.852,2668.9704,
970.941,2697.3914,
968.030,2709.9334,
965.120,2661.6253,
962.209,2691.4643,
959.299,2673.836,
956.388,2702.5776,
953.477,2725.5125,
950.567,2723.3427,
947.656,2749.6222,
944.746,2781.0558,
941.835,2780.0706,
938.925,2769.6292,
936.014,2744.267,
933.103,2734.7397,
930.193,2744.3112,
927.282,2707.0875,
924.372,2699.4771,
921.461,2658.7344,
918.551,2642.1763,
915.640,2607.7793,
912.729,2569.4038,
909.819,2586.5008,
906.908,2594.0827,
903.998,2600.8629,
901.087,2619.0492,
898.176,2628.5,
895.266,2649.4483,
892.355,2692.4582,
889.445,2681.5477,
886.534,2750.7944,
883.624,2760.463,
880.713,2787.0799,
877.802,2780.4556,
874.892,2678.2599,
871.981,2502.5421,
869.071,2250.2474,
866.160,2358.9811,
863.250,2569.0348,
860.339,2703.2276,
857.428,2718.474,
854.518,2736.6114,
851.607,2636.7631,
848.697,2522.5178,
845.786,2460.8552,
842.875,2496.5827,
839.965,2620.9814,
837.054,2746.3698,
834.144,2734.7672,
831.233,2769.164,
828.323,2763.7606,
825.412,2755.9201,
822.501,2775.0103,
819.591,2689.0647,
816.680,2717.7501,
813.770,2695.4279,
810.859,2664.414,
807.949,2654.8391,
805.038,2668.7124,
802.127,2645.6648,
799.217,2679.2788,
796.306,2661.4187,
793.396,2636.1641,
790.485,2640.2915,
787.574,2670.3096,
784.664,2691.6325,
781.753,2684.0933,
778.843,2687.3215,
775.932,2699.2777,
773.022,2706.8948,
770.111,2715.8881,
767.200,2716.5,
764.290,2722.2788,
761.379,2719.8043,
758.469,2701.1293,
755.558,2669.5,
752.648,2669.5,
749.737,2660.361,
746.826,2661.0947,
743.916,2663.3116,
741.005,2645.8055,
738.095,2586.5385,
735.184,2524.4404,
732.274,2462.5318,
729.363,2448.355,
726.452,2519.8584,
723.542,2676.8808,
720.631,2683.9709,
717.721,2713.288,
714.810,2713.0399,
711.899,2683.6485,
708.989,2714.3117,
706.078,2685.6531,
703.168,2683.3578,
700.257,2682.3743,
697.347,2667.3705,
694.436,2636.4203,
691.525,2707.1552,
688.615,2689.1677,
685.704,2676.4071,
682.794,2677.5426,
679.883,2653.987,
676.973,2709.2816,
674.062,2684.1293,
671.151,2676.6499,
668.241,2695.406,
665.330,2700.3655,
662.420,2676.4036,
659.509,2732.4534,
656.598,2773.1257,
653.688,2770.8382,
650.777,2736.2858,
647.867,2670.9869,
644.956,2619.351,
642.046,2594.8416,
639.135,2587.679,
636.224,2569.7427,
633.314,2618.173,
630.403,2687.8474,
627.493,2728.2681,
624.582,2744.332,
621.672,2810.8595,
618.761,2830.2187,
615.850,2821.7253,
612.940,2840.8966,
610.029,2904.4979,
607.119,2934.5038,
604.208,2904.8394,
601.297,2889.5059,
598.387,2884.6337,
595.476,2879.9512,
592.566,2905.9245,
589.655,2900.1338,
586.745,2881.047,
583.834,2864.8175,
580.923,2869.1967,
578.013,2818.9737,
575.102,2794.6018,
572.192,2789.3583,
569.281,2803.0766,
566.371,2850.8166,
563.460,2843.507,
560.549,2834.1145,
557.639,2852.5964,
554.728,2910.0309,
551.818,2823.4158,
548.907,2872.1449,
545.996,2888.6735,
543.086,2842.8092,
540.175,2825.679,
537.265,2867.2325,
534.354,2907.0795,
531.444,2932.4506,
528.533,2937.0585,
525.622,2930.851,
522.712,2958.0174,
519.801,2953.9691,
516.891,2932.5245,
513.980,3006.8569,
511.070,3012.0913,
508.159,3057.3464,
505.248,3114.0094,
502.338,3134.8103,
499.427,3179.5766,
496.517,3216.3889,
493.606,3226.0782,
490.695,3210.8165,
487.785,3234.68,
484.874,3248.8396,
481.964,3248.6861,
479.053,3230.204,
476.143,3187.198,
473.232,3152.1268,
470.321,3165.2885,
467.411,3182.6229,
464.500,3154.586,
461.590,3197.4675,
458.679,3202.8965,
455.769,3214.1984,
452.858,3247.8753,
449.947,3222.6656,
447.037,3249.6583,
444.126,3286.0273,
441.216,3301.9169,
438.305,3240.9624,
435.395,3263.3149,
432.484,3297.4203,
429.573,3307.4123,
426.663,3242.8004,
423.752,3003.8646,
420.842,2665.9367,
417.931,2383.2072,
415.020,2378.657,
412.110,2797.7143,
409.199,3083.5292,
406.289,3200.5917,
403.378,3136.4769,
400.468,3129.673,
397.557,3176.8584,
394.646,3257.9762,
391.736,3351.7173,
388.825,3358.5054,
385.915,3371.1439,
383.004,3382.2133,
380.094,3387.1142,
377.183,3399.1538,
374.272,3465.4625,
371.362,3524.9752,
368.451,3540.8647,
365.541,3546.869,
362.630,3558.3323,
359.719,3587.2177,
356.809,3633.5096,
353.898,3584.0889,
350.988,3554.2254,
348.077,3544.8561,
345.167,3556.4082,
342.256,3574.3378,
339.345,3606.6031,
336.435,3620.7843,
333.524,3594.6309,
330.614,3567.0602,
327.703,3595.9786,
324.793,3612.939,
321.882,3559.527,
318.971,3570.6787,
316.061,3605.2638,
313.150,3625.9524,
310.240,3588.8466,
307.329,3623.9465,
304.418,3646.7072,
301.508,3655.9092,
298.597,3653.688,
295.687,3684.6531,
292.776,3697.4167,
289.866,3717.5422,
286.955,3826.8736,
284.044,3893.0999,
281.134,3946.939,
278.223,3998.6314,
275.313,4067.8958,
272.402,4079.0146,
269.492,4051.4686,
266.581,3996.8168,
263.670,3987.2595,
260.760,4026.813,
257.849,4105.7905,
254.939,4221.01,
252.028,4226.8431,
249.117,4197.4357,
246.207,4184.934,
243.296,4279.3667,
240.386,4306.4778,
237.475,4317.4209,
234.565,4318.8895,
231.654,4308.6642,
228.743,4270.8272,
225.833,4252.4273,
222.922,4269.7526,
220.012,4253.7244,
217.101,4204.8263,
214.191,4173.4879,
211.280,4220.0455,
208.369,4243.0116,
205.459,4268.8693,
202.548,4290.3663,
199.638,4272.2251,
196.727,4276.567,
193.816,4289.7245,
190.906,4309.1919,
187.995,4385.9385,
185.085,4425.2671,
182.174,4434.7988,
179.264,4417.4524,
176.353,4434.7234,
173.442,4419.0333,
170.532,4360.739,
167.621,4259.8024,
164.711,4126.8609,
161.800,3947.2027,
158.890,3700.3362,
155.979,3425.5706,
153.068,3128.1239,
150.158,2809.48,
147.247,2468.4526,
144.337,2024.4581,
141.426,1572.533,
138.516,1155.3023,
135.605,798.65262,
132.694,539.0699,
129.784,360.50399,
126.873,242.50757,
123.963,166.71462,
121.052,116.16843,
118.141,87.612351,
115.231,64.761749,
112.320,58.041816,
109.410,59.045605,
106.499,46.226811,
103.589,36.216692,
100.678,31.858109,
97.767,35.412796,
94.857,33.421033,
91.946,26.856448,
89.036,18.612898,
86.125,19.322103,
83.215,17.376319,
80.304,14.302837,
77.393,10.761987,
74.483,16.396215,
71.572,20.224704,
68.662,20.599523,
65.751,11.415658,
62.840,13.31702,
59.930,16.627138,
57.019,9.5763182,
54.109,4.9170349,
51.198,4.9128742,
48.288,10.539637,
45.377,15.463284,
42.466,16.675561,
39.556,13.773221,
36.645,3.2403681,
33.735,5.6924847,
30.824,9.8373391,
27.914,7.7338133,
25.003,13.103737,
22.092,17.791618,
19.182,21.186486,
16.271,42.17119,
13.361,170.61552,
10.450,422.51739,
7.539,928.09771,
4.629,1191.1629,
1.718,1178.7262,
-1.192,736.03938,
-4.103,294.84521,
-7.013,31.602904,
-9.924,-2.5,
