,PL75F3~1,
Raman shift [1/cm],Intensity,
3014.167,-4.125,
3011.256,-0.82493558,
3008.346,30.937279,
3005.435,40.56758,
3002.525,41.875,
2999.614,45.399673,
2996.704,47.282215,
2993.793,38.35196,
2990.882,59.829177,
2987.972,38.91536,
2985.061,49.535102,
2982.151,46.710289,
2979.240,64.292305,
2976.329,63.129095,
2973.419,53.952022,
2970.508,48.02501,
2967.598,68.205923,
2964.687,59.650815,
2961.777,73.028929,
2958.866,70.207838,
2955.955,63.286514,
2953.045,63.756416,
2950.134,71.705951,
2947.224,68.875,
2944.313,70.223291,
2941.403,56.231754,
2938.492,72.598582,
2935.581,69.127777,
2932.671,76.394307,
2929.760,68.59807,
2926.850,76.247931,
2923.939,79.35161,
2921.028,81.627848,
2918.118,76.955606,
2915.207,84.22946,
2912.297,85.875,
2909.386,93.458947,
2906.476,78.813213,
2903.565,76.600181,
2900.654,88.098456,
2897.744,84.98815,
2894.833,89.339002,
2891.923,78.009598,
2889.012,79.083093,
2886.102,78.06284,
2883.191,78.873112,
2880.280,72.142932,
2877.370,69.71215,
2874.459,70.000676,
2871.549,73.941062,
2868.638,91.829638,
2865.727,87.505776,
2862.817,94.346917,
2859.906,90.444799,
2856.996,98.856885,
2854.085,85.269926,
2851.175,87.447275,
2848.264,93.159333,
2845.353,86.176938,
2842.443,95.881963,
2839.532,107.72564,
2836.622,81.813152,
2833.711,78.504517,
2830.801,82.67353,
2827.890,82.500882,
2824.979,95.862938,
2822.069,102.63619,
2819.158,79.974729,
2816.248,92.564208,
2813.337,95.720131,
2810.427,89.868103,
2807.516,86.724064,
2804.605,95.326929,
2801.695,96.38814,
2798.784,96.357538,
2795.874,91.299797,
2792.963,89.73202,
2790.052,81.876072,
2787.142,89.2565,
2784.231,83.003879,
2781.321,91.429214,
2778.410,79.419399,
2775.500,90.577415,
2772.589,88.875,
2769.678,91.195808,
2766.768,89.00509,
2763.857,89.295037,
2760.947,77.352935,
2758.036,83.193528,
2755.126,101.01603,
2752.215,105.875,
2749.304,87.556676,
2746.394,91.626985,
2743.483,91.975041,
2740.573,86.536516,
2737.662,99.885352,
2734.751,99.059583,
2731.841,80.387816,
2728.930,100.875,
2726.020,101.43113,
2723.109,89.462835,
2720.199,98.443761,
2717.288,95.243612,
2714.377,91.26254,
2711.467,96.055222,
2708.556,108.69395,
2705.646,104.88906,
2702.735,102.71779,
2699.825,103.07133,
2696.914,90.636814,
2694.003,105.74655,
2691.093,101.3034,
2688.182,105.27574,
2685.272,92.751243,
2682.361,106.81605,
2679.450,113.58282,
2676.540,110.38722,
2673.629,93.511735,
2670.719,106.23267,
2667.808,98.264085,
2664.898,104.732,
2661.987,106.64154,
2659.076,107.98491,
2656.166,110.00483,
2653.255,112.17432,
2650.345,110.14723,
2647.434,116.84613,
2644.524,109.34984,
2641.613,116.24646,
2638.702,109.98547,
2635.792,110.71847,
2632.881,120.38083,
2629.971,112.78767,
2627.060,110.54063,
2624.149,117.95625,
2621.239,114.62055,
2618.328,108.17171,
2615.418,109.89772,
2612.507,118.49153,
2609.597,105.35404,
2606.686,107.12198,
2603.775,107.55754,
2600.865,109.75894,
2597.954,117.92291,
2595.044,119.53576,
2592.133,116.5947,
2589.223,121.89922,
2586.312,114.16648,
2583.401,113.50641,
2580.491,128.68268,
2577.580,103.91626,
2574.670,122.78678,
2571.759,109.07705,
2568.848,105.11254,
2565.938,116.97009,
2563.027,133.21593,
2560.117,132.59464,
2557.206,125.02629,
2554.296,130.53175,
2551.385,125.80897,
2548.474,123.28244,
2545.564,119.03328,
2542.653,110.11661,
2539.743,129.27026,
2536.832,127.30303,
2533.922,129.96962,
2531.011,132.3003,
2528.100,131.40464,
2525.190,119.90123,
2522.279,133.43778,
2519.369,138.53576,
2516.458,117.20361,
2513.548,140.19278,
2510.637,122.30538,
2507.726,128.875,
2504.816,130.00014,
2501.905,121.13598,
2498.995,127.11388,
2496.084,133.02135,
2493.173,137.875,
2490.263,135.48178,
2487.352,137.1254,
2484.442,140.02704,
2481.531,138.1409,
2478.621,139.8039,
2475.710,138.95935,
2472.799,148.88846,
2469.889,146.35977,
2466.978,136.05036,
2464.068,142.40943,
2461.157,136.64498,
2458.247,136.03672,
2455.336,133.51297,
2452.425,143.7901,
2449.515,139.59226,
2446.604,146.93955,
2443.694,130.89801,
2440.783,146.9268,
2437.872,138.31258,
2434.962,149.34966,
2432.051,147.38734,
2429.141,139.75744,
2426.230,149.96232,
2423.320,156.36104,
2420.409,138.33663,
2417.498,136.25984,
2414.588,161.12966,
2411.677,157.16187,
2408.767,163.86319,
2405.856,160.875,
2402.946,151.97598,
2400.035,151.47125,
2397.124,154.57017,
2394.214,171.9822,
2391.303,159.58774,
2388.393,160.35408,
2385.482,147.53593,
2382.571,167.55875,
2379.661,166.08421,
2376.750,165.61397,
2373.840,163.58123,
2370.929,163.88583,
2368.019,163.21307,
2365.108,150.64202,
2362.197,154.27774,
2359.287,177.02654,
2356.376,166.90318,
2353.466,164.48117,
2350.555,165.6401,
2347.645,171.0591,
2344.734,159.26668,
2341.823,174.55992,
2338.913,157.47352,
2336.002,166.72905,
2333.092,173.25425,
2330.181,175.875,
2327.270,164.53506,
2324.360,149.4457,
2321.449,174.67431,
2318.539,166.3857,
2315.628,173.84942,
2312.718,177.75826,
2309.807,186.01163,
2306.896,187.37109,
2303.986,185.875,
2301.075,177.85375,
2298.165,171.27882,
2295.254,175.76728,
2292.344,190.93316,
2289.433,183.31137,
2286.522,203.71434,
2283.612,195.80484,
2280.701,183.6239,
2277.791,182.1956,
2274.880,194.36892,
2271.969,203.13837,
2269.059,186.96491,
2266.148,182.4159,
2263.238,187.27268,
2260.327,208.94397,
2257.417,206.79111,
2254.506,193.63852,
2251.595,193.44225,
2248.685,188.77311,
2245.774,192.18258,
2242.864,197.6256,
2239.953,221.73709,
2237.043,216.70607,
2234.132,207.16595,
2231.221,203.71739,
2228.311,195.30671,
2225.400,205.64984,
2222.490,198.61769,
2219.579,201.875,
2216.669,200.87977,
2213.758,200.52729,
2210.847,215.3838,
2207.937,216.95644,
2205.026,243.87588,
2202.116,226.6924,
2199.205,238.03806,
2196.294,231.37099,
2193.384,241.98001,
2190.473,244.01702,
2187.563,236.04417,
2184.652,271.02561,
2181.742,272.46598,
2178.831,276.95283,
2175.920,283.20651,
2173.010,295.75085,
2170.099,286.00992,
2167.189,292.74584,
2164.278,274.28807,
2161.368,278.01699,
2158.457,292.90961,
2155.546,293.35962,
2152.636,316.38558,
2149.725,317.38507,
2146.815,319.74152,
2143.904,322.27648,
2140.993,326.80621,
2138.083,331.33396,
2135.172,330.90019,
2132.262,325.99736,
2129.351,321.09912,
2126.441,311.04002,
2123.530,294.88622,
2120.619,295.46217,
2117.709,287.33756,
2114.798,266.43648,
2111.888,247.62545,
2108.977,253.13329,
2106.067,240.64042,
2103.156,254.99104,
2100.245,243.87625,
2097.335,244.06872,
2094.424,230.63565,
2091.514,229.15994,
2088.603,231.19757,
2085.692,233.10178,
2082.782,231.16818,
2079.871,233.33941,
2076.961,230.13331,
2074.050,238.39015,
2071.140,231.44951,
2068.229,241.33725,
2065.318,242.20926,
2062.408,238.68515,
2059.497,233.50598,
2056.587,235.36351,
2053.676,222.0756,
2050.766,221.72104,
2047.855,219.98892,
2044.944,223.47596,
2042.034,221.58599,
2039.123,229.65614,
2036.213,236.01053,
2033.302,222.26642,
2030.391,215.23095,
2027.481,223.05785,
2024.570,235.14618,
2021.660,250.98806,
2018.749,201.28065,
2015.839,237.8166,
2012.928,243.64513,
2010.017,241.57641,
2007.107,240.13108,
2004.196,232.66068,
2001.286,243.21065,
1998.375,246.82874,
1995.465,238.15536,
1992.554,220.2222,
1989.643,229.46024,
1986.733,227.23289,
1983.822,216.01606,
1980.912,218.24145,
1978.001,225.06981,
1975.090,234.25821,
1972.180,233.15161,
1969.269,236.76297,
1966.359,232.2532,
1963.448,226.33603,
1960.538,230.93255,
1957.627,218.50038,
1954.716,226.58773,
1951.806,231.67629,
1948.895,228.25759,
1945.985,226.58578,
1943.074,212.67938,
1940.164,224.14433,
1937.253,244.78777,
1934.342,247.25094,
1931.432,234.60686,
1928.521,224.83527,
1925.611,231.84889,
1922.700,215.50622,
1919.790,221.07141,
1916.879,235.89851,
1913.968,218.89713,
1911.058,191.70685,
1908.147,245.21076,
1905.237,239.08822,
1902.326,235.03944,
1899.415,225.50424,
1896.505,203.53784,
1893.594,221.06095,
1890.684,211.32599,
1887.773,221.42643,
1884.863,254.1119,
1881.952,236.48781,
1879.041,232.70937,
1876.131,236.68938,
1873.220,221.18467,
1870.310,228.15749,
1867.399,259.3792,
1864.489,238.10866,
1861.578,241.63341,
1858.667,218.70136,
1855.757,219.04922,
1852.846,235.31094,
1849.936,211.17628,
1847.025,238.34702,
1844.114,233.08206,
1841.204,230.81556,
1838.293,226.87334,
1835.383,229.5145,
1832.472,250.44543,
1829.562,265.1526,
1826.651,235.10502,
1823.740,223.78688,
1820.830,260.37138,
1817.919,243.1862,
1815.009,238.58747,
1812.098,255.93011,
1809.188,218.47974,
1806.277,249.12252,
1803.366,248.89164,
1800.456,249.27047,
1797.545,240.25791,
1794.635,249.48893,
1791.724,224.99144,
1788.813,249.27294,
1785.903,244.75096,
1782.992,240.41297,
1780.082,223.02171,
1777.171,251.5431,
1774.261,256.14499,
1771.350,258.041,
1768.439,248.83048,
1765.529,246.24172,
1762.618,280.8519,
1759.708,266.22252,
1756.797,233.10985,
1753.887,244.54264,
1750.976,219.90577,
1748.065,229.28359,
1745.155,247.04277,
1742.244,241.56432,
1739.334,282.32675,
1736.423,280.67877,
1733.512,274.05793,
1730.602,292.07939,
1727.691,270.23922,
1724.781,276.81995,
1721.870,259.1463,
1718.960,262.09732,
1716.049,263.875,
1713.138,266.43999,
1710.228,258.17203,
1707.317,302.87271,
1704.407,275.6343,
1701.496,262.75952,
1698.586,295.13844,
1695.675,283.83937,
1692.764,294.23566,
1689.854,322.61911,
1686.943,292.95422,
1684.033,340.63319,
1681.122,301.57169,
1678.211,333.56093,
1675.301,298.98292,
1672.390,296.00958,
1669.480,341.06753,
1666.569,364.32908,
1663.659,322.90394,
1660.748,383.89163,
1657.837,334.22492,
1654.927,350.78874,
1652.016,388.38902,
1649.106,369.97665,
1646.195,414.25862,
1643.285,429.07747,
1640.374,394.83319,
1637.463,393.48749,
1634.553,427.17056,
1631.642,447.25503,
1628.732,481.74464,
1625.821,459.90313,
1622.911,502.63269,
1620.000,541.38365,
1617.089,562.45709,
1614.179,575.50839,
1611.268,639.42126,
1608.358,641.875,
1605.447,657.9037,
1602.536,660.73877,
1599.626,689.39292,
1596.715,701.85861,
1593.805,671.57338,
1590.894,642.33557,
1587.984,646.66983,
1585.073,641.06847,
1582.162,646.55409,
1579.252,630.69068,
1576.341,619.66543,
1573.431,603.77787,
1570.520,632.74321,
1567.610,637.65923,
1564.699,595.99836,
1561.788,594.95937,
1558.878,585.85421,
1555.967,569.62569,
1553.057,551.47858,
1550.146,526.05322,
1547.235,522.54924,
1544.325,522.21968,
1541.414,535.69689,
1538.504,525.18487,
1535.593,516.45626,
1532.683,523.68712,
1529.772,507.26884,
1526.861,499.07034,
1523.951,494.89324,
1521.040,491.24528,
1518.130,489.2012,
1515.219,468.2358,
1512.309,451.28044,
1509.398,481.58605,
1506.487,481.04013,
1503.577,496.34812,
1500.666,472.51725,
1497.756,450.52812,
1494.845,505.91448,
1491.934,482.78681,
1489.024,455.83701,
1486.113,435.40347,
1483.203,413.44714,
1480.292,458.39164,
1477.382,421.6131,
1474.471,384.78411,
1471.560,407.35298,
1468.650,444.15613,
1465.739,418.08608,
1462.829,393.89091,
1459.918,405.68727,
1457.008,404.18253,
1454.097,406.2019,
1451.186,414.14193,
1448.276,404.08882,
1445.365,408.51797,
1442.455,417.52795,
1439.544,434.50986,
1436.633,420.42813,
1433.723,413.48604,
1430.812,443.06746,
1427.902,407.62695,
1424.991,397.20157,
1422.081,357.42348,
1419.170,383.25305,
1416.259,438.09891,
1413.349,406.82626,
1410.438,369.08249,
1407.528,377.54351,
1404.617,389.63638,
1401.707,399.35405,
1398.796,393.65825,
1395.885,400.37124,
1392.975,413.87429,
1390.064,369.63108,
1387.154,323.38803,
1384.243,268.28739,
1381.332,233.97764,
1378.422,253.38686,
1375.511,302.09947,
1372.601,383.05162,
1369.690,397.59,
1366.780,452.73339,
1363.869,441.4483,
1360.958,451.68149,
1358.048,461.875,
1355.137,459.24658,
1352.227,448.63966,
1349.316,493.31105,
1346.406,560.67422,
1343.495,530.59454,
1340.584,552.94671,
1337.674,536.59021,
1334.763,549.64002,
1331.853,517.18693,
1328.942,551.45356,
1326.032,560.76872,
1323.121,601.14612,
1320.210,600.22474,
1317.300,570.44618,
1314.389,552.8194,
1311.479,553.05945,
1308.568,557.31176,
1305.657,566.05607,
1302.747,575.20272,
1299.836,554.03476,
1296.926,591.85777,
1294.015,613.00221,
1291.105,622.68042,
1288.194,647.83729,
1285.283,691.82316,
1282.373,695.48442,
1279.462,724.56059,
1276.552,726.46543,
1273.641,706.6428,
1270.731,735.87203,
1267.820,761.95239,
1264.909,758.51123,
1261.999,678.93748,
1259.088,762.85262,
1256.178,724.19572,
1253.267,722.24537,
1250.356,708.97541,
1247.446,688.38028,
1244.535,687.29908,
1241.625,684.16763,
1238.714,660.64776,
1235.804,637.91875,
1232.893,610.86729,
1229.982,644.46446,
1227.072,602.82011,
1224.161,627.61162,
1221.251,569.59172,
1218.340,535.56657,
1215.430,542.63838,
1212.519,547.53637,
1209.608,540.22938,
1206.698,547.51346,
1203.787,571.3926,
1200.877,593.86905,
1197.966,561.49931,
1195.055,601.68418,
1192.145,636.67471,
1189.234,668.58273,
1186.324,689.60311,
1183.413,692.90038,
1180.503,680.11812,
1177.592,665.80431,
1174.681,668.74829,
1171.771,666.47383,
1168.860,605.74375,
1165.950,641.80205,
1163.039,624.63729,
1160.129,611.10543,
1157.218,607.47132,
1154.307,599.30962,
1151.397,590.65704,
1148.486,596.02199,
1145.576,613.52807,
1142.665,605.53686,
1139.754,599.1796,
1136.844,582.46834,
1133.933,569.42343,
1131.023,571.48434,
1128.112,584.23137,
1125.202,593.875,
1122.291,591.8696,
1119.380,577.95295,
1116.470,585.89571,
1113.559,599.24698,
1110.649,591.08778,
1107.738,591.30482,
1104.828,587.30471,
1101.917,581.8635,
1099.006,603.85431,
1096.096,615.61736,
1093.185,578.74125,
1090.275,625.24048,
1087.364,600.51049,
1084.453,578.81282,
1081.543,590.65095,
1078.632,609.62142,
1075.722,608.19142,
1072.811,613.7509,
1069.901,612.00437,
1066.990,595.70837,
1064.079,612.29042,
1061.169,634.57793,
1058.258,644.45151,
1055.348,637.99583,
1052.437,623.54702,
1049.527,622.41206,
1046.616,636.31333,
1043.705,644.04112,
1040.795,648.42902,
1037.884,647.85205,
1034.974,652.20618,
1032.063,660.01356,
1029.153,649.83638,
1026.242,641.18681,
1023.331,659.20716,
1020.421,669.84601,
1017.510,671.19417,
1014.600,674.52723,
1011.689,678.30937,
1008.778,676.41995,
1005.868,702.89817,
1002.957,705.47923,
1000.047,741.54702,
997.136,752.5257,
994.226,762.02867,
991.315,774.35272,
988.404,770.55074,
985.494,768.16534,
982.583,736.47276,
979.673,711.38889,
976.762,693.89426,
973.852,702.78737,
970.941,725.54243,
968.030,725.71305,
965.120,690.92512,
962.209,702.86071,
959.299,730.37197,
956.388,719.59636,
953.477,701.64192,
950.567,705.62632,
947.656,721.65218,
944.746,719.95307,
941.835,723.11425,
938.925,735.06185,
936.014,743.40413,
933.103,732.10432,
930.193,706.67524,
927.282,704.5918,
924.372,680.91481,
921.461,691.86661,
918.551,675.38046,
915.640,659.45006,
912.729,661.82692,
909.819,670.87584,
906.908,678.45767,
903.998,678.07964,
901.087,698.87971,
898.176,710.875,
895.266,707.38361,
892.355,705.84327,
889.445,737.73542,
886.534,710.32423,
883.624,708.23916,
880.713,720.59247,
877.802,736.08587,
874.892,739.44037,
871.981,710.81582,
869.071,708.30958,
866.160,723.05411,
863.250,731.44761,
860.339,732.51703,
857.428,730.34453,
854.518,723.94722,
851.607,726.44342,
848.697,713.80647,
845.786,711.50776,
842.875,716.97229,
839.965,718.18075,
837.054,705.92152,
834.144,710.06528,
831.233,708.20853,
828.323,689.56499,
825.412,668.97733,
822.501,668.08789,
819.591,697.01187,
816.680,701.88142,
813.770,668.41736,
810.859,650.58244,
807.949,656.3555,
805.038,664.16925,
802.127,674.86991,
799.217,684.0743,
796.306,665.30727,
793.396,674.95924,
790.485,707.87294,
787.574,677.81272,
784.664,676.1725,
781.753,668.49418,
778.843,677.12706,
775.932,687.09727,
773.022,680.875,
770.111,680.875,
767.200,699.90781,
764.290,681.60413,
761.379,670.57075,
758.469,679.6194,
755.558,674.48599,
752.648,661.45234,
749.737,648.43037,
746.826,629.35459,
743.916,587.34863,
741.005,510.43814,
738.095,435.74548,
735.184,343.21301,
732.274,307.24551,
729.363,362.03418,
726.452,496.3631,
723.542,615.34392,
720.631,636.40124,
717.721,663.21598,
714.810,677.9716,
711.899,675.62748,
708.989,678.85518,
706.078,659.64373,
703.168,655.48222,
700.257,660.82586,
697.347,667.44026,
694.436,665.39492,
691.525,647.7112,
688.615,640.10153,
685.704,636.57992,
682.794,636.51328,
679.883,642.45169,
676.973,655.27363,
674.062,654.04651,
671.151,658.44995,
668.241,668.54274,
665.330,673.49684,
662.420,665.50952,
659.509,650.54145,
656.598,649.36625,
653.688,656.2647,
650.777,650.73999,
647.867,646.75835,
644.956,689.83465,
642.046,695.73049,
639.135,665.45578,
636.224,663.92275,
633.314,673.45001,
630.403,664.642,
627.493,662.63612,
624.582,675.22986,
621.672,690.27775,
618.761,701.51415,
615.850,689.99833,
612.940,682.99802,
610.029,689.19237,
607.119,667.08271,
604.208,671.26512,
601.297,664.90168,
598.387,676.22588,
595.476,721.5269,
592.566,664.85799,
589.655,691.15684,
586.745,700.02579,
583.834,670.50412,
580.923,615.85131,
578.013,611.92764,
575.102,621.77318,
572.192,633.80513,
569.281,640.875,
566.371,640.875,
563.460,681.79216,
560.549,687.66759,
557.639,673.72649,
554.728,669.64877,
551.818,697.74015,
548.907,695.34322,
545.996,683.26558,
543.086,678.74669,
540.175,705.99929,
537.265,711.4964,
534.354,721.90543,
531.444,738.12011,
528.533,754.44698,
525.622,720.3053,
522.712,695.88591,
519.801,696.3314,
516.891,713.46646,
513.980,706.49779,
511.070,717.14456,
508.159,725.69553,
505.248,736.13406,
502.338,754.08428,
499.427,727.07016,
496.517,749.28911,
493.606,772.88448,
490.695,768.56292,
487.785,723.14527,
484.874,739.13906,
481.964,765.1639,
479.053,774.13052,
476.143,733.4285,
473.232,741.66606,
470.321,741.00924,
467.411,732.32936,
464.500,722.78649,
461.590,758.77628,
458.679,773.82765,
455.769,764.01217,
452.858,733.00012,
449.947,724.59687,
447.037,761.10092,
444.126,765.91137,
441.216,735.97594,
438.305,759.59582,
435.395,759.59682,
432.484,758.7085,
429.573,760.76251,
426.663,764.56321,
423.752,738.37308,
420.842,690.34012,
417.931,659.58766,
415.020,704.33079,
412.110,708.06984,
409.199,740.17081,
406.289,774.1049,
403.378,777.81096,
400.468,758.9111,
397.557,751.8467,
394.646,730.40473,
391.736,673.95749,
388.825,645.29671,
385.915,625.69893,
383.004,612.16294,
380.094,607.25135,
377.183,693.03366,
374.272,739.129,
371.362,768.17646,
368.451,793.14855,
365.541,797.65176,
362.630,805.42989,
359.719,816.49838,
356.809,830.64525,
353.898,843.37482,
350.988,825.17553,
348.077,815.00645,
345.167,834.11817,
342.256,819.1768,
339.345,818.59503,
336.435,834.92184,
333.524,867.91199,
330.614,837.36061,
327.703,830.44203,
324.793,829.26592,
321.882,818.95612,
318.971,852.41105,
316.061,846.29569,
313.150,831.57023,
310.240,843.44408,
307.329,807.42852,
304.418,806.5536,
301.508,810.07496,
298.597,761.94787,
295.687,759.90672,
292.776,762.12501,
289.866,783.80338,
286.955,878.36025,
284.044,963.97993,
281.134,1018.4648,
278.223,1048.4975,
275.313,1107.4459,
272.402,1173.3181,
269.492,1199.2009,
266.581,1171.0867,
263.670,1160.059,
260.760,1193.4418,
257.849,1236.3702,
254.939,1263.5239,
252.028,1274.7327,
249.117,1266.0838,
246.207,1245.1927,
243.296,1223.2316,
240.386,1251.5656,
237.475,1239.8294,
234.565,1187.0527,
231.654,1137.3866,
228.743,1105.011,
225.833,1081.5575,
222.922,1063.7199,
220.012,1038.949,
217.101,1020.57,
214.191,1008.7822,
211.280,1005.1449,
208.369,996.80124,
205.459,960.93497,
202.548,915.25663,
199.638,929.04396,
196.727,909.9788,
193.816,931.80386,
190.906,1017.7418,
187.995,956.92377,
185.085,927.3636,
182.174,911.21496,
179.264,886.64092,
176.353,951.79756,
173.442,976.82292,
170.532,956.64723,
167.621,980.43943,
164.711,961.64775,
161.800,917.00195,
158.890,852.94619,
155.979,831.38778,
153.068,781.30351,
150.158,708.14884,
147.247,639.22543,
144.337,506.21311,
141.426,389.78698,
138.516,329.56811,
135.605,223.39158,
132.694,153.17464,
129.784,107.81597,
126.873,61.332527,
123.963,42.200808,
121.052,32.891975,
118.141,27.894661,
115.231,17.927015,
112.320,14.722272,
109.410,15.738645,
106.499,15.02649,
103.589,10.392964,
100.678,5.2452698,
97.767,0.97964432,
94.857,2.2609781,
91.946,2.875,
89.036,3.1007958,
86.125,4.5192064,
83.215,9.1223628,
80.304,10.959539,
77.393,5.294179,
74.483,0.2890553,
71.572,1.8608733,
68.662,8.5286625,
65.751,4.9964071,
62.840,7.2469139,
59.930,9.5639966,
57.019,4.6284227,
54.109,0.88919576,
51.198,1.5894835,
48.288,7.9089747,
45.377,12.129243,
42.466,10.165026,
39.556,5.4505929,
36.645,8.961544,
33.735,8.8365031,
30.824,7.4332261,
27.914,6.0308756,
25.003,7.7429124,
22.092,5.6459544,
19.182,-0.55292843,
16.271,16.934325,
13.361,82.457659,
10.450,181.98517,
7.539,293.01731,
4.629,442.69504,
1.718,484.88774,
-1.192,253.43575,
-4.103,146.09331,
-7.013,67.296897,
-9.924,1.875,
