,PLCD80~1,
Raman shift [1/cm],Intensity,
3014.167,-0.375,
3011.256,-1.2250752,
3008.346,302.00292,
3005.435,353.51193,
3002.525,370.17254,
2999.614,371.76397,
2996.704,372.49201,
2993.793,396.34966,
2990.882,415.06012,
2987.972,417.68049,
2985.061,433.50185,
2982.151,449.3124,
2979.240,463.84077,
2976.329,472.38183,
2973.419,493.84015,
2970.508,509.17497,
2967.598,512.1507,
2964.687,531.69905,
2961.777,545.24897,
2958.866,545.28177,
2955.955,555.58961,
2953.045,588.35878,
2950.134,589.19934,
2947.224,630.65347,
2944.313,639.26531,
2941.403,659.05383,
2938.492,662.37027,
2935.581,669.58207,
2932.671,692.22587,
2929.760,712.66349,
2926.850,723.78177,
2923.939,705.625,
2921.028,709.47798,
2918.118,738.46379,
2915.207,730.39084,
2912.297,739.59115,
2909.386,759.84397,
2906.476,721.67281,
2903.565,747.38427,
2900.654,743.52993,
2897.744,738.49928,
2894.833,731.92391,
2891.923,743.9231,
2889.012,728.2435,
2886.102,739.35609,
2883.191,732.625,
2880.280,709.95514,
2877.370,690.99131,
2874.459,685.14711,
2871.549,720.86208,
2868.638,735.625,
2865.727,752.96731,
2862.817,759.45387,
2859.906,779.10648,
2856.996,786.64311,
2854.085,758.85815,
2851.175,769.29364,
2848.264,773.8455,
2845.353,777.5603,
2842.443,757.45494,
2839.532,759.56513,
2836.622,760.71484,
2833.711,745.63284,
2830.801,763.60295,
2827.890,753.28932,
2824.979,735.84704,
2822.069,765.65912,
2819.158,766.72473,
2816.248,767.36053,
2813.337,775.60427,
2810.427,764.75723,
2807.516,769.20047,
2804.605,766.74278,
2801.695,773.12504,
2798.784,753.508,
2795.874,758.19492,
2792.963,766.6966,
2790.052,754.62843,
2787.142,768.65123,
2784.231,763.17313,
2781.321,748.18498,
2778.410,746.60469,
2775.500,749.02983,
2772.589,773.16323,
2769.678,768.69668,
2766.768,782.23473,
2763.857,797.30901,
2760.947,798.64391,
2758.036,786.3765,
2755.126,795.67414,
2752.215,804.38879,
2749.304,790.32827,
2746.394,809.33272,
2743.483,792.37499,
2740.573,802.60955,
2737.662,790.65606,
2734.751,799.90187,
2731.841,817.38325,
2728.930,819.43873,
2726.020,800.74248,
2723.109,815.37742,
2720.199,807.72177,
2717.288,832.41333,
2714.377,830.17516,
2711.467,833.8217,
2708.556,842.96521,
2705.646,845.55456,
2702.735,856.60437,
2699.825,843.96139,
2696.914,858.10137,
2694.003,840.16646,
2691.093,843.48181,
2688.182,838.44352,
2685.272,861.94363,
2682.361,860.50164,
2679.450,857.57971,
2676.540,880.34046,
2673.629,868.28418,
2670.719,877.40596,
2667.808,861.59771,
2664.898,862.00146,
2661.987,888.62533,
2659.076,874.56683,
2656.166,894.43026,
2653.255,886.84439,
2650.345,876.59233,
2647.434,962.50954,
2644.524,923.25811,
2641.613,922.39621,
2638.702,893.03531,
2635.792,917.09161,
2632.881,929.00603,
2629.971,923.00753,
2627.060,901.45906,
2624.149,913.99997,
2621.239,933.37055,
2618.328,936.77726,
2615.418,915.96591,
2612.507,913.8661,
2609.597,958.21782,
2606.686,955.26154,
2603.775,942.90277,
2600.865,957.79572,
2597.954,964.86457,
2595.044,975.57186,
2592.133,979.67588,
2589.223,991.56502,
2586.312,991.2129,
2583.401,999.64687,
2580.491,990.80288,
2577.580,1002.6035,
2574.670,997.92712,
2571.759,1002.5591,
2568.848,1012.4981,
2565.938,997.91069,
2563.027,1004.65,
2560.117,1002.7278,
2557.206,1016.6102,
2554.296,1022.8195,
2551.385,1013.2031,
2548.474,1041.1808,
2545.564,1036.9099,
2542.653,1034.3498,
2539.743,1057.2421,
2536.832,1058.197,
2533.922,1054.7985,
2531.011,1069.7497,
2528.100,1080.0919,
2525.190,1059.0701,
2522.279,1078.8595,
2519.369,1081.5119,
2516.458,1076.0691,
2513.548,1061.0616,
2510.637,1074.0717,
2507.726,1073.744,
2504.816,1087.1244,
2501.905,1073.886,
2498.995,1042.0735,
2496.084,1080.9316,
2493.173,1091.5727,
2490.263,1093.2431,
2487.352,1092.0006,
2484.442,1108.0297,
2481.531,1128.7314,
2478.621,1119.8761,
2475.710,1126.5253,
2472.799,1117.8178,
2469.889,1132.5641,
2466.978,1135.3466,
2464.068,1124.1329,
2461.157,1143.5826,
2458.247,1141.1252,
2455.336,1135.5643,
2452.425,1140.4552,
2449.515,1162.7851,
2446.604,1158.4383,
2443.694,1171.7179,
2440.783,1186.6284,
2437.872,1195.151,
2434.962,1184.9891,
2432.051,1189.6743,
2429.141,1196.1661,
2426.230,1198.6902,
2423.320,1210.8247,
2420.409,1223.7596,
2417.498,1214.257,
2414.588,1207.4425,
2411.677,1216.6568,
2408.767,1200.9961,
2405.856,1242.413,
2402.946,1245.726,
2400.035,1234.4325,
2397.124,1233.9726,
2394.214,1248.5178,
2391.303,1263.0559,
2388.393,1280.5692,
2385.482,1259.7706,
2382.571,1275.625,
2379.661,1273.3925,
2376.750,1299.1445,
2373.840,1284.5439,
2370.929,1292.4301,
2368.019,1311.8177,
2365.108,1314.9967,
2362.197,1338.3347,
2359.287,1317.2969,
2356.376,1335.5775,
2353.466,1304.7448,
2350.555,1328.7851,
2347.645,1330.0727,
2344.734,1345.7495,
2341.823,1320.1391,
2338.913,1355.5593,
2336.002,1353.2207,
2333.092,1355.3722,
2330.181,1383.8039,
2327.270,1353.9352,
2324.360,1391.6085,
2321.449,1384.1182,
2318.539,1389.4965,
2315.628,1383.625,
2312.718,1389.8078,
2309.807,1439.2529,
2306.896,1387.1837,
2303.986,1405.2743,
2301.075,1405.1782,
2298.165,1397.4517,
2295.254,1405.388,
2292.344,1430.2515,
2289.433,1444.9223,
2286.522,1440.2455,
2283.612,1444.625,
2280.701,1436.8358,
2277.791,1457.9475,
2274.880,1485.1311,
2271.969,1477.1353,
2269.059,1491.1836,
2266.148,1520.807,
2263.238,1527.1269,
2260.327,1522.7976,
2257.417,1537.4389,
2254.506,1541.3116,
2251.595,1565.1849,
2248.685,1569.4692,
2245.774,1542.3947,
2242.864,1557.6524,
2239.953,1550.9076,
2237.043,1561.2082,
2234.132,1563.9548,
2231.221,1568.9918,
2228.311,1589.5902,
2225.400,1598.6531,
2222.490,1605.5665,
2219.579,1632.9926,
2216.669,1647.5678,
2213.758,1649.8407,
2210.847,1661.5519,
2207.937,1681.9328,
2205.026,1701.9571,
2202.116,1757.3394,
2199.205,1798.7137,
2196.294,1788.113,
2193.384,1800.7565,
2190.473,1820.5006,
2187.563,1880.8715,
2184.652,1937.3483,
2181.742,1990.9004,
2178.831,2068.0064,
2175.920,2152.9183,
2173.010,2249.0796,
2170.099,2380.8125,
2167.189,2525.2995,
2164.278,2640.6351,
2161.368,2807.4774,
2158.457,2952.4949,
2155.546,3117.9684,
2152.636,3271.8801,
2149.725,3383.6853,
2146.815,3533.0201,
2143.904,3625.4354,
2140.993,3645.969,
2138.083,3633.9077,
2135.172,3662.9277,
2132.262,3659.0863,
2129.351,3590.5178,
2126.441,3472.9062,
2123.530,3333.4689,
2120.619,3206.305,
2117.709,2989.0864,
2114.798,2783.6707,
2111.888,2632.0413,
2108.977,2491.4991,
2106.067,2374.9618,
2103.156,2272.0793,
2100.245,2155.5817,
2097.335,2077.1119,
2094.424,2014.3268,
2091.514,2001.3021,
2088.603,1947.6941,
2085.692,1920.5694,
2082.782,1894.9182,
2079.871,1893.8035,
2076.961,1888.9479,
2074.050,1927.7462,
2071.140,1844.8669,
2068.229,1821.3268,
2065.318,1846.501,
2062.408,1807.0789,
2059.497,1812.0953,
2056.587,1816.4741,
2053.676,1782.4933,
2050.766,1818.1609,
2047.855,1812.568,
2044.944,1804.5064,
2042.034,1773.3939,
2039.123,1797.2041,
2036.213,1793.0472,
2033.302,1794.8207,
2030.391,1806.4382,
2027.481,1798.2593,
2024.570,1833.0811,
2021.660,1774.764,
2018.749,1812.1311,
2015.839,1803.795,
2012.928,1828.5562,
2010.017,1818.7032,
2007.107,1811.3689,
2004.196,1816.7917,
2001.286,1821.8123,
1998.375,1815.7539,
1995.465,1806.5455,
1992.554,1787.0957,
1989.643,1817.4498,
1986.733,1794.5548,
1983.822,1772.8037,
1980.912,1764.5069,
1978.001,1783.651,
1975.090,1751.2571,
1972.180,1742.9694,
1969.269,1781.0245,
1966.359,1761.219,
1963.448,1760.732,
1960.538,1776.1171,
1957.627,1788.3247,
1954.716,1770.1995,
1951.806,1728.5753,
1948.895,1729.793,
1945.985,1743.1953,
1943.074,1738.7468,
1940.164,1755.8561,
1937.253,1747.6214,
1934.342,1719.7704,
1931.432,1747.5935,
1928.521,1736.7925,
1925.611,1723.7419,
1922.700,1701.2562,
1919.790,1736.1043,
1916.879,1729.6015,
1913.968,1732.6201,
1911.058,1707.8412,
1908.147,1683.2892,
1905.237,1696.7574,
1902.326,1728.6146,
1899.415,1716.9213,
1896.505,1699.3055,
1893.594,1687.3385,
1890.684,1721.8537,
1887.773,1719.3839,
1884.863,1711.9872,
1881.952,1722.7849,
1879.041,1751.0762,
1876.131,1743.9662,
1873.220,1736.2666,
1870.310,1780.181,
1867.399,1692.1124,
1864.489,1718.1187,
1861.578,1702.2626,
1858.667,1676.9603,
1855.757,1726.5999,
1852.846,1743.8199,
1849.936,1721.9033,
1847.025,1768.5568,
1844.114,1797.7497,
1841.204,1786.7439,
1838.293,1805.1109,
1835.383,1808.16,
1832.472,1785.8337,
1829.562,1780.6518,
1826.651,1785.9926,
1823.740,1811.376,
1820.830,1812.9084,
1817.919,1793.5231,
1815.009,1792.1937,
1812.098,1762.1053,
1809.188,1831.7876,
1806.277,1833.6914,
1803.366,1818.2405,
1800.456,1854.8448,
1797.545,1857.6109,
1794.635,1852.5271,
1791.724,1890.7414,
1788.813,1911.0178,
1785.903,1891.2044,
1782.992,1900.4298,
1780.082,1899.0099,
1777.171,1883.6212,
1774.261,1881.6702,
1771.350,1910.9358,
1768.439,1914.262,
1765.529,1917.0825,
1762.618,1945.2875,
1759.708,1956.1359,
1756.797,1955.0114,
1753.887,1964.9078,
1750.976,1998.9804,
1748.065,2006.1795,
1745.155,2006.0121,
1742.244,2005.6522,
1739.334,1953.6415,
1736.423,2026.008,
1733.512,2059.0762,
1730.602,2038.6726,
1727.691,2031.8573,
1724.781,2069.3807,
1721.870,2123.0824,
1718.960,2106.4913,
1716.049,2169.4209,
1713.138,2184.335,
1710.228,2151.5537,
1707.317,2112.1267,
1704.407,2167.8176,
1701.496,2235.6987,
1698.586,2184.338,
1695.675,2185.2393,
1692.764,2302.0718,
1689.854,2254.0935,
1686.943,2303.8038,
1684.033,2263.693,
1681.122,2348.1467,
1678.211,2367.4537,
1675.301,2449.3722,
1672.390,2449.8373,
1669.480,2520.986,
1666.569,2565.9297,
1663.659,2590.8173,
1660.748,2664.2254,
1657.837,2746.7622,
1654.927,2798.0702,
1652.016,2816.5278,
1649.106,2814.7059,
1646.195,2900.2624,
1643.285,3008.3314,
1640.374,3040.402,
1637.463,3125.2103,
1634.553,3213.5905,
1631.642,3345.8845,
1628.732,3461.7508,
1625.821,3650.7637,
1622.911,3861.4304,
1620.000,4034.4328,
1617.089,4335.5553,
1614.179,4580.6876,
1611.268,4851.4383,
1608.358,5071.3239,
1605.447,5240.0263,
1602.536,5316.7209,
1599.626,5398.8994,
1596.715,5359.3373,
1593.805,5241.0448,
1590.894,5254.9258,
1587.984,5186.7394,
1585.073,5207.1052,
1582.162,5195.0924,
1579.252,5148.255,
1576.341,5109.7867,
1573.431,5109.6736,
1570.520,5081.8143,
1567.610,4996.6238,
1564.699,4948.8741,
1561.788,4906.8225,
1558.878,4828.4453,
1555.967,4700.186,
1553.057,4643.8837,
1550.146,4583.4724,
1547.235,4450.2211,
1544.325,4372.4454,
1541.414,4346.8031,
1538.504,4276.1343,
1535.593,4233.8502,
1532.683,4180.7692,
1529.772,4097.8626,
1526.861,4044.9782,
1523.951,3961.1254,
1521.040,3912.237,
1518.130,3869.6688,
1515.219,3813.3867,
1512.309,3739.2556,
1509.398,3694.336,
1506.487,3693.0658,
1503.577,3701.2773,
1500.666,3650.7903,
1497.756,3586.0315,
1494.845,3553.7045,
1491.934,3531.351,
1489.024,3447.6141,
1486.113,3416.8085,
1483.203,3395.9735,
1480.292,3356.2905,
1477.382,3305.1713,
1474.471,3267.7667,
1471.560,3248.0143,
1468.650,3188.2798,
1465.739,3165.187,
1462.829,3185.7232,
1459.918,3177.6303,
1457.008,3153.0095,
1454.097,3167.8086,
1451.186,3178.2382,
1448.276,3163.6354,
1445.365,3196.5215,
1442.455,3213.8397,
1439.544,3150.477,
1436.633,3182.6935,
1433.723,3197.4029,
1430.812,3123.7591,
1427.902,3012.9181,
1424.991,3025.2391,
1422.081,3027.46,
1419.170,3012.0719,
1416.259,2956.9709,
1413.349,3002.7786,
1410.438,2977.5389,
1407.528,2983.0872,
1404.617,3014.2388,
1401.707,3028.2148,
1398.796,3018.7684,
1395.885,3018.6133,
1392.975,3021.8119,
1390.064,3010.7518,
1387.154,3031.7737,
1384.243,2979.7956,
1381.332,2941.3676,
1378.422,3019.7886,
1375.511,3178.1045,
1372.601,3293.9782,
1369.690,3391.9189,
1366.780,3407.417,
1363.869,3492.6228,
1360.958,3584.0445,
1358.048,3622.9314,
1355.137,3688.553,
1352.227,3784.7168,
1349.316,3888.6722,
1346.406,3977.7761,
1343.495,4015.524,
1340.584,4108.8746,
1337.674,4146.3083,
1334.763,4220.7774,
1331.853,4277.3385,
1328.942,4308.9773,
1326.032,4372.1653,
1323.121,4496.7697,
1320.210,4552.9389,
1317.300,4592.3171,
1314.389,4674.2651,
1311.479,4771.382,
1308.568,4854.9522,
1305.657,4942.1255,
1302.747,5034.8112,
1299.836,5118.5957,
1296.926,5237.1543,
1294.015,5334.6026,
1291.105,5545.5523,
1288.194,5710.2101,
1285.283,5854.8895,
1282.373,5972.031,
1279.462,6071.1729,
1276.552,6155.7197,
1273.641,6233.41,
1270.731,6297.1519,
1267.820,6307.6535,
1264.909,6266.3609,
1261.999,6241.6929,
1259.088,6216.1536,
1256.178,6163.2376,
1253.267,6052.588,
1250.356,5869.9201,
1247.446,5680.8663,
1244.535,5517.8529,
1241.625,5371.4363,
1238.714,5187.2641,
1235.804,4971.2756,
1232.893,4893.3939,
1229.982,4805.3559,
1227.072,4738.3628,
1224.161,4642.8506,
1221.251,4543.729,
1218.340,4465.0957,
1215.430,4391.9306,
1212.519,4307.9908,
1209.608,4289.1888,
1206.698,4353.7951,
1203.787,4340.5999,
1200.877,4332.021,
1197.966,4370.6848,
1195.055,4431.4992,
1192.145,4606.9205,
1189.234,4689.5231,
1186.324,4815.9084,
1183.413,4902.4423,
1180.503,4874.0524,
1177.592,4807.6042,
1174.681,4717.6969,
1171.771,4689.4917,
1168.860,4640.3718,
1165.950,4586.4413,
1163.039,4526.4352,
1160.129,4500.9062,
1157.218,4472.146,
1154.307,4429.413,
1151.397,4386.4202,
1148.486,4339.723,
1145.576,4348.4256,
1142.665,4274.7288,
1139.754,4236.8935,
1136.844,4188.3071,
1133.933,4170.625,
1131.023,4150.797,
1128.112,4106.8424,
1125.202,4068.8327,
1122.291,4072.1237,
1119.380,4068.9455,
1116.470,4101.599,
1113.559,4117.997,
1110.649,4112.4572,
1107.738,4119.413,
1104.828,4156.6715,
1101.917,4199.6548,
1099.006,4203.9139,
1096.096,4166.7649,
1093.185,4152.7169,
1090.275,4148.3879,
1087.364,4176.4422,
1084.453,4154.1898,
1081.543,4101.6464,
1078.632,4088.7421,
1075.722,4123.2906,
1072.811,4093.2384,
1069.901,4115.9431,
1066.990,4164.5082,
1064.079,4208.9702,
1061.169,4258.8677,
1058.258,4283.2371,
1055.348,4303.9054,
1052.437,4368.7247,
1049.527,4391.0012,
1046.616,4426.6232,
1043.705,4409.8143,
1040.795,4457.2594,
1037.884,4476.4988,
1034.974,4483.1289,
1032.063,4513.8173,
1029.153,4517.4173,
1026.242,4515.6874,
1023.331,4541.4567,
1020.421,4598.2105,
1017.510,4615.0222,
1014.600,4655.0327,
1011.689,4730.7337,
1008.778,4790.0302,
1005.868,4915.7833,
1002.957,5044.8365,
1000.047,5239.3451,
997.136,5386.2633,
994.226,5488.2397,
991.315,5508.9171,
988.404,5413.7362,
985.494,5331.6634,
982.583,5333.3765,
979.673,5256.0705,
976.762,5244.651,
973.852,5267.2332,
970.941,5262.8422,
968.030,5226.3361,
965.120,5258.4567,
962.209,5218.3873,
959.299,5261.2024,
956.388,5241.3076,
953.477,5244.1513,
950.567,5287.3508,
947.656,5274.4157,
944.746,5310.9466,
941.835,5282.6619,
938.925,5338.1398,
936.014,5366.0726,
933.103,5326.3156,
930.193,5251.4374,
927.282,5208.1044,
924.372,5161.5961,
921.461,5074.621,
918.551,5009.0262,
915.640,4967.327,
912.729,4918.9843,
909.819,4843.1802,
906.908,4839.8105,
903.998,4873.0303,
901.087,4897.5377,
898.176,4939.5515,
895.266,5007.6823,
892.355,5090.7604,
889.445,5166.2944,
886.534,5144.9183,
883.624,5230.1117,
880.713,5276.6871,
877.802,5280.3198,
874.892,5272.6165,
871.981,5232.7828,
869.071,5239.4661,
866.160,5273.0531,
863.250,5255.6486,
860.339,5231.2787,
857.428,5220.8767,
854.518,5141.3843,
851.607,5133.0636,
848.697,5088.2925,
845.786,5060.3215,
842.875,5052.9745,
839.965,5053.2658,
837.054,5051.5134,
834.144,5041.5683,
831.233,5003.6276,
828.323,5018.7613,
825.412,5011.0918,
822.501,4923.625,
819.591,4923.625,
816.680,4871.5416,
813.770,4805.9988,
810.859,4757.4779,
807.949,4739.6567,
805.038,4747.3263,
802.127,4744.8569,
799.217,4702.1377,
796.306,4660.3816,
793.396,4649.3579,
790.485,4661.2557,
787.574,4648.2825,
784.664,4639.2613,
781.753,4608.1017,
778.843,4631.3613,
775.932,4668.7732,
773.022,4665.3858,
770.111,4670.2913,
767.200,4682.806,
764.290,4661.7762,
761.379,4653.4717,
758.469,4654.1856,
755.558,4599.1387,
752.648,4582.8467,
749.737,4582.8889,
746.826,4532.8745,
743.916,4446.8194,
741.005,4358.4587,
738.095,4188.7764,
735.184,3968.4083,
732.274,3925.4378,
729.363,4067.2274,
726.452,4303.6978,
723.542,4425.9162,
720.631,4491.4945,
717.721,4538.2673,
714.810,4551.2501,
711.899,4536.3082,
708.989,4530.6597,
706.078,4529.8237,
703.168,4491.3701,
700.257,4481.8902,
697.347,4492.5392,
694.436,4452.1231,
691.525,4433.6356,
688.615,4432.7696,
685.704,4419.9474,
682.794,4408.8164,
679.883,4436.3098,
676.973,4451.5359,
674.062,4449.5203,
671.151,4445.31,
668.241,4445.7692,
665.330,4453.6082,
662.420,4474.3752,
659.509,4471.0058,
656.598,4448.0168,
653.688,4437.1975,
650.777,4482.247,
647.867,4471.0984,
644.956,4464.9101,
642.046,4427.3842,
639.135,4405.9222,
636.224,4512.5653,
633.314,4500.6562,
630.403,4487.5744,
627.493,4517.8802,
624.582,4561.0273,
621.672,4486.5798,
618.761,4577.8575,
615.850,4610.9309,
612.940,4624.8956,
610.029,4652.675,
607.119,4688.998,
604.208,4646.4741,
601.297,4635.6013,
598.387,4657.3833,
595.476,4687.094,
592.566,4639.0828,
589.655,4626.7377,
586.745,4628.5307,
583.834,4626.8179,
580.923,4602.2791,
578.013,4544.9935,
575.102,4578.9536,
572.192,4592.0442,
569.281,4565.2316,
566.371,4652.1028,
563.460,4650.043,
560.549,4686.5564,
557.639,4742.516,
554.728,4779.3495,
551.818,4806.6606,
548.907,4794.952,
545.996,4804.2308,
543.086,4834.7796,
540.175,4826.2145,
537.265,4846.6291,
534.354,4922.8549,
531.444,4984.7732,
528.533,4972.7152,
525.622,5016.1683,
522.712,5063.8505,
519.801,5106.9552,
516.891,5161.8223,
513.980,5286.4839,
511.070,5364.538,
508.159,5439.9041,
505.248,5537.942,
502.338,5677.3254,
499.427,5701.2521,
496.517,5762.4936,
493.606,5817.0752,
490.695,5848.793,
487.785,5900.3689,
484.874,5908.625,
481.964,5893.675,
479.053,5870.7864,
476.143,5863.1068,
473.232,5860.4668,
470.321,5851.8398,
467.411,5832.9881,
464.500,5801.8577,
461.590,5811.0466,
458.679,5820.7788,
455.769,5833.8715,
452.858,5853.4427,
449.947,5890.1114,
447.037,5920.0751,
444.126,5937.2129,
441.216,5946.3874,
438.305,5973.8169,
435.395,5935.6643,
432.484,5951.5494,
429.573,6017.2276,
426.663,6071.1976,
423.752,6048.4257,
420.842,5995.0666,
417.931,5973.4205,
415.020,6071.2487,
412.110,6130.9592,
409.199,6223.5076,
406.289,6291.2456,
403.378,6268.5712,
400.468,6252.6953,
397.557,6243.5118,
394.646,6245.5506,
391.736,6258.8725,
388.825,6172.8901,
385.915,6170.5093,
383.004,6230.8866,
380.094,6334.1587,
377.183,6383.8221,
374.272,6473.0715,
371.362,6560.1712,
368.451,6621.4577,
365.541,6701.0145,
362.630,6726.4487,
359.719,6756.2621,
356.809,6820.7577,
353.898,6839.4777,
350.988,6826.7229,
348.077,6821.4989,
345.167,6846.1548,
342.256,6856.6137,
339.345,6867.5965,
336.435,6862.1333,
333.524,6831.7389,
330.614,6898.8029,
327.703,6944.2684,
324.793,6964.0159,
321.882,6953.7746,
318.971,7015.4804,
316.061,7086.433,
313.150,7148.7869,
310.240,7181.44,
307.329,7277.6717,
304.418,7320.1845,
301.508,7315.385,
298.597,7276.8833,
295.687,7343.3808,
292.776,7437.042,
289.866,7581.7215,
286.955,7866.8696,
284.044,8077.1348,
281.134,8268.5673,
278.223,8466.5039,
275.313,8739.1404,
272.402,8902.9303,
269.492,9072.146,
266.581,9280.8214,
263.670,9409.4779,
260.760,9558.415,
257.849,9682.6949,
254.939,9745.8088,
252.028,9808.8757,
249.117,9874.6531,
246.207,9948.3013,
243.296,10039.806,
240.386,9954.2882,
237.475,9841.0025,
234.565,9718.8836,
231.654,9580.8411,
228.743,9500.4172,
225.833,9413.5367,
222.922,9297.4462,
220.012,9207.8339,
217.101,9114.3412,
214.191,9040.4125,
211.280,9016.4062,
208.369,8996.459,
205.459,8960.476,
202.548,8919.4997,
199.638,8918.774,
196.727,8915.7439,
193.816,8907.6045,
190.906,8897.1041,
187.995,8996.2955,
185.085,9032.0436,
182.174,9056.1516,
179.264,9139.2697,
176.353,9146.0619,
173.442,9165.6534,
170.532,9183.9754,
167.621,9023.9188,
164.711,8912.8268,
161.800,8754.0565,
158.890,8468.3246,
155.979,7984.9127,
153.068,7393.6743,
150.158,6683.887,
147.247,5768.4979,
144.337,4820.7342,
141.426,3848.2983,
138.516,2851.1026,
135.605,2063.7201,
132.694,1419.8302,
129.784,917.4661,
126.873,598.51819,
123.963,403.87701,
121.052,275.59634,
118.141,199.92273,
115.231,158.41192,
112.320,125.52683,
109.410,101.85238,
106.499,92.594364,
103.589,87.823728,
100.678,81.007431,
97.767,68.921492,
94.857,62.388099,
91.946,57.206335,
89.036,53.625,
86.125,53.625,
83.215,50.970398,
80.304,45.512375,
77.393,36.306166,
74.483,37.590405,
71.572,35.726183,
68.662,30.625,
65.751,30.625,
62.840,30.143298,
59.930,29.625,
57.019,29.625,
54.109,28.430678,
51.198,25.815344,
48.288,21.636325,
45.377,23.043081,
42.466,23.212781,
39.556,22.740119,
36.645,23.442309,
33.735,19.990261,
30.824,17.066774,
27.914,18.469124,
25.003,18.002363,
22.092,19.562427,
19.182,23.487703,
16.271,19.290762,
13.361,58.084966,
10.450,122.03828,
7.539,170.92036,
4.629,77.262055,
1.718,-92.29318,
-1.192,-320.25944,
-4.103,-222.97975,
-7.013,-97.899801,
-9.924,1.625,
