,PLCF92~1,
Wavenumbers [1/cm],Intensity,
3014.167,1.375,
3011.256,1.2749785,
3008.346,51.821804,
3005.435,36.876769,
3002.525,54.885067,
2999.614,55.038645,
2996.704,57.649228,
2993.793,52.870392,
2990.882,58.069647,
2987.972,71.319505,
2985.061,66.138554,
2982.151,64.56827,
2979.240,74.907313,
2976.329,72.109984,
2973.419,71.882316,
2970.508,87.375,
2967.598,56.852912,
2964.687,69.240489,
2961.777,71.469008,
2958.866,80.043646,
2955.955,80.410394,
2953.045,96.375,
2950.134,96.375,
2947.224,87.431938,
2944.313,91.622151,
2941.403,93.505931,
2938.492,97.662264,
2935.581,99.783586,
2932.671,96.898638,
2929.760,110.56345,
2926.850,112.06147,
2923.939,115.85632,
2921.028,116.76917,
2918.118,104.81581,
2915.207,93.716553,
2912.297,105.27345,
2909.386,103.98813,
2906.476,89.220532,
2903.565,100.69797,
2900.654,100.49228,
2897.744,98.312139,
2894.833,86.777184,
2891.923,78.1859,
2889.012,54.872111,
2886.102,67.999321,
2883.191,33.409929,
2880.280,-53.314031,
2877.370,-275.53732,
2874.459,-375.01444,
2871.549,-191.34743,
2868.638,-15.297247,
2865.727,31.059612,
2862.817,60.790751,
2859.906,69.565873,
2856.996,93.877264,
2854.085,106.57881,
2851.175,98.968404,
2848.264,93.870165,
2845.353,110.375,
2842.443,109.17709,
2839.532,102.71831,
2836.622,110.85807,
2833.711,110.26355,
2830.801,122.77059,
2827.890,118.29108,
2824.979,112.80702,
2822.069,104.59107,
2819.158,129.45587,
2816.248,124.4329,
2813.337,140.53965,
2810.427,119.80888,
2807.516,126.42531,
2804.605,123.00962,
2801.695,126.54605,
2798.784,115.11423,
2795.874,118.93963,
2792.963,117.66053,
2790.052,140.36921,
2787.142,120.2305,
2784.231,129.76322,
2781.321,117.99784,
2778.410,116.10976,
2775.500,122.90672,
2772.589,128.95222,
2769.678,138.94494,
2766.768,138.88179,
2763.857,143.32105,
2760.947,132.87815,
2758.036,132.52786,
2755.126,136.61432,
2752.215,142.94785,
2749.304,134.80128,
2746.394,132.58669,
2743.483,146.02495,
2740.573,135.97004,
2737.662,133.81139,
2734.751,131.72446,
2731.841,152.21383,
2728.930,124.11212,
2726.020,142.36979,
2723.109,139.26158,
2720.199,159.69079,
2717.288,143.53194,
2714.377,164.30812,
2711.467,148.83433,
2708.556,137.50258,
2705.646,159.81167,
2702.735,162.19716,
2699.825,149.41863,
2696.914,156.28001,
2694.003,157.60427,
2691.093,160.85754,
2688.182,159.91944,
2685.272,147.65807,
2682.361,142.13373,
2679.450,153.45316,
2676.540,153.41565,
2673.629,148.73827,
2670.719,146.93693,
2667.808,152.42364,
2664.898,157.79037,
2661.987,163.00819,
2659.076,159.99353,
2656.166,158.31009,
2653.255,157.22534,
2650.345,168.43126,
2647.434,152.08978,
2644.524,169.21672,
2641.613,167.375,
2638.702,186.07516,
2635.792,164.15467,
2632.881,175.22026,
2629.971,178.73744,
2627.060,177.37375,
2624.149,180.02501,
2621.239,175.88389,
2618.328,162.79887,
2615.418,178.01592,
2612.507,178.82563,
2609.597,156.93588,
2606.686,165.2445,
2603.775,179.13293,
2600.865,176.19754,
2597.954,178.57285,
2595.044,187.83823,
2592.133,160.82088,
2589.223,173.96554,
2586.312,184.375,
2583.401,179.88593,
2580.491,183.08651,
2577.580,179.3783,
2574.670,175.84026,
2571.759,176.78937,
2568.848,191.02142,
2565.938,193.8513,
2563.027,175.71593,
2560.117,162.38433,
2557.206,199.05765,
2554.296,185.88987,
2551.385,189.68901,
2548.474,216.00512,
2545.564,213.78652,
2542.653,210.54278,
2539.743,210.54752,
2536.832,172.96564,
2533.922,203.28038,
2531.011,205.34933,
2528.100,209.31571,
2525.190,207.81475,
2522.279,202.85912,
2519.369,193.58247,
2516.458,185.81197,
2513.548,200.83831,
2510.637,217.12907,
2507.726,213.06273,
2504.816,204.49901,
2501.905,195.94024,
2498.995,196.44994,
2496.084,212.14851,
2493.173,196.11142,
2490.263,210.10498,
2487.352,216.749,
2484.442,207.50132,
2481.531,223.00795,
2478.621,217.69725,
2475.710,228.33666,
2472.799,221.64856,
2469.889,219.76836,
2466.978,232.75635,
2464.068,222.00987,
2461.157,216.6099,
2458.247,227.97787,
2455.336,217.39652,
2452.425,234.20521,
2449.515,220.21493,
2446.604,230.55474,
2443.694,228.28208,
2440.783,228.75563,
2437.872,233.81258,
2434.962,243.01095,
2432.051,232.96136,
2429.141,235.7808,
2426.230,226.22249,
2423.320,244.57472,
2420.409,248.43284,
2417.498,243.1531,
2414.588,244.28757,
2411.677,222.55832,
2408.767,253.61614,
2405.856,257.47259,
2402.946,241.10065,
2400.035,249.2553,
2397.124,271.67983,
2394.214,254.91659,
2391.303,257.4082,
2388.393,251.375,
2385.482,235.12405,
2382.571,222.52672,
2379.661,226.51457,
2376.750,229.74196,
2373.840,246.92494,
2370.929,248.39666,
2368.019,252.9532,
2365.108,262.0949,
2362.197,262.81879,
2359.287,263.55996,
2356.376,295.32217,
2353.466,279.4367,
2350.555,264.16503,
2347.645,259.45448,
2344.734,271.13541,
2341.823,276.35842,
2338.913,288.48693,
2336.002,288.45391,
2333.092,284.67404,
2330.181,284.67421,
2327.270,275.09007,
2324.360,285.29954,
2321.449,279.66752,
2318.539,286.46064,
2315.628,277.1236,
2312.718,289.04021,
2309.807,303.96512,
2306.896,292.07609,
2303.986,283.38158,
2301.075,302.54519,
2298.165,299.99027,
2295.254,275.87049,
2292.344,311.90198,
2289.433,304.33636,
2286.522,296.94194,
2283.612,306.27552,
2280.701,306.77859,
2277.791,322.61358,
2274.880,303.09102,
2271.969,301.46965,
2269.059,302.46491,
2266.148,294.26816,
2263.238,298.67229,
2260.327,323.16808,
2257.417,320.375,
2254.506,317.94764,
2251.595,313.23319,
2248.685,325.63264,
2245.774,325.86958,
2242.864,305.51462,
2239.953,335.23709,
2237.043,319.68573,
2234.132,321.19828,
2231.221,345.19158,
2228.311,338.80671,
2225.400,334.34685,
2222.490,334.86037,
2219.579,340.34929,
2216.669,339.37023,
2213.758,357.3345,
2210.847,349.44807,
2207.937,359.76423,
2205.026,378.375,
2202.116,375.22851,
2199.205,368.43735,
2196.294,362.94502,
2193.384,358.5065,
2190.473,358.51702,
2187.563,378.42334,
2184.652,388.52561,
2181.742,395.28482,
2178.831,401.90026,
2175.920,398.78666,
2173.010,404.10006,
2170.099,413.04068,
2167.189,418.3176,
2164.278,412.42927,
2161.368,424.08932,
2158.457,428.88215,
2155.546,443.10193,
2152.636,445.58777,
2149.725,450.2005,
2146.815,466.8411,
2143.904,428.58316,
2140.993,444.41738,
2138.083,448.88251,
2135.172,480.8624,
2132.262,464.22447,
2129.351,480.56137,
2126.441,468.17105,
2123.530,460.59948,
2120.619,473.76977,
2117.709,433.42975,
2114.798,437.5404,
2111.888,426.05059,
2108.977,426.726,
2106.067,411.62367,
2103.156,421.9717,
2100.245,383.37563,
2097.335,386.78337,
2094.424,402.4602,
2091.514,389.93946,
2088.603,382.64687,
2085.692,405.69831,
2082.782,402.8249,
2079.871,407.05411,
2076.961,407.50416,
2074.050,419.21136,
2071.140,397.66225,
2068.229,409.00129,
2065.318,429.03001,
2062.408,423.1549,
2059.497,424.21432,
2056.587,418.93344,
2053.676,409.74177,
2050.766,420.45123,
2047.855,405.74846,
2044.944,384.64102,
2042.034,397.51388,
2039.123,427.59386,
2036.213,413.27943,
2033.302,434.91809,
2030.391,422.88439,
2027.481,431.89913,
2024.570,431.26098,
2021.660,422.7889,
2018.749,441.84313,
2015.839,426.08825,
2012.928,409.76594,
2010.017,403.07641,
2007.107,399.95631,
2004.196,419.33935,
2001.286,438.97924,
1998.375,424.06594,
1995.465,402.42947,
1992.554,399.25146,
1989.643,421.58003,
1986.733,413.76974,
1983.822,391.44073,
1980.912,415.62149,
1978.001,378.95942,
1975.090,400.946,
1972.180,405.13432,
1969.269,391.71406,
1966.359,389.96963,
1963.448,404.52428,
1960.538,374.48008,
1957.627,388.66604,
1954.716,383.60481,
1951.806,405.58015,
1948.895,387.56937,
1945.985,374.09396,
1943.074,396.375,
1940.164,399.57699,
1937.253,385.14499,
1934.342,368.46056,
1931.432,387.03431,
1928.521,382.98467,
1925.611,396.11507,
1922.700,406.54075,
1919.790,406.51374,
1916.879,365.44398,
1913.968,361.37623,
1911.058,435.39301,
1908.147,403.12387,
1905.237,372.99263,
1902.326,366.53944,
1899.415,359.62863,
1896.505,316.01944,
1893.594,316.09153,
1890.684,344.08737,
1887.773,361.34886,
1884.863,394.24971,
1881.952,406.28252,
1879.041,394.78414,
1876.131,398.70441,
1873.220,398.63163,
1870.310,416.01174,
1867.399,426.23106,
1864.489,385.375,
1861.578,383.50701,
1858.667,369.92287,
1855.757,394.78073,
1852.846,398.17497,
1849.936,411.353,
1847.025,380.72536,
1844.114,407.66446,
1841.204,412.78409,
1838.293,399.86086,
1835.383,391.98002,
1832.472,399.13152,
1829.562,408.26458,
1826.651,416.99922,
1823.740,437.66238,
1820.830,413.28025,
1817.919,424.73441,
1815.009,416.53149,
1812.098,415.27264,
1809.188,450.08035,
1806.277,410.32667,
1803.366,399.25855,
1800.456,394.13363,
1797.545,427.14082,
1794.635,450.24694,
1791.724,419.73426,
1788.813,414.38529,
1785.903,431.13286,
1782.992,380.57023,
1780.082,332.5831,
1777.171,192.35678,
1774.261,155.76563,
1771.350,266.57152,
1768.439,384.29436,
1765.529,448.28803,
1762.618,455.98247,
1759.708,436.86413,
1756.797,463.26894,
1753.887,486.93914,
1750.976,474.40249,
1748.065,477.66378,
1745.155,498.78781,
1742.244,484.52449,
1739.334,459.68089,
1736.423,491.52822,
1733.512,483.36274,
1730.602,494.57146,
1727.691,492.16307,
1724.781,502.7468,
1721.870,501.5464,
1718.960,538.19768,
1716.049,503.58729,
1713.138,515.0399,
1710.228,534.91064,
1707.317,502.87672,
1704.407,540.59967,
1701.496,553.57893,
1698.586,528.50344,
1695.675,555.38197,
1692.764,523.29301,
1689.854,499.37105,
1686.943,527.36323,
1684.033,551.77893,
1681.122,543.52793,
1678.211,553.27983,
1675.301,577.301,
1672.390,585.23144,
1669.480,537.56753,
1666.569,562.23832,
1663.659,628.80337,
1660.748,594.97273,
1657.837,625.92174,
1654.927,650.23443,
1652.016,644.66659,
1649.106,656.54637,
1646.195,664.04634,
1643.285,691.39779,
1640.374,692.43772,
1637.463,695.93345,
1634.553,726.242,
1631.642,718.08076,
1628.732,782.3987,
1625.821,786.42668,
1622.911,864.92982,
1620.000,901.90885,
1617.089,924.91729,
1614.179,985.62654,
1611.268,1037.4417,
1608.358,1091.7997,
1605.447,1181.1186,
1602.536,1179.8518,
1599.626,1226.2916,
1596.715,1195.8862,
1593.805,1163.7564,
1590.894,1136.5969,
1587.984,1171.4831,
1585.073,1086.3376,
1582.162,1111.2844,
1579.252,1076.005,
1576.341,1019.1123,
1573.431,1059.8477,
1570.520,1005.5811,
1567.610,1018.65,
1564.699,994.12351,
1561.788,1008.5437,
1558.878,993.74724,
1555.967,950.98442,
1553.057,924.53028,
1550.146,913.45865,
1547.235,912.14598,
1544.325,925.8167,
1541.414,939.69546,
1538.504,919.22628,
1535.593,900.27032,
1532.683,900.24045,
1529.772,902.27489,
1526.861,889.24693,
1523.951,866.43846,
1521.040,876.52358,
1518.130,885.80926,
1515.219,930.61536,
1512.309,901.28035,
1509.398,859.68662,
1506.487,895.56407,
1503.577,893.69399,
1500.666,927.91265,
1497.756,910.28202,
1494.845,930.97369,
1491.934,873.23957,
1489.024,831.85237,
1486.113,898.98895,
1483.203,833.32159,
1480.292,832.0116,
1477.382,900.4596,
1474.471,858.82158,
1471.560,825.41035,
1468.650,811.17572,
1465.739,822.10627,
1462.829,838.13363,
1459.918,853.87233,
1457.008,861.8673,
1454.097,857.21558,
1451.186,856.53361,
1448.276,843.1886,
1445.365,800.73045,
1442.455,786.93467,
1439.544,797.19604,
1436.633,769.05425,
1433.723,753.99811,
1430.812,759.03994,
1427.902,768.00639,
1424.991,794.54374,
1422.081,727.48169,
1419.170,776.67486,
1416.259,774.03412,
1413.349,777.41693,
1410.438,731.78998,
1407.528,720.38738,
1404.617,755.31854,
1401.707,727.62048,
1398.796,673.04636,
1395.885,659.96161,
1392.975,651.58301,
1390.064,637.66931,
1387.154,636.03839,
1384.243,622.85673,
1381.332,596.92833,
1378.422,601.13347,
1375.511,596.44957,
1372.601,653.51236,
1369.690,720.09502,
1366.780,693.14935,
1363.869,738.58725,
1360.958,780.50192,
1358.048,781.2887,
1355.137,792.24826,
1352.227,819.35546,
1349.316,843.65104,
1346.406,871.27367,
1343.495,878.42374,
1340.584,854.94512,
1337.674,935.97976,
1334.763,901.56268,
1331.853,959.05101,
1328.942,915.12287,
1326.032,958.31224,
1323.121,961.96536,
1320.210,963.37052,
1317.300,990.75498,
1314.389,1021.7364,
1311.479,1046.171,
1308.568,1064.6077,
1305.657,1067.2845,
1302.747,1075.5502,
1299.836,1141.9549,
1296.926,1161.1869,
1294.015,1178.654,
1291.105,1195.2248,
1288.194,1210.1549,
1285.283,1227.6951,
1282.373,1280.8358,
1279.462,1307.277,
1276.552,1323.5641,
1273.641,1322.4966,
1270.731,1280.4362,
1267.820,1256.1815,
1264.909,1239.1555,
1261.999,1258.7425,
1259.088,1241.4122,
1256.178,1274.6333,
1253.267,1265.0311,
1250.356,1251.5707,
1247.446,1248.5485,
1244.535,1229.5536,
1241.625,1211.3935,
1238.714,1205.3455,
1235.804,1195.4235,
1232.893,1232.9975,
1229.982,1243.1484,
1227.072,1206.936,
1224.161,1200.1725,
1221.251,1171.8282,
1218.340,1134.5191,
1215.430,1157.9125,
1212.519,1166.737,
1209.608,1132.9962,
1206.698,1122.3963,
1203.787,1124.9077,
1200.877,1124.5481,
1197.966,1159.6153,
1195.055,1143.4568,
1192.145,1233.5416,
1189.234,1283.19,
1186.324,1295.557,
1183.413,1304.8826,
1180.503,1332.9241,
1177.592,1351.0211,
1174.681,1291.3887,
1171.771,1298.3956,
1168.860,1299.2887,
1165.950,1280.0241,
1163.039,1262.1053,
1160.129,1255.1953,
1157.218,1283.2192,
1154.307,1325.8768,
1151.397,1335.2085,
1148.486,1306.9744,
1145.576,1310.1437,
1142.665,1304.8162,
1139.754,1291.3569,
1136.844,1284.8735,
1133.933,1294.5186,
1131.023,1277.826,
1128.112,1260.3736,
1125.202,1272.3364,
1122.291,1257.0098,
1119.380,1282.2537,
1116.470,1269.8983,
1113.559,1246.724,
1110.649,1235.7911,
1107.738,1247.8421,
1104.828,1260.7911,
1101.917,1257.2328,
1099.006,1252.6326,
1096.096,1276.5149,
1093.185,1262.4669,
1090.275,1297.7922,
1087.364,1291.9664,
1084.453,1276.938,
1081.543,1283.5216,
1078.632,1301.0018,
1075.722,1298.2377,
1072.811,1280.5612,
1069.901,1283.1809,
1066.990,1290.65,
1064.079,1299.1801,
1061.169,1300.1658,
1058.258,1294.1401,
1055.348,1289.5508,
1052.437,1293.5229,
1049.527,1299.3079,
1046.616,1297.5702,
1043.705,1309.7072,
1040.795,1306.3514,
1037.884,1311.984,
1034.974,1325.4716,
1032.063,1337.3825,
1029.153,1347.6626,
1026.242,1300.09,
1023.331,1305.8745,
1020.421,1358.2634,
1017.510,1377.5736,
1014.600,1380.0272,
1011.689,1383.5243,
1008.778,1367.1385,
1005.868,1313.3827,
1002.957,1314.2431,
1000.047,1384.991,
997.136,1432.5187,
994.226,1464.3286,
991.315,1475.9369,
988.404,1454.375,
985.494,1453.8188,
982.583,1428.9786,
979.673,1412.937,
976.762,1391.349,
973.852,1382.9111,
970.941,1400.7121,
968.030,1424.8604,
965.120,1382.4967,
962.209,1411.4832,
959.299,1419.9162,
956.388,1426.9746,
953.477,1422.7434,
950.567,1419.2634,
947.656,1451.1711,
944.746,1502.994,
941.835,1468.1236,
938.925,1490.9614,
936.014,1471.4613,
933.103,1438.4936,
930.193,1440.9767,
927.282,1433.5877,
924.372,1400.609,
921.461,1430.9858,
918.551,1415.4902,
915.640,1393.6752,
912.729,1387.0813,
909.819,1378.5999,
906.908,1403.0303,
903.998,1422.6684,
901.087,1419.7369,
898.176,1396.2872,
895.266,1397.9103,
892.355,1443.862,
889.445,1430.4338,
886.534,1488.816,
883.624,1506.4305,
880.713,1497.1265,
877.802,1443.3406,
874.892,1332.018,
871.981,1183.9954,
869.071,998.53372,
866.160,1047.1003,
863.250,1202.8932,
860.339,1347.8884,
857.428,1417.0099,
854.518,1429.1494,
851.607,1317.6521,
848.697,1245.4131,
845.786,1204.2491,
842.875,1221.9317,
839.965,1314.0118,
837.054,1449.3936,
834.144,1451.0511,
831.233,1498.0383,
828.323,1507.527,
825.412,1501.1021,
822.501,1517.9708,
819.591,1521.2764,
816.680,1482.1121,
813.770,1495.5556,
810.859,1481.8493,
807.949,1457.1946,
805.038,1479.7777,
802.127,1474.8389,
799.217,1448.2863,
796.306,1426.8884,
793.396,1439.9554,
790.485,1474.7433,
787.574,1472.2193,
784.664,1468.1188,
781.753,1466.033,
778.843,1483.9981,
775.932,1501.2145,
773.022,1492.8247,
770.111,1469.9325,
767.200,1483.6012,
764.290,1487.7971,
761.379,1497.2217,
758.469,1511.9565,
755.558,1509.5727,
752.648,1482.6908,
749.737,1479.3334,
746.826,1493.4292,
743.916,1481.8486,
741.005,1408.1478,
738.095,1361.8708,
735.184,1321.3371,
732.274,1279.5024,
729.363,1277.9111,
726.452,1333.1457,
723.542,1381.7093,
720.631,1460.0644,
717.721,1490.822,
714.810,1494.4716,
711.899,1486.1077,
708.989,1463.5138,
706.078,1485.8115,
703.168,1506.5555,
700.257,1503.1727,
697.347,1488.505,
694.436,1503.3968,
691.525,1504.2006,
688.615,1499.3437,
685.704,1508.0307,
682.794,1519.3963,
679.883,1507.5284,
676.973,1533.1723,
674.062,1528.1657,
671.151,1519.3067,
668.241,1515.6132,
665.330,1514.9002,
662.420,1483.7496,
659.509,1498.3277,
656.598,1518.1645,
653.688,1532.0557,
650.777,1543.7269,
647.867,1524.6151,
644.956,1487.56,
642.046,1442.4991,
639.135,1403.3924,
636.224,1388.7052,
633.314,1454.6021,
630.403,1505.6652,
627.493,1531.6794,
624.582,1535.375,
621.672,1535.375,
618.761,1538.4148,
615.850,1583.454,
612.940,1626.8888,
610.029,1637.5608,
607.119,1614.6616,
604.208,1616.6351,
601.297,1627.8468,
598.387,1628.776,
595.476,1606.4094,
592.566,1596.1775,
589.655,1616.4033,
586.745,1633.1487,
583.834,1632.3483,
580.923,1607.3466,
578.013,1602.6382,
575.102,1593.3448,
572.192,1594.878,
569.281,1611.89,
566.371,1631.4556,
563.460,1613.6219,
560.549,1626.8153,
557.639,1657.1633,
554.728,1678.2765,
551.818,1676.7158,
548.907,1658.702,
545.996,1659.8163,
543.086,1671.8257,
540.175,1636.7866,
537.265,1641.6178,
534.354,1646.3818,
531.444,1643.3592,
528.533,1633.1341,
525.622,1671.9315,
522.712,1644.5766,
519.801,1616.4106,
516.891,1616.5133,
513.980,1656.7766,
511.070,1630.0881,
508.159,1624.0609,
505.248,1642.8917,
502.338,1677.8268,
499.427,1693.2635,
496.517,1686.6275,
493.606,1674.3371,
490.695,1664.0213,
487.785,1647.0859,
484.874,1663.1155,
481.964,1665.4847,
479.053,1656.7652,
476.143,1666.7487,
473.232,1647.9511,
470.321,1662.7575,
467.411,1684.3489,
464.500,1677.7156,
461.590,1651.6805,
458.679,1666.3868,
455.769,1676.1833,
452.858,1662.4313,
449.947,1701.3918,
447.037,1680.2505,
444.126,1670.6174,
441.216,1685.5813,
438.305,1681.0097,
435.395,1684.3088,
432.484,1690.5425,
429.573,1677.5598,
426.663,1596.9849,
423.752,1337.9093,
420.842,1021.4962,
417.931,762.44687,
415.020,716.94539,
412.110,1106.788,
409.199,1405.8761,
406.289,1556.814,
403.378,1521.2444,
400.468,1482.6887,
397.557,1467.8043,
394.646,1516.82,
391.736,1655.9162,
388.825,1641.5859,
385.915,1630.9887,
383.004,1620.8063,
380.094,1609.9508,
377.183,1621.238,
374.272,1663.998,
371.362,1708.2651,
368.451,1732.8249,
365.541,1707.3067,
362.630,1709.1148,
359.719,1722.2944,
356.809,1734.3361,
353.898,1700.6402,
350.988,1716.8719,
348.077,1738.9558,
345.167,1739.2019,
342.256,1716.0428,
339.345,1709.9064,
336.435,1704.5456,
333.524,1689.8917,
330.614,1706.2852,
327.703,1737.5587,
324.793,1768.3042,
321.882,1785.3209,
318.971,1763.0176,
316.061,1736.3308,
313.150,1735.775,
310.240,1798.1127,
307.329,1814.6677,
304.418,1842.7167,
301.508,1872.3289,
298.597,1883.4351,
295.687,1836.9682,
292.776,1847.2918,
289.866,1905.5189,
286.955,1963.1394,
284.044,2044.7449,
281.134,2130.3284,
278.223,2203.4828,
275.313,2204.2196,
272.402,2235.7438,
269.492,2244.7503,
266.581,2210.8031,
263.670,2146.8424,
260.760,2214.0459,
257.849,2301.6136,
254.939,2328.0334,
252.028,2293.6304,
249.117,2300.9322,
246.207,2329.9209,
243.296,2347.4897,
240.386,2368.3118,
237.475,2368.7703,
234.565,2349.0037,
231.654,2321.2491,
228.743,2291.7849,
225.833,2281.0827,
222.922,2294.0988,
220.012,2245.2856,
217.101,2214.1628,
214.191,2178.9231,
211.280,2114.1789,
208.369,2115.4303,
205.459,2102.405,
202.548,2078.2497,
199.638,2077.524,
196.727,2012.2626,
193.816,1992.9722,
190.906,2056.1245,
187.995,1963.4493,
185.085,1938.9407,
182.174,1950.1174,
179.264,1960.2361,
176.353,1971.6275,
173.442,1995.5029,
170.532,2015.698,
167.621,1915.4824,
164.711,1836.3438,
161.800,1733.8322,
158.890,1571.1738,
155.979,1452.4517,
153.068,1352.9422,
150.158,1249.0059,
147.247,1058.7486,
144.337,887.56032,
141.426,718.58465,
138.516,544.38008,
135.605,380.25619,
132.694,252.76943,
129.784,159.22542,
126.873,102.01503,
123.963,72.733826,
121.052,50.593034,
118.141,28.462072,
115.231,26.953859,
112.320,21.291369,
109.410,14.375,
106.499,14.375,
103.589,14.375,
100.678,14.103378,
97.767,13.392441,
94.857,10.603044,
91.946,10.987443,
89.036,14.052387,
86.125,18.307619,
83.215,17.251319,
80.304,11.544077,
77.393,0.21335805,
74.483,3.3058097,
71.572,6.0997042,
68.662,6.82086,
65.751,1.1692514,
62.840,4.6737218,
59.930,9.438569,
57.019,5.9131591,
54.109,2.9863566,
51.198,3.4862649,
48.288,8.3523502,
45.377,5.538838,
42.466,2.7261226,
39.556,0.25988142,
36.645,-0.44230879,
33.735,3.5289877,
30.824,4.2825824,
27.914,-5.5338711,
25.003,-2.8891751,
22.092,-1.5937137,
19.182,-3.2817571,
16.271,7.2105949,
13.361,50.149134,
10.450,93.038681,
7.539,32.983559,
4.629,-189.67131,
1.718,-492.45788,
-1.192,-847.30445,
-4.103,-693.91708,
-7.013,-393.54834,
-9.924,0.375,
