,PL5D80~1,
Raman shift [1/cm],Intensity,
3014.167,4.625,
3011.256,-2.9250107,
3008.346,100.11474,
3005.435,136.97129,
3002.525,140.00252,
2999.614,130.09126,
2996.704,139.44768,
2993.793,145.76728,
2990.882,146.18218,
2987.972,161.59978,
2985.061,159.2851,
2982.151,167.90904,
2979.240,157.97002,
2976.329,189.88456,
2973.419,179.85607,
2970.508,174.4083,
2967.598,179.7242,
2964.687,204.49049,
2961.777,200.37706,
2958.866,226.97269,
2955.955,209.90155,
2953.045,227.13952,
2950.134,215.26349,
2947.224,228.99509,
2944.313,231.73753,
2941.403,237.00638,
2938.492,246.48679,
2935.581,239.46919,
2932.671,241.4276,
2929.760,246.07114,
2926.850,245.25921,
2923.939,261.30726,
2921.028,265.18394,
2918.118,278.7245,
2915.207,279.92253,
2912.297,279.64193,
2909.386,275.41332,
2906.476,267.40029,
2903.565,280.64204,
2900.654,275.41265,
2897.744,251.87644,
2894.833,272.03736,
2891.923,259.65059,
2889.012,274.13367,
2886.102,253.47769,
2883.191,273.61084,
2880.280,252.32355,
2877.370,227.05524,
2874.459,216.07807,
2871.549,259.01978,
2868.638,269.26211,
2865.727,272.91347,
2862.817,276.18248,
2859.906,283.85292,
2856.996,297.07292,
2854.085,305.10399,
2851.175,301.12204,
2848.264,293.331,
2845.353,297.23679,
2842.443,286.81247,
2839.532,286.75939,
2836.622,286.32161,
2833.711,282.52139,
2830.801,286.02059,
2827.890,290.81206,
2824.979,290.55099,
2822.069,307.52265,
2819.158,303.18565,
2816.248,291.20027,
2813.337,293.75914,
2810.427,306.92665,
2807.516,305.73297,
2804.605,294.64664,
2801.695,303.15133,
2798.784,304.77285,
2795.874,291.63557,
2792.963,297.05394,
2790.052,297.62672,
2787.142,307.87488,
2784.231,292.07687,
2781.321,312.74496,
2778.410,297.13516,
2775.500,295.15672,
2772.589,299.93386,
2769.678,312.98338,
2766.768,309.2483,
2763.857,314.10092,
2760.947,323.06511,
2758.036,316.16642,
2755.126,297.56945,
2752.215,319.68865,
2749.304,327.60341,
2746.394,317.68346,
2743.483,315.02503,
2740.573,318.49672,
2737.662,312.18861,
2734.751,318.74149,
2731.841,324.08471,
2728.930,320.29871,
2726.020,335.97222,
2723.109,322.68725,
2720.199,335.90004,
2717.288,329.625,
2714.377,336.59156,
2711.467,328.78874,
2708.556,330.32732,
2705.646,331.23065,
2702.735,335.31058,
2699.825,346.7777,
2696.914,355.81593,
2694.003,347.49655,
2691.093,341.71406,
2688.182,342.49833,
2685.272,351.46568,
2682.361,345.28985,
2679.450,342.8719,
2676.540,359.17787,
2673.629,336.62949,
2670.719,351.32557,
2667.808,356.81954,
2664.898,351.14445,
2661.987,363.39188,
2659.076,364.64225,
2656.166,368.15746,
2653.255,359.55527,
2650.345,358.60141,
2647.434,377.22517,
2644.524,378.60579,
2641.613,370.625,
2638.702,371.60922,
2635.792,370.43657,
2632.881,372.42866,
2629.971,379.96735,
2627.060,378.79094,
2624.149,386.00312,
2621.239,392.13389,
2618.328,381.17603,
2615.418,391.30227,
2612.507,384.76335,
2609.597,397.24776,
2606.686,385.32582,
2603.775,400.14484,
2600.865,389.6864,
2597.954,403.87077,
2595.044,425.32119,
2592.133,405.17263,
2589.223,398.40816,
2586.312,420.2833,
2583.401,417.27828,
2580.491,414.17308,
2577.580,408.67121,
2574.670,434.68784,
2571.759,421.91781,
2568.848,410.68575,
2565.938,417.38699,
2563.027,403.06365,
2560.117,406.25118,
2557.206,436.84271,
2554.296,426.48312,
2551.385,426.68296,
2548.474,443.44025,
2545.564,438.09983,
2542.653,440.54111,
2539.743,434.11884,
2536.832,440.66612,
2533.922,441.71962,
2531.011,447.07505,
2528.100,446.1581,
2525.190,433.18525,
2522.279,449.04708,
2519.369,455.81379,
2516.458,454.40474,
2513.548,467.95211,
2510.637,460.50203,
2507.726,462.99676,
2504.816,461.37359,
2501.905,458.3061,
2498.995,444.64022,
2496.084,462.15811,
2493.173,451.80877,
2490.263,459.77079,
2487.352,477.91713,
2484.442,481.49225,
2481.531,475.73136,
2478.621,472.25057,
2475.710,470.80136,
2472.799,490.41876,
2469.889,486.44219,
2466.978,495.51157,
2464.068,485.1329,
2461.157,499.85502,
2458.247,496.625,
2455.336,490.68957,
2452.425,486.73349,
2449.515,495.27572,
2446.604,481.04208,
2443.694,488.32323,
2440.783,506.10248,
2437.872,506.51561,
2434.962,504.67569,
2432.051,515.91528,
2429.141,501.84882,
2426.230,515.06041,
2423.320,510.41061,
2420.409,516.13779,
2417.498,522.81321,
2414.588,518.26762,
2411.677,526.625,
2408.767,534.71948,
2405.856,548.77505,
2402.946,536.25592,
2400.035,533.82688,
2397.124,538.65707,
2394.214,558.7322,
2391.303,546.33774,
2388.393,558.30178,
2385.482,542.59436,
2382.571,523.56095,
2379.661,557.55507,
2376.750,562.78516,
2373.840,543.85943,
2370.929,581.18098,
2368.019,586.08314,
2365.108,573.69568,
2362.197,559.8469,
2359.287,577.38155,
2356.376,564.6567,
2353.466,568.86819,
2350.555,571.05548,
2347.645,593.40116,
2344.734,586.7448,
2341.823,590.5255,
2338.913,609.25035,
2336.002,592.88338,
2333.092,596.69388,
2330.181,587.04447,
2327.270,595.85493,
2324.360,588.41511,
2321.449,592.90395,
2318.539,614.02866,
2315.628,609.625,
2312.718,585.77697,
2309.807,610.51307,
2306.896,618.84565,
2303.986,614.15103,
2301.075,633.11432,
2298.165,629.24981,
2295.254,618.79734,
2292.344,623.15198,
2289.433,623.98409,
2286.522,627.54467,
2283.612,634.97578,
2280.701,635.29765,
2277.791,674.02201,
2274.880,635.839,
2271.969,642.04064,
2269.059,650.06642,
2266.148,651.81365,
2263.238,639.1308,
2260.327,660.1768,
2257.417,666.67611,
2254.506,661.6022,
2251.595,667.75949,
2248.685,675.36154,
2245.774,695.44883,
2242.864,661.625,
2239.953,670.5007,
2237.043,697.8975,
2234.132,681.51077,
2231.221,678.73098,
2228.311,683.36469,
2225.400,679.5538,
2222.490,706.79753,
2219.579,688.36023,
2216.669,710.0463,
2213.758,718.14525,
2210.847,715.23709,
2207.937,724.25854,
2205.026,710.73491,
2202.116,741.00292,
2199.205,732.80006,
2196.294,746.23696,
2193.384,751.94099,
2190.473,745.33509,
2187.563,773.66367,
2184.652,781.32378,
2181.742,794.39956,
2178.831,832.26314,
2175.920,836.79076,
2173.010,849.95096,
2170.099,886.68801,
2167.189,895.9479,
2164.278,945.46721,
2161.368,992.19418,
2158.457,1039.8959,
2155.546,1075.8203,
2152.636,1120.742,
2149.725,1160.2491,
2146.815,1176.2913,
2143.904,1205.3165,
2140.993,1196.2651,
2138.083,1245.9319,
2135.172,1249.7593,
2132.262,1244.8908,
2129.351,1258.4216,
2126.441,1243.8385,
2123.530,1200.423,
2120.619,1175.1941,
2117.709,1119.3959,
2114.798,1069.5401,
2111.888,1011.6384,
2108.977,979.274,
2106.067,942.80665,
2103.156,930.98549,
2100.245,905.61434,
2097.335,886.6983,
2094.424,865.92322,
2091.514,850.70301,
2088.603,867.32083,
2085.692,849.98202,
2082.782,837.15911,
2079.871,853.41146,
2076.961,856.625,
2074.050,823.72197,
2071.140,825.94681,
2068.229,827.625,
2065.318,832.60076,
2062.408,829.29899,
2059.497,812.81547,
2056.587,834.45018,
2053.676,814.41018,
2050.766,842.69974,
2047.855,818.625,
2044.944,819.6891,
2042.034,819.27808,
2039.123,808.20749,
2036.213,828.20276,
2033.302,831.86399,
2030.391,809.35464,
2027.481,830.56367,
2024.570,839.41083,
2021.660,824.51194,
2018.749,812.73897,
2015.839,817.37369,
2012.928,835.75084,
2010.017,846.6391,
2007.107,822.55585,
2004.196,837.88694,
2001.286,846.81228,
1998.375,837.97047,
1995.465,819.67947,
1992.554,821.76024,
1989.643,852.55352,
1986.733,817.65834,
1983.822,853.20181,
1980.912,847.66436,
1978.001,834.48956,
1975.090,822.44484,
1972.180,811.72873,
1969.269,806.36062,
1966.359,818.89545,
1963.448,842.69634,
1960.538,851.87104,
1957.627,854.40828,
1954.716,844.91227,
1951.806,824.6618,
1948.895,857.37611,
1945.985,821.7737,
1943.074,846.25974,
1940.164,834.42301,
1937.253,840.24649,
1934.342,849.57367,
1931.432,829.19282,
1928.521,806.93588,
1925.611,831.61819,
1922.700,831.75346,
1919.790,820.01238,
1916.879,821.41575,
1913.968,831.6127,
1911.058,818.75713,
1908.147,825.00898,
1905.237,850.24998,
1902.326,831.35094,
1899.415,829.09087,
1896.505,842.09473,
1893.594,833.52748,
1890.684,834.23293,
1887.773,823.78014,
1884.863,834.83001,
1881.952,860.15481,
1879.041,871.65096,
1876.131,831.09168,
1873.220,812.90815,
1870.310,829.26174,
1867.399,813.89689,
1864.489,846.43028,
1861.578,840.59761,
1858.667,832.97229,
1855.757,846.42572,
1852.846,858.18906,
1849.936,881.11451,
1847.025,850.09458,
1844.114,859.0509,
1841.204,870.58654,
1838.293,882.61502,
1835.383,896.82249,
1832.472,875.75196,
1829.562,866.84584,
1826.651,889.03566,
1823.740,904.63268,
1820.830,889.10515,
1817.919,902.35566,
1815.009,888.64409,
1812.098,925.12104,
1809.188,916.49325,
1806.277,933.22663,
1803.366,874.65645,
1800.456,933.92133,
1797.545,904.07184,
1794.635,897.85099,
1791.724,902.03264,
1788.813,954.03066,
1785.903,954.7414,
1782.992,913.03786,
1780.082,949.02248,
1777.171,944.62339,
1774.261,917.45457,
1771.350,903.57851,
1768.439,928.4108,
1765.529,925.99078,
1762.618,950.25377,
1759.708,977.97299,
1756.797,976.95076,
1753.887,975.60022,
1750.976,973.83181,
1748.065,981.60042,
1745.155,963.52197,
1742.244,971.46192,
1739.334,982.25559,
1736.423,966.0811,
1733.512,996.00722,
1730.602,1044.7818,
1727.691,1006.7271,
1724.781,1026.2344,
1721.870,1009.0677,
1718.960,1024.8253,
1716.049,1068.2178,
1713.138,1055.9601,
1710.228,1064.8092,
1707.317,1042.7416,
1704.407,1044.117,
1701.496,1040.0673,
1698.586,1032.2331,
1695.675,1055.0177,
1692.764,1038.6373,
1689.854,1089.2864,
1686.943,1097.4226,
1684.033,1107.3766,
1681.122,1104.676,
1678.211,1149.1967,
1675.301,1161.588,
1672.390,1122.936,
1669.480,1226.3362,
1666.569,1190.9805,
1663.659,1218.576,
1660.748,1216.2613,
1657.837,1249.4123,
1654.927,1283.8518,
1652.016,1253.0343,
1649.106,1310.3839,
1646.195,1339.4981,
1643.285,1294.696,
1640.374,1340.6459,
1637.463,1342.6338,
1634.553,1397.625,
1631.642,1398.1027,
1628.732,1442.1524,
1625.821,1530.6257,
1622.911,1531.6194,
1620.000,1676.773,
1617.089,1768.7941,
1614.179,1854.1997,
1611.268,1924.9854,
1608.358,2026.7554,
1605.447,2092.9112,
1602.536,2139.4918,
1599.626,2157.3439,
1596.715,2155.9022,
1593.805,2158.308,
1590.894,2184.1644,
1587.984,2183.2945,
1585.073,2118.8137,
1582.162,2062.5412,
1579.252,2049.5335,
1576.341,2087.8771,
1573.431,2028.7057,
1570.520,2031.7919,
1567.610,1999.8793,
1564.699,1985.1749,
1561.788,1969.8364,
1558.878,1941.7766,
1555.967,1902.5558,
1553.057,1837.8669,
1550.146,1848.9558,
1547.235,1849.4216,
1544.325,1802.6518,
1541.414,1778.5449,
1538.504,1776.5974,
1535.593,1753.2269,
1532.683,1704.8177,
1529.772,1671.7438,
1526.861,1680.3042,
1523.951,1682.7344,
1521.040,1654.3379,
1518.130,1657.625,
1515.219,1635.5067,
1512.309,1595.7197,
1509.398,1649.3436,
1506.487,1650.7355,
1503.577,1624.5103,
1500.666,1599.6177,
1497.756,1591.5487,
1494.845,1588.6239,
1491.934,1540.5841,
1489.024,1528.0716,
1486.113,1541.5332,
1483.203,1494.6639,
1480.292,1482.6854,
1477.382,1499.4065,
1474.471,1499.0207,
1471.560,1491.094,
1468.650,1476.3261,
1465.739,1444.3649,
1462.829,1424.2536,
1459.918,1460.4043,
1457.008,1467.7478,
1454.097,1458.8762,
1451.186,1454.5844,
1448.276,1416.9836,
1445.365,1410.1258,
1442.455,1421.5382,
1439.544,1435.3744,
1436.633,1457.7601,
1433.723,1423.1175,
1430.812,1438.8518,
1427.902,1416.1289,
1424.991,1395.2781,
1422.081,1404.7172,
1419.170,1432.4109,
1416.259,1375.8703,
1413.349,1386.548,
1410.438,1407.221,
1407.528,1395.8877,
1404.617,1402.4775,
1401.707,1421.0442,
1398.796,1409.688,
1395.885,1376.3965,
1392.975,1357.2708,
1390.064,1356.625,
1387.154,1352.1854,
1384.243,1325.7262,
1381.332,1267.1864,
1378.422,1260.6487,
1375.511,1358.0739,
1372.601,1437.9585,
1369.690,1566.3506,
1366.780,1552.5675,
1363.869,1613.3668,
1360.958,1644.9067,
1358.048,1641.6919,
1355.137,1672.3201,
1352.227,1728.331,
1349.316,1781.7324,
1346.406,1819.3057,
1343.495,1834.3202,
1340.584,1873.5899,
1337.674,1844.6651,
1334.763,1913.5657,
1331.853,1964.5634,
1328.942,1947.9463,
1326.032,1936.6532,
1323.121,2006.4986,
1320.210,2014.3111,
1317.300,2034.5464,
1314.389,2056.1667,
1311.479,2084.2753,
1308.568,2115.0331,
1305.657,2097.3867,
1302.747,2080.9586,
1299.836,2138.4703,
1296.926,2205.4279,
1294.015,2287.2477,
1291.105,2331.1299,
1288.194,2401.3232,
1285.283,2446.2651,
1282.373,2457.625,
1279.462,2500.4477,
1276.552,2567.2157,
1273.641,2604.0046,
1270.731,2608.4474,
1267.820,2615.9631,
1264.909,2605.7565,
1261.999,2579.356,
1259.088,2626.7863,
1256.178,2562.8214,
1253.267,2539.3499,
1250.356,2474.6722,
1247.446,2432.1303,
1244.535,2386.9465,
1241.625,2354.662,
1238.714,2347.8592,
1235.804,2304.1154,
1232.893,2242.0102,
1229.982,2194.4904,
1227.072,2160.9939,
1224.161,2135.0909,
1221.251,2102.3337,
1218.340,2029.7872,
1215.430,1998.3777,
1212.519,2020.0937,
1209.608,2042.2075,
1206.698,2040.391,
1203.787,2042.7808,
1200.877,2046.1324,
1197.966,2086.5946,
1195.055,2141.5264,
1192.145,2146.8683,
1189.234,2181.9574,
1186.324,2251.2661,
1183.413,2283.3509,
1180.503,2276.3466,
1177.592,2278.8875,
1174.681,2256.4983,
1171.771,2255.2129,
1168.860,2237.3511,
1165.950,2150.1583,
1163.039,2135.2122,
1160.129,2163.5786,
1157.218,2162.3956,
1154.307,2136.8017,
1151.397,2128.8857,
1148.486,2124.0803,
1145.576,2093.396,
1142.665,2111.1542,
1139.754,2055.671,
1136.844,2055.2305,
1133.933,2052.4139,
1131.023,2035.2947,
1128.112,2011.5552,
1125.202,1988.4849,
1122.291,1985.8946,
1119.380,2036.6337,
1116.470,2037.5162,
1113.559,2045.3575,
1110.649,2064.651,
1107.738,2074.6966,
1104.828,2079.3699,
1101.917,2083.7374,
1099.006,2083.728,
1096.096,2092.4424,
1093.185,2073.1264,
1090.275,2082.9548,
1087.364,2068.4719,
1084.453,2076.374,
1081.543,2078.5459,
1078.632,2063.1178,
1075.722,2054.428,
1072.811,2042.8589,
1069.901,2074.2963,
1066.990,2078.2417,
1064.079,2102.443,
1061.169,2119.7003,
1058.258,2138.1765,
1055.348,2161.0344,
1052.437,2177.6926,
1049.527,2209.397,
1046.616,2229.3801,
1043.705,2238.5619,
1040.795,2230.4089,
1037.884,2224.1193,
1034.974,2237.4046,
1032.063,2255.379,
1029.153,2241.0138,
1026.242,2260.9078,
1023.331,2264.9581,
1020.421,2301.1772,
1017.510,2298.6962,
1014.600,2300.6963,
1011.689,2331.4622,
1008.778,2357.2903,
1005.868,2379.2891,
1002.957,2453.2796,
1000.047,2543.249,
997.136,2603.7533,
994.226,2636.3325,
991.315,2635.3156,
988.404,2603.2735,
985.494,2606.2222,
982.583,2588.2345,
979.673,2611.2326,
976.762,2578.9407,
973.852,2539.4588,
970.941,2520.401,
968.030,2500.8157,
965.120,2473.8112,
962.209,2518.1433,
959.299,2515.7095,
956.388,2522.8243,
953.477,2541.0786,
950.567,2550.1808,
947.656,2537.5136,
944.746,2536.664,
941.835,2586.0236,
938.925,2588.4123,
936.014,2569.9677,
933.103,2556.625,
930.193,2553.0294,
927.282,2535.3712,
924.372,2475.3331,
921.461,2447.0058,
918.551,2433.8157,
915.640,2416.0268,
912.729,2404.6023,
909.819,2422.6242,
906.908,2415.0423,
903.998,2392.3548,
901.087,2416.5408,
898.176,2441.2601,
895.266,2456.9252,
892.355,2485.0327,
889.445,2551.3348,
886.534,2531.5881,
883.624,2564.6308,
880.713,2569.3557,
877.802,2556.2776,
874.892,2552.1319,
871.981,2537.059,
869.071,2555.4381,
866.160,2578.6338,
863.250,2578.7136,
860.339,2565.9713,
857.428,2559.1555,
854.518,2565.3121,
851.607,2554.4952,
848.697,2551.2494,
845.786,2532.9802,
842.875,2519.0718,
839.965,2532.4262,
837.054,2572.718,
834.144,2581.0056,
831.233,2550.6273,
828.323,2540.5599,
825.412,2543.4054,
822.501,2533.0504,
819.591,2513.2169,
816.680,2476.5672,
813.770,2473.2635,
810.859,2442.7819,
807.949,2403.0031,
805.038,2405.0321,
802.127,2391.862,
799.217,2390.625,
796.306,2365.6518,
793.396,2365.3122,
790.485,2390.4134,
787.574,2373.94,
784.664,2355.8975,
781.753,2386.1742,
778.843,2371.7498,
775.932,2382.2169,
773.022,2473.6943,
770.111,2448.3494,
767.200,2428.3535,
764.290,2397.7762,
761.379,2384.3514,
758.469,2404.3903,
755.558,2450.4125,
752.648,2376.2836,
749.737,2378.5975,
746.826,2343.334,
743.916,2283.6898,
741.005,2241.367,
738.095,2070.8728,
735.184,1920.4841,
732.274,1899.6529,
729.363,1985.1204,
726.452,2127.7143,
723.542,2288.7836,
720.631,2335.852,
717.721,2358.5091,
714.810,2365.8636,
711.899,2372.7141,
708.989,2407.4119,
706.078,2378.7781,
703.168,2364.9456,
700.257,2349.073,
697.347,2340.6676,
694.436,2368.3811,
691.525,2322.5643,
688.615,2348.4729,
685.704,2346.7452,
682.794,2319.6675,
679.883,2330.1657,
676.973,2342.1862,
674.062,2329.311,
671.151,2358.7597,
668.241,2387.8504,
665.330,2324.8141,
662.420,2328.8077,
659.509,2316.9264,
656.598,2341.6485,
653.688,2384.7752,
650.777,2389.3271,
647.867,2410.0316,
644.956,2369.427,
642.046,2342.8688,
639.135,2352.3805,
636.224,2381.6608,
633.314,2388.8063,
630.403,2381.1656,
627.493,2374.2409,
624.582,2387.0444,
621.672,2447.236,
618.761,2425.3069,
615.850,2406.6052,
612.940,2432.4615,
610.029,2497.5206,
607.119,2484.8865,
604.208,2497.1153,
601.297,2507.1117,
598.387,2497.8667,
595.476,2466.3733,
592.566,2495.4949,
589.655,2463.6953,
586.745,2441.4552,
583.834,2435.3312,
580.923,2423.3975,
578.013,2385.7303,
575.102,2380.7873,
572.192,2385.6969,
569.281,2396.2016,
566.371,2443.9416,
563.460,2452.1523,
560.549,2474.578,
557.639,2493.9394,
554.728,2488.8422,
551.818,2523.9564,
548.907,2534.0627,
545.996,2527.4604,
543.086,2514.625,
540.175,2514.625,
537.265,2526.2135,
534.354,2506.0422,
531.444,2502.803,
528.533,2557.9561,
525.622,2562.6118,
522.712,2592.7492,
519.801,2575.3464,
516.891,2531.806,
513.980,2606.9127,
511.070,2617.1467,
508.159,2640.1155,
505.248,2677.3949,
502.338,2719.3931,
499.427,2745.6354,
496.517,2806.3623,
493.606,2825.4165,
490.695,2787.8301,
487.785,2832.478,
484.874,2851.9033,
481.964,2839.1069,
479.053,2806.1093,
476.143,2783.0704,
473.232,2801.7683,
470.321,2796.4874,
467.411,2781.612,
464.500,2778.9547,
461.590,2791.9723,
458.679,2779.6665,
455.769,2781.7481,
452.858,2811.205,
449.947,2778.356,
447.037,2803.1765,
444.126,2830.2795,
441.216,2846.652,
438.305,2875.6054,
435.395,2854.7108,
432.484,2856.2113,
429.573,2876.0925,
426.663,2873.8121,
423.752,2864.5586,
420.842,2869.302,
417.931,2872.0836,
415.020,2845.5411,
412.110,2911.9334,
409.199,2959.1189,
406.289,2982.133,
403.378,2980.5046,
400.468,2944.9729,
397.557,2942.8797,
394.646,2947.3155,
391.736,2934.6351,
388.825,2903.7116,
385.915,2853.6461,
383.004,2841.0396,
380.094,2902.1587,
377.183,2951.8221,
374.272,2999.2774,
371.362,3037.6321,
368.451,3062.5824,
365.541,3078.3437,
362.630,3087.5412,
359.719,3087.4815,
356.809,3080.117,
353.898,3121.3009,
350.988,3150.5271,
348.077,3137.1649,
345.167,3071.3335,
342.256,3144.5462,
339.345,3138.5219,
336.435,3122.9528,
333.524,3144.9538,
330.614,3155.386,
327.703,3152.9775,
324.793,3153.2964,
321.882,3169.5817,
318.971,3151.7391,
316.061,3159.7861,
313.150,3177.6274,
310.240,3187.2749,
307.329,3206.2056,
304.418,3209.9774,
301.508,3188.4926,
298.597,3124.0764,
295.687,3073.2499,
292.776,3104.542,
289.866,3204.781,
286.955,3328.8869,
284.044,3411.1399,
281.134,3507.5008,
278.223,3611.1818,
275.313,3635.498,
272.402,3671.4129,
269.492,3724.9934,
266.581,3796.3561,
263.670,3848.5539,
260.760,3869.3712,
257.849,3898.4913,
254.939,3966.7424,
252.028,3950.2527,
249.117,3949.1069,
246.207,3947.1015,
243.296,3914.1599,
240.386,3926.2968,
237.475,3896.2063,
234.565,3836.6956,
231.654,3849.8425,
228.743,3825.0073,
225.833,3800.3565,
222.922,3787.3296,
220.012,3716.6597,
217.101,3684.7921,
214.191,3678.6848,
211.280,3688.8693,
208.369,3647.9106,
205.459,3635.61,
202.548,3644.1152,
199.638,3623.7971,
196.727,3638.6401,
193.816,3681.5232,
190.906,3745.7046,
187.995,3662.4418,
185.085,3681.8563,
182.174,3717.7996,
179.264,3652.0279,
176.353,3633.091,
173.442,3641.1273,
170.532,3660.0724,
167.621,3603.8364,
164.711,3539.7472,
161.800,3439.8364,
158.890,3276.4583,
155.979,3100.1859,
153.068,2864.8148,
150.158,2572.3835,
147.247,2224.1766,
144.337,1820.406,
141.426,1424.4712,
138.516,1066.7424,
135.605,753.96211,
132.694,521.09502,
129.784,352.53845,
126.873,223.81508,
123.963,154.37567,
121.052,107.74383,
118.141,72.76263,
115.231,64.808726,
112.320,58.659549,
109.410,52.852382,
106.499,43.594364,
103.589,37.142964,
100.678,30.093918,
97.767,20.851729,
94.857,23.396956,
91.946,23.415667,
89.036,21.625,
86.125,21.625,
83.215,20.032239,
80.304,19.582731,
77.393,22.41541,
74.483,13.453111,
71.572,10.436761,
68.662,13.34793,
65.751,10.522126,
62.840,11.070106,
59.930,13.561431,
57.019,17.086841,
54.109,17.027839,
51.198,13.307298,
48.288,5.6646371,
45.377,10.588284,
42.466,10.151684,
39.556,6.9703557,
36.645,9.0769264,
33.735,10.663497,
30.824,9.8579042,
27.914,4.2485023,
25.003,7.3608249,
22.092,8.3333818,
19.182,5.4190542,
16.271,-0.87635696,
13.361,-7.1681218,
10.450,-40.138834,
7.539,-201.44968,
4.629,-359.54812,
1.718,-542.78334,
-1.192,-785.38964,
-4.103,-559.93848,
-7.013,-274.28616,
-9.924,0.625,
