,PLECE3~1,
Raman shift [1/cm],Intensity,
3014.167,-1.25,
3011.256,-1.8000107,
3008.346,47.297771,
3005.435,73.82774,
3002.525,68.239933,
2999.614,81.274673,
2996.704,86.564431,
2993.793,85.864632,
2990.882,94.879765,
2987.972,95.694505,
2985.061,89.183503,
2982.151,91.227308,
2979.240,98.965774,
2976.329,98.490444,
2973.419,102.35026,
2970.508,102.84994,
2967.598,115.98534,
2964.687,105.04823,
2961.777,119.71591,
2958.866,110.09026,
2955.955,103.02655,
2953.045,108.09899,
2950.134,120.7617,
2947.224,140.23756,
2944.313,119.60399,
2941.403,134.00045,
2938.492,142.49527,
2935.581,135.62121,
2932.671,141.38948,
2929.760,139.28462,
2926.850,139.75,
2923.939,137.06774,
2921.028,143.9794,
2918.118,143.91121,
2915.207,148.45247,
2912.297,144.75,
2909.386,146.96168,
2906.476,139.65732,
2903.565,144.75,
2900.654,149.64382,
2897.744,154.67457,
2894.833,148.75,
2891.923,152.8045,
2889.012,148.46098,
2886.102,139.14595,
2883.191,137.75094,
2880.280,116.25717,
2877.370,119.52322,
2874.459,119.92611,
2871.549,140.55288,
2868.638,154.79536,
2865.727,148.85767,
2862.817,148.7353,
2859.906,152.52208,
2856.996,153.23868,
2854.085,149.58822,
2851.175,159.29522,
2848.264,151.88733,
2845.353,162.70687,
2842.443,152.76393,
2839.532,148.51115,
2836.622,135.66016,
2833.711,148.63855,
2830.801,151.25368,
2827.890,141.18882,
2824.979,154.16996,
2822.069,156.60216,
2819.158,142.22978,
2816.248,153.19789,
2813.337,165.93537,
2810.427,150.31612,
2807.516,140.33281,
2804.605,151.9976,
2801.695,159.05263,
2798.784,161.45431,
2795.874,153.90569,
2792.963,143.67862,
2790.052,138.75129,
2787.142,149.90785,
2784.231,147.58851,
2781.321,169.54989,
2778.410,145.46445,
2775.500,156.98414,
2772.589,151.90291,
2769.678,147.03323,
2766.768,164.24321,
2763.857,157.3261,
2760.947,135.25946,
2758.036,148.60994,
2755.126,152.25856,
2752.215,176.79526,
2749.304,157.51619,
2746.394,162.02015,
2743.483,156.85004,
2740.573,155.84738,
2737.662,166.18639,
2734.751,160.19176,
2731.841,149.0467,
2728.930,167.15687,
2726.020,165.87269,
2723.109,160.56467,
2720.199,163.30009,
2717.288,155.10037,
2714.377,170.94148,
2711.467,164.96319,
2708.556,168.00516,
2705.646,176.28522,
2702.735,164.59279,
2699.825,169.83726,
2696.914,162.51181,
2694.003,179.49309,
2691.093,171.05326,
2688.182,176.49667,
2685.272,169.59068,
2682.361,167.3559,
2679.450,175.24379,
2676.540,178.77032,
2673.629,176.43163,
2670.719,180.02727,
2667.808,175.28499,
2664.898,173.86673,
2661.987,178.78326,
2659.076,174.00431,
2656.166,167.76726,
2653.255,186.08163,
2650.345,192.31806,
2647.434,179.75,
2644.524,178.20563,
2641.613,187.40745,
2638.702,181.92359,
2635.792,171.7181,
2632.881,181.36897,
2629.971,189.98493,
2627.060,195.25031,
2624.149,186.31876,
2621.239,193.77964,
2618.328,178.00432,
2615.418,188.39546,
2612.507,198.37055,
2609.597,196.93363,
2606.686,185.19176,
2603.775,181.1508,
2600.865,190.63057,
2597.954,194.51043,
2595.044,192.06267,
2592.133,196.75,
2589.223,217.25633,
2586.312,206.04148,
2583.401,198.64781,
2580.491,207.0096,
2577.580,182.79456,
2574.670,202.27809,
2571.759,192.65924,
2568.848,201.57321,
2565.938,202.60708,
2563.027,207.82275,
2560.117,207.83412,
2557.206,208.03782,
2554.296,208.57838,
2551.385,209.06401,
2548.474,211.45372,
2545.564,198.19318,
2542.653,212.73994,
2539.743,214.10829,
2536.832,217.44345,
2533.922,220.79731,
2531.011,224.29995,
2528.100,216.15415,
2525.190,210.91229,
2522.279,214.98449,
2519.369,216.73131,
2516.458,216.97734,
2513.548,236.50435,
2510.637,204.54928,
2507.726,217.68681,
2504.816,225.37571,
2501.905,211.08354,
2498.995,214.46663,
2496.084,228.81622,
2493.173,234.09205,
2490.263,227.96355,
2487.352,224.58307,
2484.442,225.02193,
2481.531,236.80318,
2478.621,223.16227,
2475.710,241.71933,
2472.799,237.50337,
2469.889,243.05195,
2466.978,234.5955,
2464.068,251.73421,
2461.157,218.90497,
2458.247,222.0441,
2455.336,227.00441,
2452.425,231.64151,
2449.515,221.95791,
2446.604,235.63481,
2443.694,234.07566,
2440.783,241.41779,
2437.872,231.00525,
2434.962,239.58871,
2432.051,243.28701,
2429.141,246.02053,
2426.230,242.14115,
2423.320,255.97905,
2420.409,239.15378,
2417.498,247.74158,
2414.588,265.28225,
2411.677,255.1803,
2408.767,259.92028,
2405.856,251.47613,
2402.946,249.69013,
2400.035,249.94249,
2397.124,249.55747,
2394.214,264.28881,
2391.303,249.82182,
2388.393,269.41284,
2385.482,246.11592,
2382.571,260.75,
2379.661,267.44755,
2376.750,271.22542,
2373.840,264.18126,
2370.929,262.76083,
2368.019,263.13547,
2365.108,265.54058,
2362.197,269.73631,
2359.287,270.15334,
2356.376,279.73239,
2353.466,278.35617,
2350.555,276.75,
2347.645,274.38179,
2344.734,268.8099,
2341.823,294.30225,
2338.913,285.0858,
2336.002,280.1662,
2333.092,284.86508,
2330.181,288.55816,
2327.270,294.58498,
2324.360,277.70751,
2321.449,298.04252,
2318.539,291.04662,
2315.628,304.76559,
2312.718,285.60241,
2309.807,295.02325,
2306.896,298.75,
2303.986,302.23055,
2301.075,307.98404,
2298.165,295.18244,
2295.254,305.4484,
2292.344,306.65049,
2289.433,287.10136,
2286.522,294.83033,
2283.612,299.1301,
2280.701,311.86657,
2277.791,290.27097,
2274.880,304.67596,
2271.969,307.88169,
2269.059,311.24593,
2266.148,313.64316,
2263.238,320.74613,
2260.327,318.09487,
2257.417,323.22444,
2254.506,323.53632,
2251.595,330.31359,
2248.685,316.86353,
2245.774,294.43158,
2242.864,336.07418,
2239.953,337.33627,
2237.043,328.4775,
2234.132,338.25647,
2231.221,342.0394,
2228.311,336.53093,
2225.400,342.46855,
2222.490,335.53508,
2219.579,343.30525,
2216.669,340.22377,
2213.758,337.92254,
2210.847,361.96155,
2207.937,353.40149,
2205.026,365.41647,
2202.116,376.51857,
2199.205,389.45023,
2196.294,392.05598,
2193.384,395.6185,
2190.473,399.03991,
2187.563,396.98201,
2184.652,442.79204,
2181.742,434.40942,
2178.831,449.54381,
2175.920,465.41303,
2173.010,476.00057,
2170.099,490.88195,
2167.189,482.59214,
2164.278,464.12488,
2161.368,488.89224,
2158.457,508.95166,
2155.546,511.46249,
2152.636,507.84042,
2149.725,517.90435,
2146.815,549.71556,
2143.904,559.4526,
2140.993,565.9828,
2138.083,570.76214,
2135.172,579.73321,
2132.262,586.13116,
2129.351,576.66717,
2126.441,560.38103,
2123.530,538.44695,
2120.619,511.06196,
2117.709,499.36675,
2114.798,478.36153,
2111.888,455.20099,
2108.977,422.94205,
2106.067,412.95811,
2103.156,428.46687,
2100.245,409.75627,
2097.335,415.29451,
2094.424,378.44171,
2091.514,368.68283,
2088.603,377.17396,
2085.692,398.25546,
2082.782,409.62953,
2079.871,379.17708,
2076.961,369.94373,
2074.050,396.31364,
2071.140,388.23272,
2068.229,389.38933,
2065.318,382.30525,
2062.408,381.67435,
2059.497,381.94047,
2056.587,395.06369,
2053.676,406.6497,
2050.766,389.28961,
2047.855,369.77848,
2044.944,373.54326,
2042.034,386.53606,
2039.123,384.03283,
2036.213,404.67441,
2033.302,394.11959,
2030.391,380.51304,
2027.481,394.57907,
2024.570,393.32165,
2021.660,427.50309,
2018.749,380.45957,
2015.839,422.00131,
2012.928,410.0604,
2010.017,409.37324,
2007.107,414.00608,
2004.196,397.32137,
2001.286,402.10685,
1998.375,384.74014,
1995.465,399.85446,
1992.554,391.0972,
1989.643,422.54027,
1986.733,379.53596,
1983.822,378.57127,
1980.912,394.61129,
1978.001,395.45316,
1975.090,403.75763,
1972.180,401.23271,
1969.269,418.16672,
1966.359,410.64163,
1963.448,408.51619,
1960.538,402.01188,
1957.627,390.83358,
1954.716,415.97438,
1951.806,384.19067,
1948.895,413.02528,
1945.985,418.68627,
1943.074,412.91964,
1940.164,425.90378,
1937.253,422.90213,
1934.342,412.63878,
1931.432,395.70899,
1928.521,403.78973,
1925.611,419.8408,
1922.700,422.16713,
1919.790,410.55359,
1916.879,419.91301,
1913.968,418.75246,
1911.058,393.66592,
1908.147,422.60987,
1905.237,428.39702,
1902.326,409.34258,
1899.415,427.42195,
1896.505,420.09329,
1893.594,404.29876,
1890.684,414.7891,
1887.773,426.707,
1884.863,429.49032,
1881.952,454.37229,
1879.041,438.78582,
1876.131,424.23497,
1873.220,437.56864,
1870.310,407.26127,
1867.399,449.03029,
1864.489,424.04902,
1861.578,406.9368,
1858.667,410.21706,
1855.757,417.95286,
1852.846,417.26281,
1849.936,425.95921,
1847.025,424.86923,
1844.114,424.99238,
1841.204,430.33741,
1838.293,423.75,
1835.383,438.50549,
1832.472,444.22652,
1829.562,461.46928,
1826.651,445.03135,
1823.740,431.75,
1820.830,454.89981,
1817.919,450.34873,
1815.009,457.16857,
1812.098,461.44291,
1809.188,424.23071,
1806.277,444.24097,
1803.366,436.89973,
1800.456,444.37607,
1797.545,425.45189,
1794.635,469.04096,
1791.724,456.69167,
1788.813,478.3392,
1785.903,454.83326,
1782.992,470.04503,
1780.082,433.8005,
1777.171,462.08351,
1774.261,479.54034,
1771.350,480.25599,
1768.439,459.73194,
1765.529,484.38517,
1762.618,490.27753,
1759.708,497.08688,
1756.797,476.30303,
1753.887,485.62318,
1750.976,453.98758,
1748.065,457.00191,
1745.155,449.73086,
1742.244,449.96555,
1739.334,490.24646,
1736.423,487.79301,
1733.512,482.20529,
1730.602,505.19051,
1727.691,511.21468,
1724.781,535.92045,
1721.870,488.02587,
1718.960,495.3058,
1716.049,498.07205,
1713.138,528.52985,
1710.228,495.45693,
1707.317,512.74886,
1704.407,522.03878,
1701.496,538.24631,
1698.586,550.83781,
1695.675,541.45721,
1692.764,547.37705,
1689.854,597.49806,
1686.943,601.68255,
1684.033,595.89902,
1681.122,553.48067,
1678.211,608.21703,
1675.301,623.70375,
1672.390,601.79785,
1669.480,617.91044,
1666.569,638.15627,
1663.659,670.09298,
1660.748,689.76663,
1657.837,640.05618,
1654.927,654.49973,
1652.016,684.97243,
1649.106,656.68772,
1646.195,773.36638,
1643.285,757.75,
1640.374,757.89634,
1637.463,764.84007,
1634.553,770.38545,
1631.642,813.17346,
1628.732,851.86258,
1625.821,870.78009,
1622.911,916.49078,
1620.000,975.99408,
1617.089,1032.6157,
1614.179,1082.3399,
1611.268,1119.3744,
1608.358,1160.7834,
1605.447,1165.5786,
1602.536,1175.0689,
1599.626,1184.0294,
1596.715,1257.3581,
1593.805,1205.7241,
1590.894,1193.466,
1587.984,1190.1517,
1585.073,1205.9155,
1582.162,1191.2174,
1579.252,1166.4742,
1576.341,1139.3202,
1573.431,1094.5913,
1570.520,1111.2676,
1567.610,1103.3576,
1564.699,1094.1249,
1561.788,1099.088,
1558.878,1034.8392,
1555.967,1036.1226,
1553.057,1041.2674,
1550.146,1010.7828,
1547.235,980.99184,
1544.325,962.26702,
1541.414,953.58977,
1538.504,964.59506,
1535.593,959.22108,
1532.683,932.02151,
1529.772,926.49368,
1526.861,929.12904,
1523.951,925.98632,
1521.040,927.69458,
1518.130,917.20668,
1515.219,899.11027,
1512.309,890.49325,
1509.398,897.69098,
1506.487,915.02563,
1503.577,908.81094,
1500.666,885.81798,
1497.756,842.79288,
1494.845,892.1102,
1491.934,900.66811,
1489.024,875.64329,
1486.113,871.96835,
1483.203,847.76947,
1480.292,877.84195,
1477.382,844.14584,
1474.471,776.4292,
1471.560,804.46696,
1468.650,805.35143,
1465.739,791.3451,
1462.829,805.0577,
1459.918,810.6726,
1457.008,807.2731,
1454.097,819.84179,
1451.186,830.25484,
1448.276,817.1568,
1445.365,790.78397,
1442.455,802.00172,
1439.544,870.47563,
1436.633,811.79866,
1433.723,816.62538,
1430.812,813.68129,
1427.902,787.7049,
1424.991,785.80938,
1422.081,747.21596,
1419.170,773.12805,
1416.259,812.58271,
1413.349,760.33072,
1410.438,802.33061,
1407.528,790.76924,
1404.617,793.23513,
1401.707,804.4506,
1398.796,782.28501,
1395.885,793.7542,
1392.975,829.95801,
1390.064,801.62316,
1387.154,754.665,
1384.243,704.67972,
1381.332,665.88072,
1378.422,631.5805,
1375.511,725.2586,
1372.601,795.86778,
1369.690,829.18112,
1366.780,905.8252,
1363.869,884.79376,
1360.958,880.31346,
1358.048,884.56338,
1355.137,894.78936,
1352.227,906.58008,
1349.316,947.24407,
1346.406,1009.0272,
1343.495,1001.0374,
1340.584,980.71344,
1337.674,1039.6092,
1334.763,1070.515,
1331.853,1038.0619,
1328.942,1061.655,
1326.032,1028.0471,
1323.121,1071.6175,
1320.210,1097.0751,
1317.300,1052.351,
1314.389,1033.1392,
1311.479,1054.614,
1308.568,1043.5577,
1305.657,1022.0455,
1302.747,1059.7062,
1299.836,1051.7353,
1296.926,1109.861,
1294.015,1133.7634,
1291.105,1141.7943,
1288.194,1235.4042,
1285.283,1211.4938,
1282.373,1226.9217,
1279.462,1270.3574,
1276.552,1286.0334,
1273.641,1271.121,
1270.731,1256.6903,
1267.820,1268.3203,
1264.909,1280.5517,
1261.999,1243.4158,
1259.088,1261.6582,
1256.178,1250.7596,
1253.267,1201.9511,
1250.356,1193.8453,
1247.446,1164.48,
1244.535,1144.7232,
1241.625,1142.9056,
1238.714,1111.1524,
1235.804,1058.0607,
1232.893,1064.7469,
1229.982,1077.0942,
1227.072,1028.2073,
1224.161,1062.5727,
1221.251,989.34301,
1218.340,944.25908,
1215.430,925.94143,
1212.519,911.50585,
1209.608,921.17753,
1206.698,950.40947,
1203.787,940.08669,
1200.877,954.64451,
1197.966,985.21593,
1195.055,981.63051,
1192.145,1019.8199,
1189.234,1040.5355,
1186.324,1048.023,
1183.413,1064.882,
1180.503,1094.2167,
1177.592,1110.4771,
1174.681,1085.9486,
1171.771,1059.5852,
1168.860,1052.4404,
1165.950,1050.1374,
1163.039,1021.8139,
1160.129,1008.5703,
1157.218,991.40498,
1154.307,967.8136,
1151.397,950.19031,
1148.486,932.1967,
1145.576,951.59581,
1142.665,948.04416,
1139.754,953.4454,
1136.844,929.5391,
1133.933,911.71193,
1131.023,892.58712,
1128.112,895.31874,
1125.202,919.0882,
1122.291,890.37939,
1119.380,901.84527,
1116.470,911.55309,
1113.559,903.47101,
1110.649,901.40485,
1107.738,905.50073,
1104.828,901.26021,
1101.917,898.14676,
1099.006,920.13133,
1096.096,940.48123,
1093.185,936.09122,
1090.275,964.88373,
1087.364,896.27649,
1084.453,891.56061,
1081.543,903.79448,
1078.632,902.28578,
1075.722,928.99776,
1072.811,925.68795,
1069.901,924.81469,
1066.990,901.30839,
1064.079,919.56799,
1061.169,958.91736,
1058.258,971.58635,
1055.348,966.56875,
1052.437,982.33838,
1049.527,955.65629,
1046.616,979.11469,
1043.705,984.83306,
1040.795,986.3885,
1037.884,986.24426,
1034.974,1001.7642,
1032.063,1019.2119,
1029.153,989.47704,
1026.242,995.53173,
1023.331,1008.2492,
1020.421,998.20217,
1017.510,1000.5939,
1014.600,1012.671,
1011.689,1031.8677,
1008.778,1057.111,
1005.868,1041.8736,
1002.957,1055.6392,
1000.047,1115.99,
997.136,1177.1008,
994.226,1207.873,
991.315,1185.2624,
988.404,1126.3713,
985.494,1133.5417,
982.583,1079.5786,
979.673,1065.8968,
976.762,1057.2919,
973.852,1059.3802,
970.941,1080.198,
968.030,1102.536,
965.120,1061.8037,
962.209,1074.5918,
959.299,1085.249,
956.388,1088.19,
953.477,1068.0207,
950.567,1053.6055,
947.656,1094.1983,
944.746,1105.2426,
941.835,1089.5537,
938.925,1087.7242,
936.014,1108.4772,
933.103,1121.3943,
930.193,1101.3602,
927.282,1066.9251,
924.372,1051.7042,
921.461,1034.2856,
918.551,1017.7123,
915.640,1026.7477,
912.729,1052.9703,
909.819,1054.8553,
906.908,1002.6249,
903.998,1000.5454,
901.087,1030.0293,
898.176,1045.3184,
895.266,1032.0062,
892.355,1017.5871,
889.445,1075.4966,
886.534,1112.4844,
883.624,1096.2009,
880.713,1090.8743,
877.802,1100.9187,
874.892,1100.8446,
871.981,1066.2037,
869.071,1085.4182,
866.160,1077.0207,
863.250,1058.1207,
860.339,1067.9444,
857.428,1100.8629,
854.518,1071.7019,
851.607,1070.0377,
848.697,1062.8718,
845.786,1060.7879,
842.875,1062.7986,
839.965,1070.4977,
837.054,1096.443,
834.144,1069.0942,
831.233,1063.0834,
828.323,1061.2663,
825.412,1056.8523,
822.501,1049.2606,
819.591,1040.9966,
816.680,983.05759,
813.770,994.43661,
810.859,998.92022,
807.949,994.29394,
805.038,1014.958,
802.127,1000.1417,
799.217,1012.167,
796.306,1007.1013,
793.396,1007.9257,
790.485,1018.0125,
787.574,1007.75,
784.664,1007.75,
781.753,1025.1956,
778.843,1025.4186,
775.932,1003.7873,
773.022,985.78139,
770.111,1056.9107,
767.200,1006.9355,
764.290,998.41817,
761.379,1011.4457,
758.469,1021.75,
755.558,1021.75,
752.648,1021.75,
749.737,989.76333,
746.826,940.11452,
743.916,891.86023,
741.005,850.36108,
738.095,731.82706,
735.184,594.04467,
732.274,562.10461,
729.363,614.73535,
726.452,717.57022,
723.542,882.68646,
720.631,932.27057,
717.721,969.95521,
714.810,995.98291,
711.899,1003.9876,
708.989,987.84911,
706.078,986.9487,
703.168,975.82002,
700.257,969.16257,
697.347,967.14158,
694.436,958.49195,
691.525,985.82132,
688.615,981.68742,
685.704,966.25274,
682.794,950.00536,
679.883,937.75,
676.973,937.75,
674.062,946.68315,
671.151,952.18833,
668.241,959.42095,
665.330,979.42644,
662.420,951.47083,
659.509,950.19452,
656.598,961.405,
653.688,974.3603,
650.777,979.31796,
647.867,966.57671,
644.956,981.0862,
642.046,980.97045,
639.135,970.57101,
636.224,988.76989,
633.314,992.73959,
630.403,999.0709,
627.493,987.38702,
624.582,972.638,
621.672,1016.9897,
618.761,1023.3096,
615.850,1003.8125,
612.940,1008.2667,
610.029,1044.2261,
607.119,1011.0616,
604.208,1019.8202,
601.297,1021.7589,
598.387,1031.0752,
595.476,1057.2933,
592.566,1010.0692,
589.655,1008.8768,
586.745,1007.9763,
583.834,990.55121,
580.923,950.67892,
578.013,938.90791,
575.102,917.96876,
572.192,923.32879,
569.281,955.6252,
566.371,949.36421,
563.460,988.25622,
560.549,1006.2118,
557.639,1007.75,
554.728,1009.573,
551.818,1038.4447,
548.907,1032.5617,
545.996,1022.8061,
543.086,1014.2138,
540.175,988.51852,
537.265,1029.4825,
534.354,1036.7196,
531.444,1031.0939,
528.533,1039.5293,
525.622,1036.4255,
522.712,1021.1879,
519.801,1036.1903,
516.891,1075.75,
513.980,1075.75,
511.070,1068.0022,
508.159,1081.9424,
505.248,1105.0062,
502.338,1117.2756,
499.427,1101.0671,
496.517,1112.5884,
493.606,1123.404,
490.695,1122.0338,
487.785,1131.2713,
484.874,1196.7262,
481.964,1192.7138,
479.053,1139.037,
476.143,1144.4127,
473.232,1131.0813,
470.321,1129.156,
467.411,1138.3217,
464.500,1154.3621,
461.590,1139.0473,
458.679,1159.5133,
455.769,1166.2022,
452.858,1136.0342,
449.947,1129.1588,
447.037,1147.7731,
444.126,1161.8591,
441.216,1161.6334,
438.305,1149.4425,
435.395,1135.9485,
432.484,1125.1657,
429.573,1122.8325,
426.663,1140.3158,
423.752,1135.4732,
420.842,1084.3413,
417.931,1047.6505,
415.020,1121.2112,
412.110,1139.1139,
409.199,1133.9921,
406.289,1135.295,
403.378,1173.8217,
400.468,1194.9896,
397.557,1177.0708,
394.646,1148.6324,
391.736,1133.6152,
388.825,1098.1663,
385.915,1045.1745,
383.004,1016.6018,
380.094,1043.587,
377.183,1138.399,
374.272,1179.9479,
371.362,1203.0515,
368.451,1227.5676,
365.541,1224.5655,
362.630,1230.3049,
359.719,1253.5081,
356.809,1296.7015,
353.898,1312.4263,
350.988,1298.3055,
348.077,1276.361,
345.167,1261.2798,
342.256,1271.7387,
339.345,1283.7844,
336.435,1295.0811,
333.524,1303.9144,
330.614,1309.1305,
327.703,1299.4551,
324.793,1303.4441,
321.882,1345.6202,
318.971,1292.0923,
316.061,1300.6073,
313.150,1328.75,
310.240,1328.75,
307.329,1323.7475,
304.418,1326.7655,
301.508,1326.8423,
298.597,1304.6298,
295.687,1302.0728,
292.776,1328.0001,
289.866,1389.0377,
286.955,1504.2789,
284.044,1576.4099,
281.134,1636.1513,
278.223,1698.9171,
275.313,1809.4454,
272.402,1887.9358,
269.492,1933.7702,
266.581,1947.801,
263.670,1962.5046,
260.760,1992.8692,
257.849,2035.7404,
254.939,2090.0477,
252.028,2097.9884,
249.117,2082.9337,
246.207,2060.9924,
243.296,2058.0642,
240.386,2072.1158,
237.475,2050.1676,
234.565,1999.7591,
231.654,1980.7691,
228.743,1924.9669,
225.833,1861.4436,
222.922,1804.4295,
220.012,1819.0006,
217.101,1764.8641,
214.191,1707.247,
211.280,1718.8864,
208.369,1697.5472,
205.459,1654.0115,
202.548,1611.8949,
199.638,1653.2569,
196.727,1664.0549,
193.816,1669.0612,
190.906,1676.8008,
187.995,1678.2488,
185.085,1691.0442,
182.174,1695.7394,
179.264,1662.4921,
176.353,1727.9541,
173.442,1741.371,
170.532,1700.5303,
167.621,1732.9742,
164.711,1681.8353,
161.800,1606.3685,
158.890,1543.7522,
155.979,1502.4061,
153.068,1377.7942,
150.158,1197.7635,
147.247,1068.5321,
144.337,863.53598,
141.426,664.10594,
138.516,508.54054,
135.605,369.40917,
132.694,253.83969,
129.784,161.90357,
126.873,101.11754,
123.963,67.694405,
121.052,48.633819,
118.141,40.780897,
115.231,27.249163,
112.320,24.291816,
109.410,25.295605,
106.499,12.476811,
103.589,8.629491,
100.678,8.2932434,
97.767,9.7151186,
94.857,9.057011,
91.946,6.7344456,
89.036,4.3144895,
86.125,7.8605159,
83.215,10.342761,
80.304,9.5951058,
77.393,3.2215764,
74.483,4.7154049,
71.572,5.3876479,
68.662,4.611465,
65.751,3.1985628,
62.840,7.0853179,
59.930,11.000855,
57.019,8.1805273,
54.109,2.3755524,
51.198,-0.94839072,
48.288,-0.16506337,
45.377,10.385608,
42.466,13.101123,
39.556,10.865119,
36.645,11.567309,
33.735,10.711503,
30.824,9.3082261,
27.914,7.9058756,
25.003,8.3726375,
22.092,8.4270954,
19.182,8.5280173,
16.271,32.310682,
13.361,147.11449,
10.450,347.99881,
7.539,674.8104,
4.629,834.1008,
1.718,783.15718,
-1.192,389.96766,
-4.103,160.4875,
-7.013,32.285083,
-9.924,3.75,
