,PLA5FF~1,
Wavenumbers [1/cm],Intensity,
3014.167,-2.125,
3011.256,2.2249678,
3008.346,24.552754,
3005.435,20.22129,
3002.525,23.252517,
2999.614,22.251636,
2996.704,30.556443,
2993.793,22.980416,
2990.882,33.920823,
2987.972,33.794281,
2985.061,25.855306,
2982.151,33.232981,
2979.240,38.723852,
2976.329,44.875,
2973.419,48.505809,
2970.508,45.641673,
2967.598,35.636044,
2964.687,39.471467,
2961.777,31.66115,
2958.866,52.880939,
2955.955,44.875,
2953.045,48.425338,
2950.134,59.364814,
2947.224,46.330501,
2944.313,65.021012,
2941.403,56.708031,
2938.492,61.736791,
2935.581,56.127777,
2932.671,53.956559,
2929.760,67.755778,
2926.850,72.875,
2923.939,56.912363,
2921.028,59.710232,
2918.118,58.415303,
2915.207,57.931926,
2912.297,77.781911,
2909.386,69.072081,
2906.476,56.588498,
2903.565,60.246112,
2900.654,57.875,
2897.744,52.799567,
2894.833,52.235725,
2891.923,56.631399,
2889.012,33.828758,
2886.102,59.143908,
2883.191,39.899544,
2880.280,52.688381,
2877.370,-27.217876,
2874.459,-66.94269,
2871.549,-54.664159,
2868.638,25.017218,
2865.727,29.71349,
2862.817,44.833533,
2859.906,41.356477,
2856.996,59.345563,
2854.085,81.719566,
2851.175,66.564771,
2848.264,70.580997,
2845.353,55.284774,
2842.443,71.079874,
2839.532,60.666083,
2836.622,75.509767,
2833.711,68.400903,
2830.801,70.67353,
2827.890,64.668724,
2824.979,78.726974,
2822.069,75.965977,
2819.158,81.594674,
2816.248,68.162633,
2813.337,85.400616,
2810.427,79.132571,
2807.516,76.457814,
2804.605,81.69231,
2801.695,80.348675,
2798.784,71.318538,
2795.874,74.880284,
2792.963,75.01798,
2790.052,92.871783,
2787.142,83.914578,
2784.231,79.972845,
2781.321,73.315022,
2778.410,73.650392,
2775.500,77.89465,
2772.589,73.452215,
2769.678,81.124131,
2766.768,72.700226,
2763.857,91.822978,
2760.947,88.321414,
2758.036,85.804972,
2755.126,96.114315,
2752.215,92.343175,
2749.304,95.364205,
2746.394,90.721765,
2743.483,86.72503,
2740.573,91.521064,
2737.662,75.225586,
2734.751,90.224464,
2731.841,83.955583,
2728.930,79.79442,
2726.020,97.104745,
2723.109,80.71042,
2720.199,106.56261,
2717.288,96.856757,
2714.377,97.520899,
2711.467,101.84204,
2708.556,98.407212,
2705.646,95.480654,
2702.735,97.215211,
2699.825,100.45135,
2696.914,104.16092,
2694.003,101.80182,
2691.093,112.64275,
2688.182,109.875,
2685.272,111.72422,
2682.361,90.027839,
2679.450,97.706265,
2676.540,103.99694,
2673.629,104.89745,
2670.719,97.444318,
2667.808,107.43728,
2664.898,99.290366,
2661.987,104.50819,
2659.076,115.45904,
2656.166,105.40746,
2653.255,105.46854,
2650.345,91.898592,
2647.434,102.73239,
2644.524,111.48891,
2641.613,105.38914,
2638.702,116.65407,
2635.792,111.40541,
2632.881,115.56552,
2629.971,115.61998,
2627.060,112.875,
2624.149,113.33437,
2621.239,113.12352,
2618.328,108.17171,
2615.418,116.86591,
2612.507,127.08051,
2609.597,119.9768,
2606.686,110.51154,
2603.775,116.87898,
2600.865,122.22992,
2597.954,117.8812,
2595.044,133.24966,
2592.133,116.53735,
2589.223,127.03186,
2586.312,130.84989,
2583.401,126.77281,
2580.491,121.34136,
2577.580,121.88325,
2574.670,126.32153,
2571.759,133.68321,
2568.848,131.8197,
2565.938,143.30361,
2563.027,134.58184,
2560.117,123.79088,
2557.206,126.29935,
2554.296,131.41962,
2551.385,131.86693,
2548.474,151.0237,
2545.564,127.04625,
2542.653,143.48574,
2539.743,139.86268,
2536.832,126.52733,
2533.922,132.78038,
2531.011,139.24895,
2528.100,156.94812,
2525.190,151.78074,
2522.279,137.9219,
2519.369,138.27126,
2516.458,127.42387,
2513.548,139.29291,
2510.637,145.875,
2507.726,148.99768,
2504.816,153.06215,
2501.905,141.94756,
2498.995,150.53191,
2496.084,158.42202,
2493.173,144.58526,
2490.263,153.82983,
2487.352,164.29073,
2484.442,151.72939,
2481.531,154.92818,
2478.621,148.19725,
2475.710,160.98235,
2472.799,164.763,
2469.889,140.66172,
2466.978,144.98843,
2464.068,142.91732,
2461.157,158.37256,
2458.247,151.71328,
2455.336,158.19398,
2452.425,158.875,
2449.515,169.50701,
2446.604,166.52247,
2443.694,157.73518,
2440.783,168.87838,
2437.872,174.69268,
2434.962,158.84276,
2432.051,149.33219,
2429.141,169.02798,
2426.230,159.46172,
2423.320,179.66061,
2420.409,180.47122,
2417.498,173.08005,
2414.588,164.51762,
2411.677,161.98257,
2408.767,167.40453,
2405.856,183.31781,
2402.946,183.97598,
2400.035,174.48063,
2397.124,171.08891,
2394.214,172.66059,
2391.303,176.01321,
2388.393,164.875,
2385.482,153.40374,
2382.571,147.4947,
2379.661,161.78205,
2376.750,164.71484,
2373.840,181.28746,
2370.929,179.91832,
2368.019,190.2968,
2365.108,190.64202,
2362.197,190.0969,
2359.287,199.64826,
2356.376,190.89613,
2353.466,196.36139,
2350.555,174.66503,
2347.645,185.34783,
2344.734,180.84272,
2341.823,188.69258,
2338.913,205.67796,
2336.002,199.40363,
2333.092,199.23158,
2330.181,196.17421,
2327.270,189.42505,
2324.360,212.79954,
2321.449,204.25935,
2318.539,200.875,
2315.628,192.50569,
2312.718,180.92566,
2309.807,208.14825,
2306.896,211.11913,
2303.986,212.79062,
2301.075,213.55587,
2298.165,216.46164,
2295.254,203.19815,
2292.344,216.45594,
2289.433,208.53909,
2286.522,218.14277,
2283.612,219.59438,
2280.701,225.39516,
2277.791,223.7147,
2274.880,216.23707,
2271.969,214.86677,
2269.059,229.96491,
2266.148,203.52943,
2263.238,201.17229,
2260.327,223.4268,
2257.417,223.52112,
2254.506,209.17988,
2251.595,218.30775,
2248.685,236.97107,
2245.774,228.6555,
2242.864,233.45853,
2239.953,243.69566,
2237.043,241.69251,
2234.132,231.62823,
2231.221,227.47962,
2228.311,224.875,
2225.400,257.76242,
2222.490,252.38963,
2219.579,243.13977,
2216.669,241.85592,
2213.758,245.875,
2210.847,243.45687,
2207.937,243.83428,
2205.026,261.4301,
2202.116,273.61279,
2199.205,267.10041,
2196.294,253.81701,
2193.384,253.42751,
2190.473,264.3128,
2187.563,291.846,
2184.652,284.36888,
2181.742,273.21558,
2178.831,266.875,
2175.920,255.80031,
2173.010,283.40278,
2170.099,282.14335,
2167.189,285.95393,
2164.278,299.66294,
2161.368,311.5898,
2158.457,300.45137,
2155.546,310.52598,
2152.636,291.00274,
2149.725,321.31792,
2146.815,308.60912,
2143.904,308.97537,
2140.993,311.73741,
2138.083,320.06344,
2135.172,323.3792,
2132.262,326.63028,
2129.351,340.20265,
2126.441,318.25356,
2123.530,332.80766,
2120.619,324.53565,
2117.709,311.9845,
2114.798,312.04801,
2111.888,297.75023,
2108.977,294.78229,
2106.067,301.94202,
2103.156,303.875,
2100.245,278.88817,
2097.335,299.63416,
2094.424,292.84866,
2091.514,282.59548,
2088.603,291.9257,
2085.692,283.19103,
2082.782,287.0637,
2079.871,299.0897,
2076.961,296.19789,
2074.050,294.8447,
2071.140,310.01324,
2068.229,295.58983,
2065.318,312.02325,
2062.408,307.47334,
2059.497,307.48811,
2056.587,290.59627,
2053.676,291.6744,
2050.766,300.33614,
2047.855,288.38762,
2044.944,303.7468,
2042.034,285.60905,
2039.123,287.85816,
2036.213,302.51271,
2033.302,305.78768,
2030.391,316.8583,
2027.481,316.33837,
2024.570,319.56067,
2021.660,278.47669,
2018.749,323.48285,
2015.839,336.31922,
2012.928,312.05956,
2010.017,297.56231,
2007.107,319.36285,
2004.196,312.29165,
2001.286,321.56402,
1998.375,316.65354,
1995.465,301.43572,
1992.554,286.60452,
1989.643,296.46024,
1986.733,280.17939,
1983.822,276.47987,
1980.912,319.08213,
1978.001,284.62082,
1975.090,281.875,
1972.180,287.18483,
1969.269,289.47844,
1966.359,273.2532,
1963.448,275.3717,
1960.538,293.48217,
1957.627,281.71709,
1954.716,286.67391,
1951.806,310.68273,
1948.895,286.85477,
1945.985,283.14298,
1943.074,289.42492,
1940.164,270.02878,
1937.253,269.60968,
1934.342,272.34506,
1931.432,287.92548,
1928.521,290.18588,
1925.611,272.34265,
1922.700,288.45234,
1919.790,285.26238,
1916.879,249.45573,
1913.968,285.82705,
1911.058,312.57168,
1908.147,266.53924,
1905.237,271.07353,
1902.326,276.62166,
1899.415,262.97496,
1896.505,219.23056,
1893.594,237.32927,
1890.684,242.00569,
1887.773,264.35729,
1884.863,273.41031,
1881.952,294.58976,
1879.041,281.4238,
1876.131,283.64755,
1873.220,288.49005,
1870.310,290.7315,
1867.399,312.52314,
1864.489,280.875,
1861.578,281.6222,
1858.667,289.60853,
1855.757,290.0886,
1852.846,272.36219,
1849.936,266.08421,
1847.025,267.81661,
1844.114,281.16446,
1841.204,301.61976,
1838.293,287.39412,
1835.383,295.54898,
1832.472,321.95674,
1829.562,311.62734,
1826.651,307.34522,
1823.740,320.06659,
1820.830,304.58349,
1817.919,309.46189,
1815.009,299.88772,
1812.098,285.30808,
1809.188,312.95245,
1806.277,282.60535,
1803.366,302.65873,
1800.456,291.52372,
1797.545,321.81107,
1794.635,340.22999,
1791.724,339.50602,
1788.813,354.27037,
1785.903,333.54365,
1782.992,312.60674,
1780.082,282.9538,
1777.171,183.85785,
1774.261,146.88554,
1771.350,222.76476,
1768.439,280.49393,
1765.529,311.15004,
1762.618,335.53752,
1759.708,318.79864,
1756.797,318.1553,
1753.887,344.95226,
1750.976,361.84751,
1748.065,346.29743,
1745.155,340.45558,
1742.244,342.56432,
1739.334,344.29853,
1736.423,340.22267,
1733.512,350.24495,
1730.602,360.85914,
1727.691,345.21881,
1724.781,376.05752,
1721.870,351.27004,
1718.960,392.20893,
1716.049,338.27395,
1713.138,389.99969,
1710.228,370.41461,
1707.317,395.95043,
1704.407,389.09423,
1701.496,374.20178,
1698.586,400.59453,
1695.675,432.81768,
1692.764,393.21924,
1689.854,354.52065,
1686.943,409.88519,
1684.033,377.74427,
1681.122,365.07891,
1678.211,412.41817,
1675.301,392.93667,
1672.390,407.7793,
1669.480,376.10764,
1666.569,405.31936,
1663.659,439.09105,
1660.748,392.83909,
1657.837,441.83126,
1654.927,439.33613,
1652.016,417.55537,
1649.106,444.06713,
1646.195,413.02587,
1643.285,460.33073,
1640.374,479.74957,
1637.463,474.01912,
1634.553,482.21489,
1631.642,505.24417,
1628.732,538.88093,
1625.821,539.8678,
1622.911,528.93699,
1620.000,566.39625,
1617.089,589.41729,
1614.179,627.77516,
1611.268,663.5366,
1608.358,715.39338,
1605.447,701.8463,
1602.536,703.67066,
1599.626,749.87164,
1596.715,762.04341,
1593.805,714.58108,
1590.894,717.6817,
1587.984,740.5273,
1585.073,692.82599,
1582.162,708.92158,
1579.252,701.60048,
1576.341,689.26224,
1573.431,693.14039,
1570.520,652.83426,
1567.610,656.26741,
1564.699,640.12411,
1561.788,649.48047,
1558.878,634.34382,
1555.967,601.4124,
1553.057,602.63349,
1550.146,594.5114,
1547.235,591.36859,
1544.325,579.47458,
1541.414,563.0946,
1538.504,594.81357,
1535.593,611.31991,
1532.683,574.58044,
1529.772,568.26224,
1526.861,586.25404,
1523.951,575.65691,
1521.040,574.75413,
1518.130,592.99087,
1515.219,602.95477,
1512.309,605.67228,
1509.398,587.2971,
1506.487,578.41828,
1503.577,581.31586,
1500.666,584.7704,
1497.756,592.79037,
1494.845,602.39419,
1491.934,566.64193,
1489.024,495.41745,
1486.113,561.48895,
1483.203,551.77615,
1480.292,545.63244,
1477.382,559.42347,
1474.471,550.59694,
1471.560,547.60067,
1468.650,522.59387,
1465.739,507.67255,
1462.829,523.1827,
1459.918,544.26735,
1457.008,564.56747,
1454.097,572.25342,
1451.186,554.81504,
1448.276,522.37829,
1445.365,482.69412,
1442.455,464.44119,
1439.544,493.01579,
1436.633,501.95246,
1433.723,495.49208,
1430.812,514.68771,
1427.902,524.06321,
1424.991,489.94376,
1422.081,477.86527,
1419.170,445.76883,
1416.259,478.1379,
1413.349,464.21777,
1410.438,461.77346,
1407.528,464.51874,
1404.617,466.04926,
1401.707,438.78815,
1398.796,410.09879,
1395.885,420.34363,
1392.975,438.39573,
1390.064,424.4571,
1387.154,418.23125,
1384.243,465.14961,
1381.332,425.46042,
1378.422,367.71059,
1375.511,403.30827,
1372.601,379.91417,
1369.690,431.88001,
1366.780,416.32191,
1363.869,473.0785,
1360.958,509.41911,
1358.048,522.99474,
1355.137,551.53078,
1352.227,565.55469,
1349.316,564.26275,
1346.406,588.00886,
1343.495,604.6572,
1340.584,584.91015,
1337.674,625.51983,
1334.763,656.33371,
1331.853,668.38771,
1328.942,628.84912,
1326.032,676.07472,
1323.121,645.64003,
1320.210,670.16432,
1317.300,708.76243,
1314.389,746.54215,
1311.479,756.7683,
1308.568,745.26287,
1305.657,752.06542,
1302.747,762.06117,
1299.836,829.26074,
1296.926,825.38775,
1294.015,836.41963,
1291.105,842.15825,
1288.194,872.42849,
1285.283,887.03503,
1282.373,896.83591,
1279.462,905.26707,
1276.552,936.74914,
1273.641,950.65389,
1270.731,928.51978,
1267.820,943.75891,
1264.909,929.69896,
1261.999,912.74321,
1259.088,881.7311,
1256.178,928.69302,
1253.267,910.79035,
1250.356,881.20288,
1247.446,893.17063,
1244.535,892.02683,
1241.625,861.14911,
1238.714,863.60442,
1235.804,910.59832,
1232.893,899.12461,
1229.982,899.95509,
1227.072,872.79572,
1224.161,901.13314,
1221.251,885.28423,
1218.340,840.30191,
1215.430,844.64909,
1212.519,860.34741,
1209.608,855.58375,
1206.698,864.79009,
1203.787,885.22675,
1200.877,870.37351,
1197.966,862.28108,
1195.055,893.4452,
1192.145,919.91262,
1189.234,942.44602,
1186.324,951.96601,
1183.413,967.89025,
1180.503,997.66718,
1177.592,1013.5315,
1174.681,994.10103,
1171.771,981.35986,
1168.860,959.03263,
1165.950,954.45613,
1163.039,930.82771,
1160.129,934.44167,
1157.218,963.10444,
1154.307,981.27782,
1151.397,972.96482,
1148.486,966.67041,
1145.576,992.68002,
1142.665,965.15473,
1139.754,1010.0655,
1136.844,977.45622,
1133.933,985.85428,
1131.023,991.18422,
1128.112,976.23209,
1125.202,979.29045,
1122.291,990.13377,
1119.380,1012.3207,
1116.470,955.83886,
1113.559,988.3107,
1110.649,974.99087,
1107.738,981.16445,
1104.828,995.3784,
1101.917,993.35435,
1099.006,1001.6068,
1096.096,1021.9936,
1093.185,991.26354,
1090.275,1013.9624,
1087.364,998.60519,
1084.453,1006.8739,
1081.543,999.40217,
1078.632,986.91793,
1075.722,1021.1914,
1072.811,1026.1924,
1069.901,1016.5866,
1066.990,1019.9167,
1064.079,1044.693,
1061.169,1037.6491,
1058.258,1028.8038,
1055.348,1030.9958,
1052.437,1012.9393,
1049.527,995.59388,
1046.616,1065.9691,
1043.705,1076.9581,
1040.795,1067.0204,
1037.884,1045.1971,
1034.974,1029.1302,
1032.063,1029.7826,
1029.153,1036.9136,
1026.242,1045.5632,
1023.331,1026.7096,
1020.421,1084.917,
1017.510,1091.7051,
1014.600,1089.8317,
1011.689,1099.7528,
1008.778,1079.514,
1005.868,1094.8364,
1002.957,1090.5346,
1000.047,1098.611,
997.136,1133.5906,
994.226,1156.3211,
991.315,1155.9616,
988.404,1145.4442,
985.494,1102.1243,
982.583,1113.2596,
979.673,1117.8016,
976.762,1117.7008,
973.852,1112.4549,
970.941,1105.3931,
968.030,1104.5802,
965.120,1120.0361,
962.209,1158.4005,
959.299,1155.6678,
956.388,1152.9949,
953.477,1148.9427,
950.567,1157.0376,
947.656,1196.8669,
944.746,1173.9289,
941.835,1160.7278,
938.925,1192.7517,
936.014,1197.7235,
933.103,1179.5786,
930.193,1168.2769,
927.282,1161.7833,
924.372,1160.0921,
921.461,1155.4566,
918.551,1146.9038,
915.640,1141.4501,
912.729,1151.6093,
909.819,1177.5389,
906.908,1152.2661,
903.998,1155.6472,
901.087,1139.0528,
898.176,1155.5979,
895.266,1179.4792,
892.355,1163.7914,
889.445,1141.9705,
886.534,1167.756,
883.624,1185.6588,
880.713,1190.3439,
877.802,1187.4854,
874.892,1169.4319,
871.981,1097.6988,
869.071,963.19732,
866.160,939.875,
863.250,1033.1831,
860.339,1132.194,
857.428,1163.8056,
854.518,1187.6473,
851.607,1145.2118,
848.697,1100.0451,
845.786,1076.6474,
842.875,1072.2732,
839.965,1095.7105,
837.054,1190.9773,
834.144,1200.0936,
831.233,1243.872,
828.323,1257.4564,
825.412,1247.9432,
822.501,1241.6409,
819.591,1229.2449,
816.680,1248.9071,
813.770,1260.14,
810.859,1240.4105,
807.949,1211.5994,
805.038,1210.6759,
802.127,1209.0296,
799.217,1231.9821,
796.306,1220.5776,
793.396,1224.9515,
790.485,1251.5057,
787.574,1238.9996,
784.664,1242.28,
781.753,1275.0822,
778.843,1270.7816,
775.932,1256.9736,
773.022,1271.0998,
770.111,1259.6537,
767.200,1276.3852,
764.290,1264.5387,
761.379,1255.0259,
758.469,1258.6194,
755.558,1254.9448,
752.648,1290.7873,
749.737,1260.0132,
746.826,1239.4088,
743.916,1241.9465,
741.005,1247.7658,
738.095,1229.0926,
735.184,1234.7407,
732.274,1195.8032,
729.363,1163.9271,
726.452,1178.0677,
723.542,1190.2086,
720.631,1240.57,
717.721,1253.5836,
714.810,1270.1476,
711.899,1294.7958,
708.989,1273.0088,
706.078,1288.0998,
703.168,1262.1212,
700.257,1260.6156,
697.347,1287.8313,
694.436,1294.6131,
691.525,1284.9675,
688.615,1273.4413,
685.704,1265.2848,
682.794,1265.6196,
679.883,1279.4609,
676.973,1314.7212,
674.062,1309.1134,
671.151,1295.3,
668.241,1287.5897,
665.330,1288.7405,
662.420,1264.7786,
659.509,1270.6688,
656.598,1294.185,
653.688,1320.3256,
650.777,1331.0109,
647.867,1305.5284,
644.956,1299.875,
642.046,1269.6093,
639.135,1224.3597,
636.224,1215.1097,
633.314,1261.9521,
630.403,1267.9629,
627.493,1278.8539,
624.582,1300.5796,
621.672,1290.2836,
618.761,1287.5952,
615.850,1313.3224,
612.940,1348.1949,
610.029,1371.9022,
607.119,1360.0577,
604.208,1358.165,
601.297,1384.2964,
598.387,1399.6963,
595.476,1371.2065,
592.566,1364.1229,
589.655,1393.9737,
586.745,1404.7994,
583.834,1394.4596,
580.923,1386.0172,
578.013,1409.5592,
575.102,1397.5202,
572.192,1373.871,
569.281,1360.3742,
566.371,1385.4182,
563.460,1412.5664,
560.549,1410.2058,
557.639,1415.943,
554.728,1465.8056,
551.818,1433.0323,
548.907,1397.842,
545.996,1388.8172,
543.086,1398.5132,
540.175,1378.2684,
537.265,1383.3935,
534.354,1395.4071,
531.444,1405.1537,
528.533,1407.9167,
525.622,1436.6268,
522.712,1414.9643,
519.801,1396.4931,
516.891,1390.2408,
513.980,1362.3662,
511.070,1373.2576,
508.159,1404.186,
505.248,1423.613,
502.338,1399.0106,
499.427,1403.6415,
496.517,1412.2285,
493.606,1424.2683,
490.695,1436.2331,
487.785,1431.6143,
484.874,1433.4599,
481.964,1422.0014,
479.053,1400.3817,
476.143,1385.7904,
473.232,1435.9527,
470.321,1428.1401,
467.411,1398.1152,
464.500,1396.4762,
461.590,1420.2141,
458.679,1433.4785,
455.769,1423.7519,
452.858,1397.6355,
449.947,1462.5696,
447.037,1444.3235,
444.126,1427.9417,
441.216,1428.922,
438.305,1394.6351,
435.395,1437.7365,
432.484,1437.4531,
429.573,1399.5675,
426.663,1389.6856,
423.752,1311.4615,
420.842,1193.3881,
417.931,1057.5381,
415.020,933.16739,
412.110,1100.0725,
409.199,1276.3223,
406.289,1392.6612,
403.378,1385.688,
400.468,1330.5004,
397.557,1327.7853,
394.646,1351.3021,
391.736,1377.3096,
388.825,1390.8858,
385.915,1399.6647,
383.004,1392.1677,
380.094,1366.0613,
377.183,1428.5168,
374.272,1436.105,
371.362,1450.8325,
368.451,1501.4527,
365.541,1428.6507,
362.630,1427.9934,
359.719,1448.3145,
356.809,1458.1501,
353.898,1446.1693,
350.988,1452.0973,
348.077,1446.8066,
345.167,1415.8589,
342.256,1435.2827,
339.345,1461.6009,
336.435,1474.8783,
333.524,1460.959,
330.614,1431.8979,
327.703,1433.6565,
324.793,1454.4444,
321.882,1484.8227,
318.971,1463.2629,
316.061,1445.1321,
313.150,1440.3417,
310.240,1461.1209,
307.329,1499.0361,
304.418,1538.4965,
301.508,1561.5734,
298.597,1537.8801,
295.687,1541.9702,
292.776,1541.9583,
289.866,1542.39,
286.955,1563.8131,
284.044,1593.44,
281.134,1641.8306,
278.223,1702.1862,
275.313,1731.6604,
272.402,1759.3684,
269.492,1774.2413,
266.581,1766.2536,
263.670,1673.6209,
260.760,1704.3372,
257.849,1775.6088,
254.939,1829.1822,
252.028,1774.1389,
249.117,1738.2565,
246.207,1732.9973,
243.296,1779.8476,
240.386,1780.957,
237.475,1765.8126,
234.565,1751.547,
231.654,1793.9092,
228.743,1762.0239,
225.833,1712.6665,
222.922,1667.4141,
220.012,1636.0863,
217.101,1635.1986,
214.191,1645.3121,
211.280,1646.767,
208.369,1603.1421,
205.459,1568.3005,
202.548,1555.1452,
199.638,1597.2329,
196.727,1554.5918,
193.816,1541.2578,
190.906,1594.5991,
187.995,1501.1999,
185.085,1469.3479,
182.174,1463.8026,
179.264,1441.3969,
176.353,1444.0012,
173.442,1468.2659,
170.532,1493.2739,
167.621,1385.1276,
164.711,1333.2756,
161.800,1269.1289,
158.890,1141.0174,
155.979,1081.4675,
153.068,995.93038,
150.158,884.4992,
147.247,758.85755,
144.337,621.02006,
141.426,475.60523,
138.516,323.62429,
135.605,238.3378,
132.694,170.3936,
129.784,116.09471,
126.873,71.041527,
123.963,48.217317,
121.052,33.908951,
118.141,23.914323,
115.231,14.637585,
112.320,8.7568204,
109.410,6.6931315,
106.499,10.966063,
103.589,7.3929642,
100.678,3.875,
97.767,3.875,
94.857,3.875,
91.946,5.0843326,
89.036,7.1007958,
86.125,8.5192064,
83.215,11.529602,
80.304,9.0863463,
77.393,-5.0770524,
74.483,3.7020244,
71.572,7.7879437,
68.662,5.32086,
65.751,-0.33074862,
62.840,-0.19819207,
59.930,2.6241448,
57.019,5.4444727,
54.109,1.0977132,
51.198,-2.4266093,
48.288,-3.1080127,
45.377,-0.99787847,
42.466,-0.94943868,
39.556,-2.5854743,
36.645,-5.3942352,
33.735,-0.41326688,
30.824,3.7705651,
27.914,0.26468891,
25.003,-6.3513748,
22.092,-8.5104772,
19.182,-4.7588742,
16.271,6.4329679,
13.361,28.154777,
10.450,32.764828,
7.539,-78.267315,
4.629,-360.12424,
1.718,-696.1223,
-1.192,-1018.9002,
-4.103,-803.68848,
-7.013,-444.15873,
-9.924,-0.125,
