,PL86BB~1,
Wavenumbers [1/cm],Intensity,
3014.167,-1.125,
3011.256,-0.67501074,
3008.346,82.586017,
3005.435,86.454509,
3002.525,98.082494,
2999.614,102.81659,
2996.704,102.11315,
2993.793,100.98963,
2990.882,116.21847,
2987.972,127.78924,
2985.061,111.7617,
2982.151,116.39769,
2979.240,123.72385,
2976.329,126.11817,
2973.419,141.09015,
2970.508,144.0917,
2967.598,131.39709,
2964.687,135.24728,
2961.777,144.43905,
2958.866,167.55404,
2955.955,156.18694,
2953.045,167.875,
2950.134,158.77877,
2947.224,163.95682,
2944.313,194.58298,
2941.403,192.08942,
2938.492,194.30047,
2935.581,205.55227,
2932.671,197.20124,
2929.760,217.11344,
2926.850,213.50921,
2923.939,203.71142,
2921.028,215.1044,
2918.118,213.4153,
2915.207,202.92547,
2912.297,214.78614,
2909.386,210.86041,
2906.476,199.23175,
2903.565,183.61722,
2900.654,181.93364,
2897.744,196.82471,
2894.833,186.68955,
2891.923,165.71149,
2889.012,162.7883,
2886.102,166.02231,
2883.191,120.91276,
2880.280,84.410864,
2877.370,-117.4559,
2874.459,-246.2817,
2871.549,-60.808008,
2868.638,132.25016,
2865.727,143.37882,
2862.817,165.34692,
2859.906,181.67272,
2856.996,195.83877,
2854.085,212.67754,
2851.175,209.875,
2848.264,199.60034,
2845.353,189.0691,
2842.443,200.67013,
2839.532,201.77054,
2836.622,191.17839,
2833.711,196.55632,
2830.801,199.875,
2827.890,203.2299,
2824.979,212.01096,
2822.069,202.0797,
2819.158,216.45451,
2816.248,200.41553,
2813.337,207.17379,
2810.427,205.82403,
2807.516,202.04063,
2804.605,218.03605,
2801.695,215.40133,
2798.784,203.13169,
2795.874,202.86443,
2792.963,206.44628,
2790.052,200.87543,
2787.142,212.82254,
2784.231,211.00546,
2781.321,215.36635,
2778.410,201.58945,
2775.500,220.00189,
2772.589,225.45222,
2769.678,228.01835,
2766.768,215.32353,
2763.857,206.98097,
2760.947,208.34663,
2758.036,222.51206,
2755.126,228.25534,
2752.215,235.72507,
2749.304,230.40739,
2746.394,220.78022,
2743.483,228.425,
2740.573,249.27996,
2737.662,228.00221,
2734.751,232.17607,
2731.841,225.09112,
2728.930,231.42586,
2726.020,237.66088,
2723.109,239.44208,
2720.199,234.7188,
2717.288,235.57574,
2714.377,246.35828,
2711.467,250.10467,
2708.556,240.26868,
2705.646,228.5792,
2702.735,255.692,
2699.825,244.76593,
2696.914,247.44636,
2694.003,253.77418,
2691.093,259.875,
2688.182,256.05648,
2685.272,255.55637,
2682.361,244.78111,
2679.450,238.82971,
2676.540,248.01727,
2673.629,249.89745,
2670.719,243.08665,
2667.808,251.53455,
2664.898,262.35555,
2661.987,264.27507,
2659.076,265.12931,
2656.166,266.61534,
2653.255,253.6131,
2650.345,262.44306,
2647.434,262.07534,
2644.524,275.26109,
2641.613,282.04659,
2638.702,256.33265,
2635.792,266.49814,
2632.881,265.86335,
2629.971,260.10993,
2627.060,273.04094,
2624.149,277.49688,
2621.239,278.12945,
2618.328,268.74784,
2615.418,274.8341,
2612.507,294.73665,
2609.597,270.44586,
2606.686,278.60192,
2603.775,280.27182,
2600.865,275.99106,
2597.954,280.68954,
2595.044,291.5889,
2592.133,275.98323,
2589.223,299.62239,
2586.312,322.82477,
2583.401,294.91874,
2580.491,280.1346,
2577.580,281.8717,
2574.670,281.25869,
2571.759,297.53681,
2568.848,286.47157,
2565.938,302.54176,
2563.027,286.21593,
2560.117,285.59464,
2557.206,294.29935,
2554.296,299.76287,
2551.385,308.437,
2548.474,326.87538,
2545.564,312.60308,
2542.653,304.19043,
2539.743,312.36884,
2536.832,306.83388,
2533.922,317.12731,
2531.011,336.4497,
2528.100,326.6833,
2525.190,318.57131,
2522.279,319.89014,
2519.369,294.44137,
2516.458,290.77018,
2513.548,320.52923,
2510.637,304.658,
2507.726,329.68912,
2504.816,314.74873,
2501.905,317.42561,
2498.995,311.23331,
2496.084,319.94122,
2493.173,311.40083,
2490.263,327.59369,
2487.352,336.4994,
2484.442,328.1598,
2481.531,323.6091,
2478.621,315.8039,
2475.710,343.82899,
2472.799,336.3952,
2469.889,329.45117,
2466.978,331.20486,
2464.068,336.7057,
2461.157,322.7249,
2458.247,340.15443,
2455.336,349.7889,
2452.425,344.06839,
2449.515,334.24299,
2446.604,338.28513,
2443.694,345.52633,
2440.783,339.15878,
2437.872,346.61975,
2434.962,341.97638,
2432.051,355.18995,
2429.141,366.43378,
2426.230,365.07057,
2423.320,358.70321,
2420.409,370.09302,
2417.498,373.44805,
2414.588,356.16788,
2411.677,357.12601,
2408.767,367.41634,
2405.856,385.84877,
2402.946,371.60065,
2400.035,395.93841,
2397.124,361.45787,
2394.214,374.73821,
2391.303,359.33909,
2388.393,348.42381,
2385.482,345.83094,
2382.571,312.875,
2379.661,325.15385,
2376.750,362.0818,
2373.840,375.44374,
2370.929,377.85334,
2368.019,387.5622,
2365.108,385.78076,
2362.197,395.48595,
2359.287,390.68168,
2356.376,411.83626,
2353.466,414.29968,
2350.555,409.85007,
2347.645,407.54653,
2344.734,410.17916,
2341.823,407.94133,
2338.913,411.51977,
2336.002,412.09986,
2333.092,403.48441,
2330.181,390.85711,
2327.270,386.09502,
2324.360,399.75705,
2321.449,418.3376,
2318.539,423.70373,
2315.628,410.9929,
2312.718,406.22522,
2309.807,408.48982,
2306.896,423.42587,
2303.986,435.04376,
2301.075,419.93885,
2298.165,444.80822,
2295.254,430.34895,
2292.344,424.24431,
2289.433,424.57,
2286.522,429.30806,
2283.612,440.67604,
2280.701,434.75843,
2277.791,451.87313,
2274.880,433.43889,
2271.969,455.80916,
2269.059,448.82049,
2266.148,437.22725,
2263.238,452.96765,
2260.327,448.39245,
2257.417,461.75834,
2254.506,449.79812,
2251.595,456.1696,
2248.685,462.86918,
2245.774,449.85333,
2242.864,463.91239,
2239.953,478.19225,
2237.043,471.19929,
2234.132,461.12177,
2231.221,466.69158,
2228.311,501.18939,
2225.400,502.17137,
2222.490,479.54605,
2219.579,483.79786,
2216.669,496.28676,
2213.758,508.35212,
2210.847,492.78434,
2207.937,492.75285,
2205.026,514.65196,
2202.116,535.56396,
2199.205,526.10041,
2196.294,538.10694,
2193.384,541.08598,
2190.473,541.02289,
2187.563,565.92817,
2184.652,575.6701,
2181.742,566.21558,
2178.831,570.42757,
2175.920,575.13183,
2173.010,608.75312,
2170.099,608.27678,
2167.189,605.88935,
2164.278,610.66294,
2161.368,626.875,
2158.457,632.80578,
2155.546,662.17696,
2152.636,664.93887,
2149.725,673.02264,
2146.815,671.04184,
2143.904,680.07574,
2140.993,686.29823,
2138.083,709.62875,
2135.172,722.39599,
2132.262,704.85387,
2129.351,715.5096,
2126.441,702.43805,
2123.530,714.53828,
2120.619,679.78347,
2117.709,647.875,
2114.798,636.22102,
2111.888,616.33757,
2108.977,612.33195,
2106.067,591.91556,
2103.156,599.07253,
2100.245,592.86057,
2097.335,569.875,
2094.424,563.41256,
2091.514,542.875,
2088.603,553.31735,
2085.692,558.96425,
2082.782,554.875,
2079.871,556.51794,
2076.961,565.2938,
2074.050,567.85682,
2071.140,548.03591,
2068.229,549.6914,
2065.318,555.7025,
2062.408,554.98091,
2059.497,557.49406,
2056.587,547.56131,
2053.676,539.24177,
2050.766,560.10445,
2047.855,531.44458,
2044.944,551.14102,
2042.034,552.40101,
2039.123,561.75715,
2036.213,557.66823,
2033.302,554.67891,
2030.391,560.19754,
2027.481,552.85058,
2024.570,555.56067,
2021.660,522.94452,
2018.749,576.16543,
2015.839,536.91044,
2012.928,555.74916,
2010.017,530.90106,
2007.107,537.66754,
2004.196,545.77975,
2001.286,553.95978,
1998.375,562.57087,
1995.465,529.8375,
1992.554,525.25732,
1989.643,495.94648,
1986.733,510.07237,
1983.822,499.82478,
1980.912,518.18147,
1978.001,493.54475,
1975.090,490.64142,
1972.180,496.63432,
1969.269,484.91234,
1966.359,484.46963,
1963.448,495.3717,
1960.538,498.06349,
1957.627,507.68306,
1954.716,497.21972,
1951.806,501.17951,
1948.895,488.7677,
1945.985,491.60702,
1943.074,478.03368,
1940.164,465.91324,
1937.253,454.76181,
1934.342,477.99478,
1931.432,475.13367,
1928.521,464.82319,
1925.611,468.03732,
1922.700,475.99793,
1919.790,475.29121,
1916.879,454.40949,
1913.968,459.86639,
1911.058,488.24135,
1908.147,442.85315,
1905.237,474.72789,
1902.326,434.79947,
1899.415,397.64206,
1896.505,384.09186,
1893.594,384.23781,
1890.684,404.97945,
1887.773,428.65072,
1884.863,455.19846,
1881.952,434.39533,
1879.041,452.40408,
1876.131,455.54559,
1873.220,455.61837,
1870.310,454.0185,
1867.399,455.84301,
1864.489,432.26444,
1861.578,444.49018,
1858.667,462.97984,
1855.757,420.48359,
1852.846,420.42369,
1849.936,440.41055,
1847.025,424.40298,
1844.114,459.0398,
1841.204,497.26661,
1838.293,492.875,
1835.383,483.03801,
1832.472,478.43326,
1829.562,464.90494,
1826.651,479.80721,
1823.740,487.96312,
1820.830,474.52843,
1817.919,465.17436,
1815.009,445.89409,
1812.098,468.90648,
1809.188,530.96789,
1806.277,463.49063,
1803.366,474.79182,
1800.456,470.53449,
1797.545,484.73301,
1794.635,510.29496,
1791.724,490.56435,
1788.813,485.884,
1785.903,499.10185,
1782.992,441.21774,
1780.082,376.3134,
1777.171,260.86106,
1774.261,235.52054,
1771.350,350.73553,
1768.439,466.94038,
1765.529,502.3334,
1762.618,533.63876,
1759.708,524.01614,
1756.797,518.63258,
1753.887,527.875,
1750.976,544.38547,
1748.065,560.79051,
1745.155,553.65572,
1742.244,535.2944,
1739.334,515.86559,
1736.423,551.56092,
1733.512,554.32211,
1730.602,575.05559,
1727.691,560.07752,
1724.781,582.76491,
1721.870,594.09407,
1718.960,610.49741,
1716.049,563.53652,
1713.138,608.59473,
1710.228,603.07995,
1707.317,584.95271,
1704.407,599.94455,
1701.496,612.81357,
1698.586,625.8868,
1695.675,639.97492,
1692.764,623.83401,
1689.854,629.57185,
1686.943,628.90873,
1684.033,648.37828,
1681.122,666.56914,
1678.211,683.7132,
1675.301,699.82567,
1672.390,711.62976,
1669.480,630.41247,
1666.569,698.04302,
1663.659,789.02199,
1660.748,797.39296,
1657.837,773.83727,
1654.927,816.80471,
1652.016,814.50678,
1649.106,840.7808,
1646.195,877.57032,
1643.285,906.17123,
1640.374,918.83319,
1637.463,917.32536,
1634.553,942.92423,
1631.642,1013.331,
1628.732,1055.3905,
1625.821,1141.9404,
1622.911,1241.3115,
1620.000,1303.0939,
1617.089,1463.6312,
1614.179,1559.1959,
1611.268,1602.3135,
1608.358,1713.4903,
1605.447,1816.9329,
1602.536,1842.4446,
1599.626,1875.1527,
1596.715,1864.261,
1593.805,1851.2487,
1590.894,1812.8869,
1587.984,1799.2141,
1585.073,1686.418,
1582.162,1686.0774,
1579.252,1627.6841,
1576.341,1584.2357,
1573.431,1581.574,
1570.520,1544.6561,
1567.610,1495.6195,
1564.699,1468.3744,
1561.788,1461.4666,
1558.878,1449.268,
1555.967,1399.6105,
1553.057,1303.5137,
1550.146,1266.7914,
1547.235,1247.4426,
1544.325,1246.0133,
1541.414,1248.7741,
1538.504,1252.1511,
1535.593,1252.6236,
1532.683,1227.715,
1529.772,1229.7122,
1526.861,1227.712,
1523.951,1200.4111,
1521.040,1230.6987,
1518.130,1251.2226,
1515.219,1269.9151,
1512.309,1257.1948,
1509.398,1231.7267,
1506.487,1225.867,
1503.577,1240.1653,
1500.666,1264.8311,
1497.756,1219.6211,
1494.845,1250.2736,
1491.934,1187.7207,
1489.024,1140.5585,
1486.113,1190.7991,
1483.203,1154.0193,
1480.292,1118.3286,
1477.382,1137.9307,
1474.471,1077.8804,
1471.560,1064.406,
1468.650,1040.2273,
1465.739,1049.0112,
1462.829,1105.0395,
1459.918,1116.0903,
1457.008,1113.0598,
1454.097,1127.6479,
1451.186,1126.3005,
1448.276,1104.3783,
1445.365,1055.6925,
1442.455,1013.5214,
1439.544,1012.8631,
1436.633,959.31096,
1433.723,922.61368,
1430.812,947.02794,
1427.902,924.79954,
1424.991,963.6578,
1422.081,919.91862,
1419.170,893.40943,
1416.259,914.98695,
1413.349,897.46253,
1410.438,896.8728,
1407.528,896.65629,
1404.617,874.91264,
1401.707,810.53065,
1398.796,733.30516,
1395.885,712.58379,
1392.975,745.50044,
1390.064,760.16605,
1387.154,742.3325,
1384.243,710.18336,
1381.332,658.65367,
1378.422,661.31906,
1375.511,747.50291,
1372.601,761.77698,
1369.690,779.16223,
1366.780,796.92367,
1363.869,838.65181,
1360.958,882.58473,
1358.048,879.48233,
1355.137,903.67288,
1352.227,952.88817,
1349.316,1007.6473,
1346.406,1071.8578,
1343.495,1071.9342,
1340.584,1038.7309,
1337.674,1120.339,
1334.763,1118.4508,
1331.853,1186.1387,
1328.942,1203.9959,
1326.032,1239.3154,
1323.121,1271.3268,
1320.210,1275.2136,
1317.300,1288.221,
1314.389,1316.3476,
1311.479,1353.8457,
1308.568,1402.0673,
1305.657,1444.0894,
1302.747,1468.0174,
1299.836,1524.7891,
1296.926,1561.1996,
1294.015,1589.6986,
1291.105,1665.7211,
1288.194,1743.7682,
1285.283,1740.1109,
1282.373,1774.2733,
1279.462,1800.522,
1276.552,1817.2058,
1273.641,1816.6539,
1270.731,1793.6377,
1267.820,1807.1744,
1264.909,1796.3914,
1261.999,1792.2425,
1259.088,1774.9122,
1256.178,1785.0089,
1253.267,1730.8697,
1250.356,1713.1977,
1247.446,1722.2626,
1244.535,1678.826,
1241.625,1613.7454,
1238.714,1595.9886,
1235.804,1604.1857,
1232.893,1608.251,
1229.982,1602.4951,
1227.072,1561.7561,
1224.161,1582.4091,
1221.251,1518.3802,
1218.340,1438.5154,
1215.430,1429.8964,
1212.519,1440.6308,
1209.608,1417.7,
1206.698,1394.1729,
1203.787,1401.8097,
1200.877,1409.4939,
1197.966,1451.7544,
1195.055,1516.1621,
1192.145,1562.1881,
1189.234,1637.4567,
1186.324,1708.9695,
1183.413,1734.5755,
1180.503,1740.3535,
1177.592,1747.4504,
1174.681,1692.1558,
1171.771,1706.7623,
1168.860,1658.5355,
1165.950,1621.6234,
1163.039,1628.5415,
1160.129,1611.8707,
1157.218,1637.2183,
1154.307,1702.6524,
1151.397,1741.2638,
1148.486,1757.169,
1145.576,1790.4465,
1142.665,1734.508,
1139.754,1749.4021,
1136.844,1702.7529,
1133.933,1686.7401,
1131.023,1659.2446,
1128.112,1633.1594,
1125.202,1649.875,
1122.291,1651.379,
1119.380,1662.0309,
1116.470,1677.9164,
1113.559,1638.8928,
1110.649,1616.3975,
1107.738,1621.5914,
1104.828,1618.392,
1101.917,1600.2833,
1099.006,1596.772,
1096.096,1586.5525,
1093.185,1581.2845,
1090.275,1597.8697,
1087.364,1595.6999,
1084.453,1621.5607,
1081.543,1622.4022,
1078.632,1604.2768,
1075.722,1630.1407,
1072.811,1652.5647,
1069.901,1648.1984,
1066.990,1641.4083,
1064.079,1641.9165,
1061.169,1639.5612,
1058.258,1651.697,
1055.348,1663.3502,
1052.437,1642.547,
1049.527,1641.2778,
1046.616,1651.7037,
1043.705,1672.1441,
1040.795,1656.1658,
1037.884,1641.3463,
1034.974,1651.5374,
1032.063,1662.86,
1029.153,1633.9909,
1026.242,1659.9396,
1023.331,1640.8763,
1020.421,1719.8301,
1017.510,1740.7476,
1014.600,1753.4049,
1011.689,1774.902,
1008.778,1740.7699,
1005.868,1716.8827,
1002.957,1717.7431,
1000.047,1797.227,
997.136,1879.7343,
994.226,1927.5825,
991.315,1909.2117,
988.404,1832.8217,
985.494,1811.1845,
982.583,1780.3485,
979.673,1783.9231,
976.762,1758.6941,
973.852,1736.2229,
970.941,1744.4338,
968.030,1755.4932,
965.120,1663.3547,
962.209,1777.5954,
959.299,1810.3317,
956.388,1815.315,
953.477,1805.8324,
950.567,1808.8218,
947.656,1857.7744,
944.746,1887.5088,
941.835,1837.0469,
938.925,1830.7975,
936.014,1824.7701,
933.103,1822.2307,
930.193,1819.892,
927.282,1761.8585,
924.372,1724.6518,
921.461,1735.3394,
918.551,1737.9703,
915.640,1731.2006,
912.729,1727.8269,
909.819,1735.5414,
906.908,1733.0141,
903.998,1750.373,
901.087,1761.8766,
898.176,1747.7416,
895.266,1745.3319,
892.355,1778.9485,
889.445,1757.9668,
886.534,1782.9212,
883.624,1764.3259,
880.713,1755.4268,
877.802,1717.2302,
874.892,1600.2449,
871.981,1416.1464,
869.071,1258.2534,
866.160,1317.12,
863.250,1498.9824,
860.339,1653.2173,
857.428,1714.6667,
854.518,1785.7828,
851.607,1644.331,
848.697,1551.0933,
845.786,1496.0026,
842.875,1519.3163,
839.965,1627.764,
837.054,1737.796,
834.144,1819.8425,
831.233,1817.8763,
828.323,1808.875,
825.412,1813.0605,
822.501,1819.7898,
819.591,1808.2203,
816.680,1788.6442,
813.770,1771.9715,
810.859,1759.9114,
807.949,1746.7091,
805.038,1727.5763,
802.127,1725.1069,
799.217,1683.8785,
796.306,1677.2534,
793.396,1691.0507,
790.485,1693.5566,
787.574,1656.8367,
784.664,1708.5037,
781.753,1727.2688,
778.843,1739.2262,
775.932,1761.0723,
773.022,1782.9848,
770.111,1719.2137,
767.200,1704.9779,
764.290,1724.4122,
761.379,1729.059,
758.469,1715.8974,
755.558,1735.1181,
752.648,1743.2642,
749.737,1710.93,
746.826,1685.8817,
743.916,1672.2905,
741.005,1655.9492,
738.095,1638.8998,
735.184,1541.7721,
732.274,1510.7117,
729.363,1532.0054,
726.452,1571.8151,
723.542,1626.8538,
720.631,1639.814,
717.721,1672.0901,
714.810,1698.8238,
711.899,1710.073,
708.989,1723.7908,
706.078,1733.4906,
703.168,1728.5883,
700.257,1729.2384,
697.347,1741.6571,
694.436,1758.0021,
691.525,1725.8499,
688.615,1741.5158,
685.704,1757.0335,
682.794,1760.8112,
679.883,1763.4785,
676.973,1754.6634,
674.062,1782.2268,
671.151,1793.615,
668.241,1792.593,
665.330,1805.4673,
662.420,1691.2487,
659.509,1706.6058,
656.598,1709.834,
653.688,1695.457,
650.777,1730.794,
647.867,1728.405,
644.956,1695.6792,
642.046,1631.0984,
639.135,1573.7441,
636.224,1596.3206,
633.314,1685.2417,
630.403,1725.0201,
627.493,1733.4183,
624.582,1721.8716,
621.672,1694.9438,
618.761,1727.3123,
615.850,1758.2615,
612.940,1809.0285,
610.029,1866.1945,
607.119,1814.0789,
604.208,1838.6956,
601.297,1874.3053,
598.387,1872.938,
595.476,1811.2464,
592.566,1815.1817,
589.655,1837.9033,
586.745,1856.8185,
583.834,1868.2904,
580.923,1876.9319,
578.013,1886.3487,
575.102,1861.9163,
572.192,1841.875,
569.281,1844.1246,
566.371,1856.6466,
563.460,1851.5258,
560.549,1881.5227,
557.639,1929.0346,
554.728,1965.959,
551.818,1983.1259,
548.907,1968.5926,
545.996,1937.4355,
543.086,1905.1974,
540.175,1897.4109,
537.265,1905.5664,
534.354,1901.3496,
531.444,1894.9896,
528.533,1899.1442,
525.622,1916.991,
522.712,1914.8075,
519.801,1899.0367,
516.891,1879.875,
513.980,1879.875,
511.070,1893.2576,
508.159,1905.0834,
505.248,1900.8591,
502.338,1868.7335,
499.427,1898.0631,
496.517,1900.7841,
493.606,1915.7185,
490.695,1950.2004,
487.785,1930.9556,
484.874,1935.6297,
481.964,1934.4764,
479.053,1921.3593,
476.143,1898.3204,
473.232,1917.7377,
470.321,1924.4153,
467.411,1924.6478,
464.500,1928.4787,
461.590,1873.3454,
458.679,1892.5436,
455.769,1933.4776,
452.858,1963.1815,
449.947,1985.3355,
447.037,1948.6153,
444.126,1954.4083,
441.216,1998.6305,
438.305,1933.8663,
435.395,1956.3456,
432.484,1974.9588,
429.573,1951.4272,
426.663,1838.1662,
423.752,1643.3615,
420.842,1349.146,
417.931,1058.4608,
415.020,930.29825,
412.110,1432.8829,
409.199,1782.2,
406.289,1940.0841,
403.378,1900.5881,
400.468,1815.9167,
397.557,1812.0117,
394.646,1876.1623,
391.736,1990.368,
388.825,1974.5291,
385.915,1985.3086,
383.004,1993.7352,
380.094,1983.2551,
377.183,2029.9087,
374.272,2034.7333,
371.362,2049.6552,
368.451,2100.0969,
365.541,2070.826,
362.630,2059.5976,
359.719,2065.4581,
356.809,2084.697,
353.898,2065.2282,
350.988,2092.4242,
348.077,2108.8395,
345.167,2080.0965,
342.256,2044.9842,
339.345,2072.6067,
336.435,2105.3198,
333.524,2104.1569,
330.614,2113.0987,
327.703,2148.2195,
324.793,2190.7334,
321.882,2224.8894,
318.971,2230.837,
316.061,2235.3166,
313.150,2270.4392,
310.240,2375.0775,
307.329,2384.5921,
304.418,2400.5536,
301.508,2421.7981,
298.597,2440.3085,
295.687,2487.9273,
292.776,2543.6252,
289.866,2621.079,
286.955,2764.3917,
284.044,2875.3224,
281.134,3004.1543,
278.223,3133.875,
275.313,3133.875,
272.402,3232.6285,
269.492,3297.8548,
266.581,3280.6709,
263.670,3221.8565,
260.760,3267.0386,
257.849,3345.4317,
254.939,3407.0778,
252.028,3451.3057,
249.117,3458.7385,
246.207,3453.3679,
243.296,3474.597,
240.386,3454.6733,
237.475,3454.7848,
234.565,3465.7076,
231.654,3413.8503,
228.743,3370.6544,
225.833,3327.9714,
222.922,3280.6283,
220.012,3189.5589,
217.101,3141.7185,
214.191,3104.2974,
211.280,3042.463,
208.369,2947.0452,
205.459,2890.099,
202.548,2878.6466,
199.638,2923.6369,
196.727,2861.4242,
193.816,2833.5589,
190.906,2886.9134,
187.995,2773.9656,
185.085,2769.8663,
182.174,2799.4726,
179.264,2764.7798,
176.353,2768.5643,
173.442,2805.1426,
170.532,2848.0978,
167.621,2729.8578,
164.711,2667.9176,
161.800,2567.6372,
158.890,2353.1583,
155.979,2235.3752,
153.068,2080.13,
150.158,1884.2992,
147.247,1651.6827,
144.337,1370.1276,
141.426,1077.3823,
138.516,789.19204,
135.605,601.10203,
132.694,429.9404,
129.784,279.41206,
126.873,169.28207,
123.963,111.02358,
121.052,75.093034,
118.141,52.962072,
115.231,53.58557,
112.320,46.673189,
109.410,35.920513,
106.499,30.935427,
103.589,24.83271,
100.678,21.418243,
97.767,22.840119,
94.857,18.024077,
91.946,17.084333,
89.036,18.536306,
86.125,16.40869,
83.215,15.875,
80.304,13.720106,
77.393,7.3465764,
74.483,10.80581,
71.572,8.5267746,
68.662,1.290605,
65.751,5.5293115,
62.840,7.356702,
59.930,7.3131414,
57.019,5.1978954,
54.109,-2.888091,
51.198,-3.2992516,
48.288,7.875,
45.377,7.875,
42.466,7.4627807,
39.556,6.1842885,
36.645,1.9711472,
33.735,0.35575153,
30.824,0.53766092,
27.914,2.6411867,
25.003,0.3844501,
22.092,-1.125,
19.182,-1.2394143,
16.271,-4.736865,
13.361,-6.125,
10.450,-43.263635,
7.539,-259.04308,
4.629,-649.18726,
1.718,-1048.7209,
-1.192,-1331.0644,
-4.103,-984.29322,
-7.013,-513.97258,
-9.924,-3.125,
