,PLAC5E~1,
Wavenumbers [1/cm],Intensity,
3014.167,-1.125,
3011.256,1.5749356,
3008.346,23.754689,
3005.435,4.4933783,
3002.525,25.215045,
2999.614,23.013973,
2996.704,20.334797,
2993.793,25.246544,
2990.882,26.745235,
2987.972,40.743831,
2985.061,16.205051,
2982.151,16.113654,
2979.240,27.457695,
2976.329,34.631825,
2973.419,33.844449,
2970.508,34.741614,
2967.598,18.827209,
2964.687,28.859374,
2961.777,31.815079,
2958.866,45.213777,
2955.955,39.392697,
2953.045,31.828044,
2950.134,46.598016,
2947.224,31.216626,
2944.313,41.077279,
2941.403,38.875,
2938.492,45.736791,
2935.581,49.987879,
2932.671,41.759158,
2929.760,62.340384,
2926.850,52.397557,
2923.939,52.393682,
2921.028,62.269172,
2918.118,43.875,
2915.207,30.925472,
2912.297,47.764986,
2909.386,47.079378,
2906.476,37.588498,
2903.565,29.342405,
2900.654,32.428088,
2897.744,31.950433,
2894.833,37.462637,
2891.923,13.35889,
2889.012,-3.2117044,
2886.102,6.6668931,
2883.191,-29.091959,
2880.280,-120.39776,
2877.370,-335.10125,
2874.459,-441.73477,
2871.549,-267.51818,
2868.638,-85.207546,
2865.727,-43.332715,
2862.817,-7.1664666,
2859.906,4.5587585,
2856.996,22.318391,
2854.085,50.719566,
2851.175,29.233413,
2848.264,34.590667,
2845.353,32.155371,
2842.443,44.475696,
2839.532,50.860032,
2836.622,43.964845,
2833.711,55.703908,
2830.801,58.28529,
2827.890,48.023626,
2824.979,55.455044,
2822.069,56.102442,
2819.158,70.174186,
2816.248,54.898159,
2813.337,70.400616,
2810.427,60.786844,
2807.516,61.191563,
2804.605,63.466345,
2801.695,58.480256,
2798.784,64.209692,
2795.874,51.294513,
2792.963,49.58904,
2790.052,71.868995,
2787.142,68.782962,
2784.231,60.972845,
2781.321,49.497838,
2778.410,48.439713,
2775.500,57.938447,
2772.589,66.605127,
2769.678,61.516616,
2766.768,64.440045,
2763.857,65.979045,
2760.947,59.900217,
2758.036,68.110694,
2755.126,70.537396,
2752.215,71.77033,
2749.304,63.747301,
2746.394,63.78022,
2743.483,70.325002,
2740.573,71.649344,
2737.662,75.311393,
2734.751,71.549732,
2731.841,63.063641,
2728.930,57.815558,
2726.020,71.538194,
2723.109,60.895751,
2720.199,85.268891,
2717.288,65.418796,
2714.377,92.870425,
2711.467,74.03874,
2708.556,72.971001,
2705.646,65.565145,
2702.735,80.885317,
2699.825,82.071328,
2696.914,66.398628,
2694.003,70.031094,
2691.093,77.428551,
2688.182,75.347592,
2685.272,89.680123,
2682.361,73.510371,
2679.450,75.53753,
2676.540,63.301806,
2673.629,77.238265,
2670.719,70.298294,
2667.808,73.875,
2664.898,70.069548,
2661.987,83.174967,
2659.076,75.76509,
2656.166,83.745171,
2653.255,75.800171,
2650.345,80.227087,
2647.434,81.075344,
2644.524,88.855792,
2641.613,97.332576,
2638.702,91.095935,
2635.792,78.092354,
2632.881,86.565515,
2629.971,84.875,
2627.060,82.540627,
2624.149,88.118754,
2621.239,90.135376,
2618.328,85.663064,
2615.418,80.875,
2612.507,83.357204,
2609.597,83.966816,
2606.686,78.017579,
2603.775,90.236113,
2600.865,89.287955,
2597.954,82.210399,
2595.044,86.892713,
2592.133,81.040587,
2589.223,87.899218,
2586.312,101.36244,
2583.401,90.794681,
2580.491,96.12015,
2577.580,92.837042,
2574.670,76.516693,
2571.759,99.930647,
2568.848,88.410827,
2565.938,106.68468,
2563.027,82.581839,
2560.117,74.332938,
2557.206,93.668355,
2554.296,97.591247,
2551.385,104.56099,
2548.474,110.61589,
2545.564,101.28652,
2542.653,115.33809,
2539.743,111.93661,
2536.832,85.731066,
2533.922,96.827692,
2531.011,101.02439,
2528.100,101.74951,
2525.190,101.68647,
2522.279,111.54671,
2519.369,100.95071,
2516.458,96.322591,
2513.548,98.256841,
2510.637,106.05945,
2507.726,106.68912,
2504.816,100.74986,
2501.905,99.875,
2498.995,107.875,
2496.084,106.64851,
2493.173,100.55911,
2490.263,117.02079,
2487.352,108.95847,
2484.442,107.17266,
2481.531,108.40681,
2478.621,108.6617,
2475.710,124.82899,
2472.799,114.43559,
2469.889,100.875,
2466.978,107.36978,
2464.068,103.17127,
2461.157,112.10502,
2458.247,111.00738,
2455.336,111.89652,
2452.425,109.98349,
2449.515,120.34694,
2446.604,124.17689,
2443.694,115.3635,
2440.783,139.73649,
2437.872,113.16672,
2434.962,115.88422,
2432.051,109.18995,
2429.141,123.2808,
2426.230,106.24401,
2423.320,131.08939,
2420.409,121.20203,
2417.498,125.03794,
2414.588,122.43018,
2411.677,123.26944,
2408.767,130.08071,
2405.856,132.94635,
2402.946,120.80887,
2400.035,114.16843,
2397.124,124.44718,
2394.214,136.2262,
2391.303,117.72595,
2388.393,99.888946,
2385.482,89.315618,
2382.571,60.507509,
2379.661,83.549244,
2376.750,111.45128,
2373.840,126.14997,
2370.929,129.85334,
2368.019,121.99506,
2365.108,136.01374,
2362.197,137.90237,
2359.287,146.64826,
2356.376,156.86267,
2353.466,145.9367,
2350.555,126.71489,
2347.645,128.97963,
2344.734,137.8151,
2341.823,136.90817,
2338.913,150.98693,
2336.002,151.32472,
2333.092,149.86366,
2330.181,152.68316,
2327.270,138.8651,
2324.360,149.21932,
2321.449,156.25935,
2318.539,149.30007,
2315.628,145.875,
2312.718,160.00717,
2309.807,152.73837,
2306.896,149.36326,
2303.986,151.8361,
2301.075,146.68356,
2298.165,156.23111,
2295.254,142.28432,
2292.344,154.92475,
2289.433,162.85182,
2286.522,165.60261,
2283.612,172.4949,
2280.701,176.20235,
2277.791,172.27201,
2274.880,140.50887,
2271.969,164.875,
2269.059,162.08208,
2266.148,151.12041,
2263.238,135.28041,
2260.327,166.25423,
2257.417,159.77278,
2254.506,162.63852,
2251.595,160.72953,
2248.685,159.19232,
2245.774,147.062,
2242.864,154.56076,
2239.953,177.73709,
2237.043,171.92679,
2234.132,165.02047,
2231.221,173.24457,
2228.311,179.61469,
2225.400,192.48096,
2222.490,180.73172,
2219.579,185.79786,
2216.669,187.83684,
2213.758,167.17431,
2210.847,163.15962,
2207.937,187.93849,
2205.026,178.87471,
2202.116,185.30175,
2199.205,181.28747,
2196.294,176.25502,
2193.384,186.79552,
2190.473,172.28345,
2187.563,222.788,
2184.652,205.92928,
2181.742,207.14714,
2178.831,203.34974,
2175.920,207.6291,
2173.010,221.27636,
2170.099,217.47619,
2167.189,215.05439,
2164.278,236.20666,
2161.368,216.58908,
2158.457,222.14588,
2155.546,232.84425,
2152.636,229.4229,
2149.725,217.38507,
2146.815,244.87393,
2143.904,229.97908,
2140.993,236.15018,
2138.083,235.91141,
2135.172,257.8666,
2132.262,244.47975,
2129.351,253.99925,
2126.441,247.50603,
2123.530,255.03214,
2120.619,263.78347,
2117.709,231.08394,
2114.798,219.16335,
2111.888,216.68694,
2108.977,244.13329,
2106.067,239.2242,
2103.156,238.39434,
2100.245,194.89194,
2097.335,222.59751,
2094.424,219.73712,
2091.514,194.23253,
2088.603,206.74131,
2085.692,216.32855,
2082.782,218.82276,
2079.871,212.6603,
2076.961,220.22922,
2074.050,214.53561,
2071.140,211.57586,
2068.229,225.4323,
2065.318,212.406,
2062.408,218.32205,
2059.497,229.0893,
2056.587,232.45642,
2053.676,214.72605,
2050.766,221.95123,
2047.855,217.44781,
2044.944,204.73717,
2042.034,212.37205,
2039.123,208.41709,
2036.213,225.33721,
2033.302,229.02705,
2030.391,215.90944,
2027.481,224.96018,
2024.570,225.13232,
2021.660,207.8802,
2018.749,247.26715,
2015.839,230.66437,
2012.928,218.50755,
2010.017,207.12147,
2007.107,215.96846,
2004.196,217.85119,
2001.286,227.14707,
1998.375,236.65847,
1995.465,228.43572,
1992.554,198.70465,
1989.643,221.90722,
1986.733,215.52061,
1983.822,180.22286,
1980.912,212.49825,
1978.001,201.53549,
1975.090,224.47653,
1972.180,206.49737,
1969.269,191.83766,
1966.359,184.49649,
1963.448,203.71253,
1960.538,212.875,
1957.627,187.90904,
1954.716,217.89829,
1951.806,209.17951,
1948.895,193.96207,
1945.985,186.59396,
1943.074,201.5836,
1940.164,187.5001,
1937.253,186.83606,
1934.342,191.51617,
1931.432,211.33872,
1928.521,197.64011,
1925.611,159.32336,
1922.700,184.28107,
1919.790,192.15248,
1916.879,179.78174,
1913.968,179.87377,
1911.058,212.89301,
1908.147,186.46917,
1905.237,186.74993,
1902.326,148.51203,
1899.415,141.11278,
1896.505,97.170017,
1893.594,105.40255,
1890.684,152.2344,
1887.773,177.89186,
1884.863,192.06407,
1881.952,205.03489,
1879.041,209.11851,
1876.131,200.73121,
1873.220,195.38826,
1870.310,221.79423,
1867.399,225.84301,
1864.489,209.94036,
1861.578,187.342,
1858.667,189.82112,
1855.757,180.66498,
1852.846,194.89038,
1849.936,202.96809,
1847.025,192.05506,
1844.114,185.93386,
1841.204,209.89598,
1838.293,196.91491,
1835.383,196.92098,
1832.472,228.14283,
1829.562,221.82135,
1826.651,222.76411,
1823.740,213.04356,
1820.830,232.56813,
1817.919,208.92869,
1815.009,172.76305,
1812.098,219.93796,
1809.188,229.62693,
1806.277,205.4283,
1803.366,189.875,
1800.456,191.13901,
1797.545,213.98133,
1794.635,224.22999,
1791.724,219.04977,
1788.813,221.28323,
1785.903,219.43914,
1782.992,124.2416,
1780.082,75.133603,
1777.171,-65.825255,
1774.261,-138.92895,
1771.350,30.233533,
1768.439,176.68726,
1765.529,228.33245,
1762.618,237.21248,
1759.708,207.46176,
1756.797,224.375,
1753.887,249.2336,
1750.976,260.79581,
1748.065,250.36963,
1745.155,247.09428,
1742.244,242.94295,
1739.334,236.50559,
1736.423,240.11425,
1733.512,237.50913,
1730.602,280.008,
1727.691,257.25963,
1724.781,243.51527,
1721.870,227.58443,
1718.960,260.05321,
1716.049,275.42577,
1713.138,263.19507,
1710.228,286.11361,
1707.317,288.10586,
1704.407,283.38301,
1701.496,280.14036,
1698.586,289.11484,
1695.675,311.3963,
1692.764,277.84629,
1689.854,246.2175,
1686.943,273.86323,
1684.033,283.65147,
1681.122,270.11289,
1678.211,295.62755,
1675.301,313.8195,
1672.390,257.91388,
1669.480,271.2039,
1666.569,312.43362,
1663.659,355.23804,
1660.748,316.97141,
1657.837,322.77166,
1654.927,362.12527,
1652.016,331.21519,
1649.106,344.60571,
1646.195,334.42646,
1643.285,357.42188,
1640.374,380.66594,
1637.463,370.78493,
1634.553,366.407,
1631.642,402.23331,
1628.732,434.83352,
1625.821,427.88023,
1622.911,435.82992,
1620.000,480.30806,
1617.089,540.66107,
1614.179,551.59299,
1611.268,534.5442,
1608.358,633.95857,
1605.447,623.78916,
1602.536,604.23726,
1599.626,632.31285,
1596.715,677.53226,
1593.805,637.1584,
1590.894,619.54562,
1587.984,621.33937,
1585.073,577.63253,
1582.162,575.7192,
1579.252,600.60573,
1576.341,592.25692,
1573.431,576.34421,
1570.520,576.69689,
1567.610,571.91412,
1564.699,532.17345,
1561.788,522.10031,
1558.878,526.60605,
1555.967,492.19911,
1553.057,516.61595,
1550.146,519.9805,
1547.235,477.949,
1544.325,478.79968,
1541.414,494.875,
1538.504,487.68176,
1535.593,486.71797,
1532.683,468.5271,
1529.772,451.51857,
1526.861,467.67966,
1523.951,472.97493,
1521.040,467.19988,
1518.130,454.40371,
1515.219,482.11483,
1512.309,476.72631,
1509.398,445.4529,
1506.487,458.67795,
1503.577,482.48789,
1500.666,517.7411,
1497.756,493.2564,
1494.845,496.79441,
1491.934,470.66397,
1489.024,406.17695,
1486.113,465.99844,
1483.203,438.0128,
1480.292,438.11756,
1477.382,478.47916,
1474.471,440.2975,
1471.560,412.08734,
1468.650,404.82518,
1465.739,414.12284,
1462.829,436.58589,
1459.918,451.18995,
1457.008,457.93659,
1454.097,447.08594,
1451.186,446.09357,
1448.276,443.41612,
1445.365,397.94609,
1442.455,395.51492,
1439.544,390.45262,
1436.633,361.02098,
1433.723,380.48604,
1430.812,407.92487,
1427.902,347.72408,
1424.991,425.4406,
1422.081,371.9089,
1419.170,375.5156,
1416.259,369.58443,
1413.349,359.56735,
1410.438,383.46663,
1407.528,383.28765,
1404.617,357.49977,
1401.707,335.92589,
1398.796,323.21068,
1395.885,324.31601,
1392.975,323.89538,
1390.064,309.76118,
1387.154,315.93053,
1384.243,283.32206,
1381.332,249.21903,
1378.422,226.76398,
1375.511,205.21802,
1372.601,299.79674,
1369.690,353.30779,
1366.780,374.3396,
1363.869,385.13977,
1360.958,377.97176,
1358.048,379.99474,
1355.137,395.38868,
1352.227,413.56786,
1349.316,443.70528,
1346.406,484.77367,
1343.495,493.41852,
1340.584,465.69574,
1337.674,511.83981,
1334.763,518.6753,
1331.853,487.14944,
1328.942,453.85429,
1326.032,497.99662,
1323.121,513.32079,
1320.210,531.52302,
1317.300,527.48013,
1314.389,539.94486,
1311.479,552.01098,
1308.568,550.85478,
1305.657,563.22255,
1302.747,565.19765,
1299.836,607.90938,
1296.926,594.85777,
1294.015,616.00221,
1291.105,643.29125,
1288.194,679.62346,
1285.283,670.69093,
1282.373,689.18741,
1279.462,680.26761,
1276.552,694.78853,
1273.641,710.3394,
1270.731,672.75709,
1267.820,666.56544,
1264.909,637.05104,
1261.999,652.27582,
1259.088,635.85764,
1256.178,705.10443,
1253.267,690.79035,
1250.356,665.2664,
1247.446,682.10427,
1244.535,688.47771,
1241.625,661.938,
1238.714,642.98862,
1235.804,651.40412,
1232.893,660.61922,
1229.982,686.13907,
1227.072,664.41158,
1224.161,645.22442,
1221.251,618.05071,
1218.340,587.20158,
1215.430,604.60391,
1212.519,604.42599,
1209.608,585.15189,
1206.698,598.51317,
1203.787,584.90013,
1200.877,596.26505,
1197.966,602.55916,
1195.055,642.12444,
1192.145,690.19889,
1189.234,697.38708,
1186.324,738.60656,
1183.413,752.46888,
1180.503,737.71424,
1177.592,755.49092,
1174.681,716.73459,
1171.771,708.75137,
1168.860,703.39283,
1165.950,706.10016,
1163.039,697.79576,
1160.129,674.99964,
1157.218,678.70076,
1154.307,695.3909,
1151.397,692.875,
1148.486,700.06812,
1145.576,739.87276,
1142.665,716.78703,
1139.754,729.52032,
1136.844,739.87803,
1133.933,742.28849,
1131.023,715.90973,
1128.112,690.44591,
1125.202,710.40153,
1122.291,747.86151,
1119.380,713.00492,
1116.470,726.24284,
1113.559,707.77052,
1110.649,710.38799,
1107.738,709.51682,
1104.828,704.875,
1101.917,702.80391,
1099.006,695.94721,
1096.096,686.33747,
1093.185,677.55744,
1090.275,732.71465,
1087.364,711.56886,
1084.453,709.93661,
1081.543,712.5488,
1078.632,701.24821,
1075.722,706.45712,
1072.811,733.07549,
1069.901,707.75092,
1066.990,719.61663,
1064.079,726.27757,
1061.169,738.36872,
1058.258,735.86438,
1055.348,720.28708,
1052.437,717.72708,
1049.527,712.34493,
1046.616,724.50854,
1043.705,720.47964,
1040.795,736.75313,
1037.884,743.33484,
1034.974,729.81959,
1032.063,709.2982,
1029.153,704.2106,
1026.242,756.97294,
1023.331,728.87692,
1020.421,750.06196,
1017.510,757.39279,
1014.600,763.60239,
1011.689,760.05586,
1008.778,715.96905,
1005.868,704.36534,
1002.957,647.58195,
1000.047,697.84302,
997.136,786.83013,
994.226,837.44418,
991.315,832.43689,
988.404,808.44304,
985.494,795.89418,
982.583,796.75074,
979.673,784.43701,
976.762,775.76529,
973.852,778.62113,
970.941,787.06052,
968.030,785.36626,
965.120,760.05758,
962.209,803.53723,
959.299,788.91928,
956.388,773.71539,
953.477,773.3963,
950.567,793.46903,
947.656,830.09243,
944.746,816.49954,
941.835,782.67265,
938.925,816.33216,
936.014,830.79343,
933.103,824.58119,
930.193,816.08691,
927.282,777.47077,
924.372,788.46366,
921.461,823.01301,
918.551,780.26726,
915.640,758.72264,
912.729,785.29021,
909.819,790.87416,
906.908,783.29233,
903.998,774.92136,
901.087,777.96705,
898.176,788.51012,
895.266,797.1924,
892.355,795.04792,
889.445,779.94112,
886.534,811.60013,
883.624,838.73279,
880.713,808.55688,
877.802,737.91497,
874.892,650.48185,
871.981,523.3117,
869.071,287.72527,
866.160,333.11996,
863.250,542.76511,
860.339,714.69979,
857.428,751.18819,
854.518,774.62531,
851.607,662.29595,
848.697,587.84963,
845.786,525.50944,
842.875,534.9181,
839.965,648.66715,
837.054,794.05177,
834.144,809.79806,
831.233,844.20607,
828.323,852.45642,
825.412,841.33341,
822.501,835.3644,
819.591,843.62839,
816.680,850.28527,
813.770,853.75451,
810.859,844.04522,
807.949,828.94572,
805.038,821.9834,
802.127,806.34398,
799.217,806.36578,
796.306,811.98315,
793.396,807.69934,
790.485,798.87603,
787.574,814.3732,
784.664,827.495,
781.753,840.61074,
778.843,859.5973,
775.932,878.19591,
773.022,882.92989,
770.111,851.04434,
767.200,857.24944,
764.290,843.11654,
761.379,833.23821,
758.469,833.94527,
755.558,823.89614,
752.648,858.10949,
749.737,859.65269,
746.826,856.875,
743.916,833.14088,
741.005,770.49943,
738.095,758.32127,
735.184,686.79915,
732.274,644.67577,
729.363,655.41113,
726.452,709.76859,
723.542,753.47583,
720.631,787.98564,
717.721,813.91468,
714.810,838.8181,
711.899,858.55816,
708.989,852.90969,
706.078,860.88803,
703.168,861.66056,
700.257,856.33671,
697.347,847.26658,
694.436,837.50403,
691.525,823.83934,
688.615,830.30867,
685.704,843.21379,
682.794,864.10892,
679.883,899.68557,
676.973,873.24034,
674.062,857.0276,
671.151,857.01162,
668.241,858.4423,
665.330,837.15649,
662.420,821.98059,
659.509,819.50993,
656.598,838.91599,
653.688,864.79517,
650.777,866.8219,
647.867,835.76512,
644.956,808.44305,
642.046,731.19769,
639.135,658.73982,
636.224,730.13362,
633.314,781.73962,
630.403,823.84432,
627.493,861.15835,
624.582,879.69329,
621.672,838.50959,
618.761,828.51567,
615.850,870.50501,
612.940,916.09644,
610.029,932.03368,
607.119,920.97886,
604.208,907.80477,
601.297,920.82164,
598.387,916.80432,
595.476,862.46923,
592.566,868.76578,
589.655,913.93153,
586.745,930.06357,
583.834,933.48921,
580.923,981.68071,
578.013,949.50661,
575.102,925.38812,
572.192,922.09254,
569.281,931.39161,
566.371,900.86928,
563.460,919.03905,
560.549,930.79867,
557.639,950.52593,
554.728,994.54467,
551.818,973.47614,
548.907,945.7173,
545.996,933.59653,
543.086,937.20395,
540.175,934.08937,
537.265,909.97378,
534.354,916.42741,
531.444,935.49755,
528.533,947.19265,
525.622,979.78244,
522.712,936.51447,
519.801,896.61928,
516.891,885.97053,
513.980,891.39061,
511.070,922.86628,
508.159,940.65066,
505.248,950.38152,
502.338,963.17465,
499.427,939.24786,
496.517,929.48106,
493.606,943.02661,
490.695,972.73531,
487.785,957.3395,
484.874,966.50703,
481.964,962.49304,
479.053,944.19784,
476.143,928.83859,
473.232,935.78844,
470.321,931.57635,
467.411,927.92716,
464.500,939.70046,
461.590,932.8088,
458.679,935.82765,
455.769,940.50513,
452.858,942.59081,
449.947,949.4662,
447.037,936.31275,
444.126,936.85682,
441.216,959.03425,
438.305,988.74958,
435.395,968.61645,
432.484,946.2897,
429.573,915.8348,
426.663,842.8613,
423.752,556.51255,
420.842,235.75991,
417.931,-27.843129,
415.020,-121.87954,
412.110,298.47901,
409.199,610.35404,
406.289,768.95541,
403.378,753.48311,
400.468,637.81596,
397.557,648.69091,
394.646,738.58637,
391.736,860.69593,
388.825,886.33979,
385.915,891.74623,
383.004,887.01957,
380.094,881.9864,
377.183,923.3726,
374.272,957.67178,
371.362,982.76155,
368.451,996.19113,
365.541,984.93309,
362.630,976.95884,
359.719,970.50726,
356.809,965.05624,
353.898,968.05143,
350.988,994.91436,
348.077,1005.5491,
345.167,977.11817,
342.256,962.1768,
339.345,984.44663,
336.435,1004.2663,
333.524,993.91199,
330.614,963.36061,
327.703,973.8978,
324.793,997.77303,
321.882,1011.8209,
318.971,989.51763,
316.061,976.50354,
313.150,981.72974,
310.240,1016.6092,
307.329,1040.7434,
304.418,1058.0822,
301.508,1064.7242,
298.597,1052.8776,
295.687,1024.7854,
292.776,995.20824,
289.866,986.04284,
286.955,1053.2669,
284.044,1088.175,
281.134,1148.0501,
278.223,1222.6116,
275.313,1207.1376,
272.402,1218.3976,
269.492,1209.547,
266.581,1158.3108,
263.670,1024.508,
260.760,1076.2473,
257.849,1178.122,
254.939,1233.1632,
252.028,1242.5611,
249.117,1219.8358,
246.207,1208.3843,
243.296,1283.7841,
240.386,1342.1554,
237.475,1362.3438,
234.565,1349.2292,
231.654,1332.4304,
228.743,1334.0533,
225.833,1321.1057,
222.922,1280.1911,
220.012,1222.6352,
217.101,1199.9493,
214.191,1193.908,
211.280,1187.3608,
208.369,1197.64,
205.459,1177.323,
202.548,1144.0143,
199.638,1173.7659,
196.727,1183.3323,
193.816,1200.0231,
190.906,1229.4467,
187.995,1131.7034,
185.085,1126.7192,
182.174,1150.2561,
179.264,1118.4544,
176.353,1102.0594,
173.442,1108.6522,
170.532,1122.6261,
167.621,1034.6671,
164.711,996.68467,
161.800,937.17973,
158.890,800.43148,
155.979,772.64893,
153.068,712.82776,
150.158,630.32468,
147.247,580.06802,
144.337,505.30412,
141.426,406.22524,
138.516,279.33549,
135.605,195.04574,
132.694,134.17464,
129.784,90.070295,
126.873,50.023024,
123.963,30.493597,
121.052,18.475529,
118.141,9.9087054,
115.231,13.427852,
112.320,12.333184,
109.410,9.8294868,
106.499,14.814573,
103.589,11.953219,
100.678,7.2452698,
97.767,2.9796443,
94.857,2.182011,
91.946,4.6967761,
89.036,8.5363063,
86.125,6.4086905,
83.215,9.5914425,
80.304,9.044077,
77.393,-2.2866419,
74.483,4.0814845,
71.572,4.613831,
68.662,-1.125,
65.751,-1.125,
62.840,-0.16159603,
59.930,1.0622862,
57.019,1.7673682,
54.109,-2.3051259,
51.198,-5.4266093,
48.288,-6.0457258,
45.377,3.8015671,
42.466,4.1650259,
39.556,-1.3552372,
36.645,-2.7596176,
33.735,-3.6442485,
30.824,-4.7876609,
27.914,-6.8911867,
25.003,-5.2570876,
22.092,-4.125,
19.182,-3.8504056,
16.271,4.5434759,
13.361,50.863714,
10.450,106.50969,
7.539,86.956857,
4.629,-80.251042,
1.718,-330.26703,
-1.192,-650.25637,
-4.103,-606.05127,
-7.013,-383.60867,
-9.924,-0.125,
