,PLDF33~1,
Wavenumbers [1/cm],Intensity,
3014.167,-5,
3011.256,2.2000429,
3008.346,63.831328,
3005.435,49.233219,
3002.525,70.510067,
2999.614,70.712991,
2996.704,77.088658,
2993.793,74,
2990.882,74,
2987.972,83.919281,
2985.061,75.980306,
2982.151,91.284038,
2979.240,82.417305,
2976.329,85.010921,
2973.419,102.29217,
2970.508,98.75005,
2967.598,99.566265,
2964.687,85.805026,
2961.777,91.128095,
2958.866,103.99852,
2955.955,112.07079,
2953.045,115.01791,
2950.134,116.72302,
2947.224,111.76866,
2944.313,138.44943,
2941.403,132.91652,
2938.492,135.12736,
2935.581,138.5644,
2932.671,130.24468,
2929.760,145.98076,
2926.850,154.16391,
2923.939,151.24301,
2921.028,158.72371,
2918.118,160.93828,
2915.207,145.23416,
2912.297,154.95346,
2909.386,156.22627,
2906.476,153.29496,
2903.565,169.92075,
2900.654,156.78765,
2897.744,163.78627,
2894.833,151.536,
2891.923,153.1346,
2889.012,158.53757,
2886.102,186.49728,
2883.191,175.01982,
2880.280,237.07179,
2877.370,246.81987,
2874.459,238.77347,
2871.549,187.88119,
2868.638,159.22681,
2865.727,148.83849,
2862.817,143.55748,
2859.906,156.5698,
2856.996,164.48415,
2854.085,190.00634,
2851.175,156.33136,
2848.264,155.6325,
2845.353,156,
2842.443,151.20836,
2839.532,153.31338,
2836.622,150.60677,
2833.711,156.62952,
2830.801,159.89926,
2827.890,151.27098,
2824.979,154.56798,
2822.069,162.9204,
2819.158,157.52022,
2816.248,151.78184,
2813.337,175.48416,
2810.427,153.25757,
2807.516,164.05031,
2804.605,156.20433,
2801.695,160.39474,
2798.784,144.47846,
2795.874,144.4248,
2792.963,142.21415,
2790.052,166.99399,
2787.142,148.56604,
2784.231,168.61336,
2781.321,154.50865,
2778.410,171.19037,
2775.500,157.63897,
2772.589,153.6162,
2769.678,168.78497,
2766.768,155.76697,
2763.857,165.47399,
2760.947,171.01891,
2758.036,191.78992,
2755.126,166,
2752.215,178.23197,
2749.304,173.29858,
2746.394,175.36493,
2743.483,172.45,
2740.573,183.53324,
2737.662,167.34023,
2734.751,164.74283,
2731.841,189.32602,
2728.930,177.02114,
2726.020,176.77025,
2723.109,177.20608,
2720.199,192.98133,
2717.288,183.63139,
2714.377,180.6459,
2711.467,198,
2708.556,191.74484,
2705.646,191.91551,
2702.735,200.32474,
2699.825,189.06544,
2696.914,204.61957,
2694.003,193.95446,
2691.093,205.51746,
2688.182,189.65407,
2685.272,205.92888,
2682.361,180.02948,
2679.450,189.74069,
2676.540,183.18292,
2673.629,189.67714,
2670.719,186.28466,
2667.808,194.61092,
2664.898,209.51945,
2661.987,205.33322,
2659.076,201.87284,
2656.166,203.29006,
2653.255,196.14966,
2650.345,196.70417,
2647.434,203.82852,
2644.524,203.93046,
2641.613,220.02891,
2638.702,219.11047,
2635.792,213.90727,
2632.881,215.23794,
2629.971,208.91267,
2627.060,211.66687,
2624.149,212.29687,
2621.239,208.98814,
2618.328,198.55103,
2615.418,214.31819,
2612.507,224.72331,
2609.597,221.5509,
2606.686,212.31126,
2603.775,215.91666,
2600.865,211.11606,
2597.954,211.43123,
2595.044,225.61648,
2592.133,224.15911,
2589.223,235.61475,
2586.312,235.70852,
2583.401,242.20437,
2580.491,237.82212,
2577.580,223.9967,
2574.670,218.67915,
2571.759,223.21232,
2568.848,225.76791,
2565.938,245.14292,
2563.027,235.53637,
2560.117,227.28036,
2557.206,233.04059,
2554.296,236.34325,
2551.385,239.75202,
2548.474,244.11115,
2545.564,241.12662,
2542.653,264.15772,
2539.743,262.56777,
2536.832,236.61121,
2533.922,256.63731,
2531.011,238.94958,
2528.100,253.59931,
2525.190,258.95287,
2522.279,252.46898,
2519.369,258.37758,
2516.458,249.44405,
2513.548,264.37251,
2510.637,268.24593,
2507.726,265.44236,
2504.816,254.37542,
2501.905,264.30427,
2498.995,243.77635,
2496.084,260.90595,
2493.173,257.07847,
2490.263,265.74128,
2487.352,256.2504,
2484.442,259.72163,
2481.531,260.84568,
2478.621,263.9289,
2475.710,283,
2472.799,279.30049,
2469.889,267.51523,
2466.978,280.71121,
2464.068,261.10044,
2461.157,258.38987,
2458.247,277.16172,
2455.336,281.89238,
2452.425,283.43396,
2449.515,286.12266,
2446.604,283.47468,
2443.694,285.72124,
2440.783,280.66441,
2437.872,285.10939,
2434.962,281.17052,
2432.051,285.40784,
2429.141,290.07084,
2426.230,288.54366,
2423.320,288.52863,
2420.409,286,
2417.498,293.17978,
2414.588,296.36503,
2411.677,277.00403,
2408.767,298.68799,
2405.856,294.25708,
2402.946,296.04736,
2400.035,306.28405,
2397.124,300.57218,
2394.214,309.756,
2391.303,296.56911,
2388.393,297.71862,
2385.482,285.66093,
2382.571,294.96157,
2379.661,298.83741,
2376.750,282.31526,
2373.840,292.62809,
2370.929,305.88087,
2368.019,311.19273,
2365.108,310.81414,
2362.197,307.20821,
2359.287,323.56324,
2356.376,346.96654,
2353.466,331.84936,
2350.555,318.20997,
2347.645,322.32847,
2344.734,320.48386,
2341.823,309.16583,
2338.913,314.06568,
2336.002,322.7081,
2333.092,333.50567,
2330.181,323.41947,
2327.270,313.33003,
2324.360,328.61319,
2321.449,336.41496,
2318.539,333.55352,
2315.628,332.51279,
2312.718,338.06608,
2309.807,337.93169,
2306.896,335.74022,
2303.986,339.39617,
2301.075,349.61702,
2298.165,337.23053,
2295.254,325.19389,
2292.344,360.21163,
2289.433,347.26636,
2286.522,347.45522,
2283.612,350.88901,
2280.701,361.44391,
2277.791,358.55918,
2274.880,346.71602,
2271.969,348.1893,
2269.059,355.76566,
2266.148,348.16361,
2263.238,361.29342,
2260.327,364.96538,
2257.417,355.74444,
2254.506,373.0228,
2251.595,371.43275,
2248.685,374.62882,
2245.774,362.58267,
2242.864,369.90772,
2239.953,383.68275,
2237.043,390.28607,
2234.132,381.58189,
2231.221,389.60734,
2228.311,389.30156,
2225.400,399.66226,
2222.490,389.67105,
2219.579,394.26477,
2216.669,392.48331,
2213.758,385.56339,
2210.847,388.86649,
2207.937,410.18564,
2205.026,420.22186,
2202.116,424.23143,
2199.205,404.70023,
2196.294,420.23194,
2193.384,429.60549,
2190.473,418.42019,
2187.563,463.01933,
2184.652,465.34327,
2181.742,450.09018,
2178.831,432.04278,
2175.920,433.99454,
2173.010,449.15079,
2170.099,465.99852,
2167.189,468.12916,
2164.278,487.46734,
2161.368,498.8568,
2158.457,506.84725,
2155.546,509.68173,
2152.636,500.5479,
2149.725,511.81207,
2146.815,512.10011,
2143.904,524.60594,
2140.993,539,
2138.083,536.81156,
2135.172,543.90764,
2132.262,528.71303,
2129.351,545.47261,
2126.441,521.54358,
2123.530,534.01122,
2120.619,530.45891,
2117.709,501.47262,
2114.798,493.78455,
2111.888,479.3877,
2108.977,466.09933,
2106.067,462.51676,
2103.156,458.60082,
2100.245,455.98808,
2097.335,440.73298,
2094.424,463.45236,
2091.514,441.49187,
2088.603,443.66353,
2085.692,452.13388,
2082.782,462.25693,
2079.871,463.24971,
2076.961,430.19565,
2074.050,474.59394,
2071.140,444.42549,
2068.229,433.72135,
2065.318,451.71701,
2062.408,458.16642,
2059.497,448.80357,
2056.587,454.25575,
2053.676,448.65045,
2050.766,479.30568,
2047.855,433.82913,
2044.944,428,
2042.034,424.20804,
2039.123,425.26262,
2036.213,451.88445,
2033.302,468.21716,
2030.391,463.61064,
2027.481,462.18285,
2024.570,465.84283,
2021.660,437.77388,
2018.749,477.97426,
2015.839,448.90617,
2012.928,434.05705,
2010.017,453.92183,
2007.107,453.30092,
2004.196,445.02381,
2001.286,463.52294,
1998.375,452.03641,
1995.465,439.64018,
1992.554,433.74122,
1989.643,447.48154,
1986.733,438.35789,
1983.822,432.64254,
1980.912,458.11809,
1978.001,423.29684,
1975.090,418.97711,
1972.180,413.51864,
1969.269,399.13219,
1966.359,414.91911,
1963.448,398.16247,
1960.538,432.82152,
1957.627,401.09285,
1954.716,396.97127,
1951.806,400.45354,
1948.895,389.74494,
1945.985,394.7402,
1943.074,411.4651,
1940.164,386.64422,
1937.253,390.30426,
1934.342,391.4615,
1931.432,416.44164,
1928.521,414.62176,
1925.611,399.11691,
1922.700,419.36878,
1919.790,366.43419,
1916.879,362.5815,
1913.968,387.96926,
1911.058,428.66967,
1908.147,422.93722,
1905.237,405.08081,
1902.326,368.91109,
1899.415,387.39146,
1896.505,364.72873,
1893.594,343.27135,
1890.684,340.3203,
1887.773,364.45615,
1884.863,386.63781,
1881.952,374.44512,
1879.041,387.15577,
1876.131,376.71242,
1873.220,389.56201,
1870.310,389.21525,
1867.399,427.37625,
1864.489,399.35049,
1861.578,406.50561,
1858.667,394.494,
1855.757,413.78282,
1852.846,416.918,
1849.936,381.69668,
1847.025,396.1825,
1844.114,383.0824,
1841.204,427.00349,
1838.293,412.57068,
1835.383,376.55799,
1832.472,411.05913,
1829.562,420.77916,
1826.651,395.17046,
1823.740,398.3755,
1820.830,428.46479,
1817.919,434.37125,
1815.009,381.76973,
1812.098,415.18895,
1809.188,439.69763,
1806.277,400.90741,
1803.366,425.71718,
1800.456,410.1541,
1797.545,431.5673,
1794.635,446.22599,
1791.724,446.11644,
1788.813,469.99743,
1785.903,454.96516,
1782.992,441.65726,
1780.082,458.96213,
1777.171,419.32333,
1774.261,401.34539,
1771.350,431.0425,
1768.439,442.02366,
1765.529,477.27504,
1762.618,477.50622,
1759.708,435.94539,
1756.797,444.34849,
1753.887,462.28134,
1750.976,455.76898,
1748.065,466.21659,
1745.155,455.39366,
1742.244,460.56701,
1739.334,444.72001,
1736.423,480.63171,
1733.512,486.9024,
1730.602,499.95241,
1727.691,476.06124,
1724.781,492.17045,
1721.870,496.5857,
1718.960,520.66696,
1716.049,510.05948,
1713.138,521.53493,
1710.228,533.57327,
1707.317,505.80914,
1704.407,523.56153,
1701.496,533.29238,
1698.586,538.61992,
1695.675,512.80016,
1692.764,519.5205,
1689.854,493.21258,
1686.943,530.65097,
1684.033,547.60262,
1681.122,561.76211,
1678.211,537.23793,
1675.301,590.8335,
1672.390,532.08075,
1669.480,559.05615,
1666.569,566.95219,
1663.659,640.96734,
1660.748,638.20945,
1657.837,599.07162,
1654.927,647.91374,
1652.016,685.80561,
1649.106,678.63651,
1646.195,704.43157,
1643.285,722.43294,
1640.374,740.05924,
1637.463,697.35109,
1634.553,771.79801,
1631.642,825.44517,
1628.732,866.17184,
1625.821,895.02617,
1622.911,934.77459,
1620.000,965.60944,
1617.089,1095.3731,
1614.179,1172.8285,
1611.268,1220.2526,
1608.358,1315.4113,
1605.447,1360.5432,
1602.536,1363,
1599.626,1391.5179,
1596.715,1396.7228,
1593.805,1359.4381,
1590.894,1367.3294,
1587.984,1344.7494,
1585.073,1303.5641,
1582.162,1280.3023,
1579.252,1230.3568,
1576.341,1227.2096,
1573.431,1168.6956,
1570.520,1122.1893,
1567.610,1098.0978,
1564.699,1130.7015,
1561.788,1091.4794,
1558.878,1065.5862,
1555.967,1051.4474,
1553.057,986.94886,
1550.146,969.97814,
1547.235,980.59033,
1544.325,991.74511,
1541.414,991.89914,
1538.504,978.83437,
1535.593,971.53926,
1532.683,971.37818,
1529.772,989.38724,
1526.861,993.69987,
1523.951,976.57257,
1521.040,978.32488,
1518.130,966.46348,
1515.219,997.07977,
1512.309,994.34681,
1509.398,957.48867,
1506.487,941.18109,
1503.577,950.81719,
1500.666,994.27718,
1497.756,938.33965,
1494.845,1000.6787,
1491.934,944.9685,
1489.024,935.34357,
1486.113,946.12659,
1483.203,875.94659,
1480.292,883.12172,
1477.382,886,
1474.471,823.07492,
1471.560,833.02664,
1468.650,842.63345,
1465.739,826.62824,
1462.829,834.11407,
1459.918,866.54715,
1457.008,891.61548,
1454.097,896.22705,
1451.186,902.14894,
1448.276,882.5307,
1445.365,820.5703,
1442.455,794.4273,
1439.544,769.9737,
1436.633,793.30984,
1433.723,758.6201,
1430.812,770.73883,
1427.902,779.5941,
1424.991,762.53438,
1422.081,786.77188,
1419.170,769.12661,
1416.259,736.83773,
1413.349,712.62946,
1410.438,685.30683,
1407.528,714.6245,
1404.617,758.898,
1401.707,695.50893,
1398.796,633.96851,
1395.885,623.74392,
1392.975,605.62544,
1390.064,628.2374,
1387.154,623.84964,
1384.243,594.00186,
1381.332,640.67202,
1378.422,626.71526,
1375.511,563.01415,
1372.601,679.03943,
1369.690,678.71333,
1366.780,643.73452,
1363.869,706.92123,
1360.958,730.69892,
1358.048,733.15318,
1355.137,764.91262,
1352.227,780.01954,
1349.316,806.66055,
1346.406,871.23518,
1343.495,862.547,
1340.584,836.10615,
1337.674,902.71521,
1334.763,918.27027,
1331.853,951.65059,
1328.942,905.8584,
1326.032,965.24965,
1323.121,964.43975,
1320.210,1010.2759,
1317.300,1057.8386,
1314.389,1081.7363,
1311.479,1116.6503,
1308.568,1138.0691,
1305.657,1122.0239,
1302.747,1155.5686,
1299.836,1220.4398,
1296.926,1247.5637,
1294.015,1302.7232,
1291.105,1282.1059,
1288.194,1364.4655,
1285.283,1359.5079,
1282.373,1373.6796,
1279.462,1381.4119,
1276.552,1382.504,
1273.641,1407.8415,
1270.731,1436.1179,
1267.820,1446.4643,
1264.909,1487.8345,
1261.999,1440.803,
1259.088,1380.603,
1256.178,1431.8132,
1253.267,1397.2699,
1250.356,1350.8146,
1247.446,1363.7496,
1244.535,1343.8617,
1241.625,1289.6778,
1238.714,1269.0659,
1235.804,1268.5291,
1232.893,1275.9969,
1229.982,1287.5469,
1227.072,1215.1219,
1224.161,1233.5341,
1221.251,1243.9561,
1218.340,1220.7353,
1215.430,1198.742,
1212.519,1177.0589,
1209.608,1160.0631,
1206.698,1163.2766,
1203.787,1172.4523,
1200.877,1203.1144,
1197.966,1221.0976,
1195.055,1241.6247,
1192.145,1294.5887,
1189.234,1337.6005,
1186.324,1372.7293,
1183.413,1378.0761,
1180.503,1394.0275,
1177.592,1443.3836,
1174.681,1399.6781,
1171.771,1362.3612,
1168.860,1334.6755,
1165.950,1344.0943,
1163.039,1326.0479,
1160.129,1326.4377,
1157.218,1342.134,
1154.307,1373.1484,
1151.397,1413.4315,
1148.486,1426.4496,
1145.576,1428.576,
1142.665,1418.8089,
1139.754,1397.6593,
1136.844,1371.9909,
1133.933,1358.8945,
1131.023,1341.8371,
1128.112,1338.8553,
1125.202,1349.4397,
1122.291,1312.3814,
1119.380,1329.2772,
1116.470,1357.5181,
1113.559,1363.3197,
1110.649,1322.0899,
1107.738,1310.1805,
1104.828,1313.1746,
1101.917,1300.2661,
1099.006,1297.7627,
1096.096,1337.2799,
1093.185,1309.1838,
1090.275,1320.7576,
1087.364,1317.8249,
1084.453,1321.1871,
1081.543,1315.9209,
1078.632,1314.909,
1075.722,1342.8806,
1072.811,1347.7733,
1069.901,1302.3637,
1066.990,1355.5832,
1064.079,1371.0415,
1061.169,1343.8326,
1058.258,1346.4091,
1055.348,1380.1181,
1052.437,1377.0161,
1049.527,1372.5035,
1046.616,1385.5359,
1043.705,1388.5415,
1040.795,1380.6994,
1037.884,1381.5631,
1034.974,1375.0825,
1032.063,1355.4769,
1029.153,1359.1811,
1026.242,1377.3452,
1023.331,1381.3331,
1020.421,1398.7304,
1017.510,1429.5316,
1014.600,1450.1147,
1011.689,1464.6879,
1008.778,1494.8797,
1005.868,1500.1699,
1002.957,1519.0977,
1000.047,1533.648,
997.136,1557.3817,
994.226,1564.3078,
991.315,1551.7376,
988.404,1532.4343,
985.494,1482.9041,
982.583,1478.6213,
979.673,1452.3924,
976.762,1447.6968,
973.852,1439.5077,
970.941,1428.5566,
968.030,1439.555,
965.120,1454.1754,
962.209,1495.95,
959.299,1478.9195,
956.388,1476.2795,
953.477,1493.5088,
950.567,1510.7843,
947.656,1514.6712,
944.746,1527.4145,
941.835,1521.5215,
938.925,1508.8131,
936.014,1487.8252,
933.103,1469.8222,
930.193,1467.9951,
927.282,1481.3419,
924.372,1432.2967,
921.461,1428.9456,
918.551,1422.4479,
915.640,1405.9515,
912.729,1407.1014,
909.819,1452.7793,
906.908,1466.2581,
903.998,1448.7066,
901.087,1460.5492,
898.176,1474.2948,
895.266,1474.239,
892.355,1467.7694,
889.445,1487.9118,
886.534,1509.7067,
883.624,1489.778,
880.713,1483.6139,
877.802,1488.3052,
874.892,1487.1838,
871.981,1485.0211,
869.071,1358.8737,
866.160,1305.2619,
863.250,1356.0011,
860.339,1429.319,
857.428,1462.2697,
854.518,1491.7001,
851.607,1446.7684,
848.697,1436.9365,
845.786,1414.7224,
842.875,1414.2252,
839.965,1454.4904,
837.054,1475.6512,
834.144,1533.6639,
831.233,1542.3335,
828.323,1535.5597,
825.412,1527.4243,
822.501,1522.4468,
819.591,1524.926,
816.680,1501.7628,
813.770,1494.1205,
810.859,1471.7917,
807.949,1451.7878,
805.038,1467.1991,
802.127,1468.8454,
799.217,1471.9816,
796.306,1444.0538,
793.396,1444.1911,
790.485,1474.5778,
787.574,1458.4048,
784.664,1469.0662,
781.753,1460.9352,
778.843,1464.8215,
775.932,1476.1605,
773.022,1478.2105,
770.111,1460.2237,
767.200,1478.7941,
764.290,1485.5779,
761.379,1481.6675,
758.469,1480.2317,
755.558,1499.8298,
752.648,1494.1276,
749.737,1490.3888,
746.826,1482.0067,
743.916,1481.2598,
741.005,1501.6507,
738.095,1516.2645,
735.184,1511.5645,
732.274,1482.1792,
729.363,1432.1103,
726.452,1388.0165,
723.542,1426.8674,
720.631,1453.4652,
717.721,1480.4767,
714.810,1496.142,
711.899,1488.2178,
708.989,1446.2577,
706.078,1492.4756,
703.168,1506.4289,
700.257,1496.448,
697.347,1483.9126,
694.436,1497.3672,
691.525,1474.0568,
688.615,1457.6796,
685.704,1462.224,
682.794,1479.8085,
679.883,1491.0905,
676.973,1537.57,
674.062,1530.4099,
671.151,1518.37,
668.241,1512.8558,
665.330,1505.5462,
662.420,1495.9614,
659.509,1459.7137,
656.598,1463.8012,
653.688,1504.6618,
650.777,1535.8389,
647.867,1501.5968,
644.956,1497.7149,
642.046,1497.927,
639.135,1494.1616,
636.224,1491.0915,
633.314,1509.3521,
630.403,1528.1891,
627.493,1520.7166,
624.582,1487.3497,
621.672,1462.0059,
618.761,1480.7584,
615.850,1531.079,
612.940,1573.1476,
610.029,1586.5783,
607.119,1596.0538,
604.208,1592.0299,
601.297,1600.4689,
598.387,1597.8149,
595.476,1564.1829,
592.566,1555.5252,
589.655,1588.9861,
586.745,1616.2454,
583.834,1626.7804,
580.923,1625.9763,
578.013,1622.0526,
575.102,1618.1321,
572.192,1611.7126,
569.281,1602.1722,
566.371,1591.9981,
563.460,1588.1781,
560.549,1606.9784,
557.639,1636.594,
554.728,1659.3595,
551.818,1649.2154,
548.907,1647.6094,
545.996,1642.9457,
543.086,1631.9803,
540.175,1617.9646,
537.265,1624.9671,
534.354,1625.9932,
531.444,1615.6403,
528.533,1597.1454,
525.622,1641.3744,
522.712,1609.7408,
519.801,1581.0906,
516.891,1579.7216,
513.980,1588.2388,
511.070,1596.7478,
508.159,1594.2692,
505.248,1591.5051,
502.338,1602.7229,
499.427,1627.4216,
496.517,1636.8283,
493.606,1638.327,
490.695,1637.214,
487.785,1638.7536,
484.874,1611.8586,
481.964,1587.8639,
479.053,1587.8701,
476.143,1641.6274,
473.232,1651.4746,
470.321,1633.0772,
467.411,1608.2141,
464.500,1599.7285,
461.590,1589.0081,
458.679,1611.3136,
455.769,1619.0824,
452.858,1593.9428,
449.947,1622.2083,
447.037,1620.1121,
444.126,1616.1091,
441.216,1622.6301,
438.305,1649.2977,
435.395,1648.4105,
432.484,1642.2492,
429.573,1639.485,
426.663,1650.127,
423.752,1609.1549,
420.842,1598.7637,
417.931,1548.9616,
415.020,1341.1714,
412.110,1497.8813,
409.199,1606.4107,
406.289,1662.6575,
403.378,1679.918,
400.468,1655.7262,
397.557,1661.882,
394.646,1680.1176,
391.736,1694.2173,
388.825,1701.0054,
385.915,1703,
383.004,1689.5795,
380.094,1656.4223,
377.183,1664.6995,
374.272,1697.9385,
371.362,1717.8191,
368.451,1704.5501,
365.541,1730.0683,
362.630,1734.2688,
359.719,1725.4887,
356.809,1708.4142,
353.898,1682.2062,
350.988,1704.8368,
348.077,1712.5755,
345.167,1671.1352,
342.256,1693.5473,
339.345,1731.3545,
336.435,1750.6722,
333.524,1728.8826,
330.614,1725.1568,
327.703,1766.6126,
324.793,1805.9688,
321.882,1803.0487,
318.971,1823.1216,
316.061,1834.3948,
313.150,1844.5428,
310.240,1862.3536,
307.329,1891.5855,
304.418,1929.9012,
301.508,1966.1354,
298.597,1981.6841,
295.687,2021.6027,
292.776,2071.6668,
289.866,2130.1678,
286.955,2197.3919,
284.044,2300.6099,
281.134,2386.8448,
278.223,2440.2455,
275.313,2435.0875,
272.402,2508.3556,
269.492,2569.9213,
266.581,2584.5827,
263.670,2550.7644,
260.760,2600.0293,
257.849,2669.9109,
254.939,2715.4116,
252.028,2721.0669,
249.117,2702.4428,
246.207,2672.3177,
243.296,2650.3566,
240.386,2667.5898,
237.475,2653.7962,
234.565,2607.2927,
231.654,2558.357,
228.743,2505.9981,
225.833,2435.3635,
222.922,2345.4417,
220.012,2354.9129,
217.101,2325.6128,
214.191,2285.0061,
211.280,2261.7273,
208.369,2214.9215,
205.459,2179.0262,
202.548,2161.5098,
199.638,2181.8279,
196.727,2132.9881,
193.816,2089.1836,
190.906,2077.5429,
187.995,2064.5105,
185.085,2047.7058,
182.174,2028.5153,
179.264,2008.2778,
176.353,2001.5145,
173.442,2005.526,
170.532,2011.6235,
167.621,1965.4811,
164.711,1930.4006,
161.800,1856.6691,
158.890,1700.4882,
155.979,1621.1053,
153.068,1504.4534,
150.158,1351.8068,
147.247,1180.2162,
144.337,986.97627,
141.426,780.71821,
138.516,563.50016,
135.605,402.4209,
132.694,281.48021,
129.784,192.6205,
126.873,123.96804,
123.963,88.375335,
121.052,60.95172,
118.141,33.109542,
115.231,31.578859,
112.320,29.305456,
109.410,26.181868,
106.499,21.908937,
103.589,21,
100.678,19.098648,
97.767,14.122085,
94.857,9.1490767,
91.946,13.449774,
89.036,21.080736,
86.125,9.0242459,
83.215,8.6546018,
80.304,9.0845385,
77.393,3.419179,
74.483,5.6205398,
71.572,6.2752958,
68.662,5.3463375,
65.751,8.8785929,
62.840,9.036596,
59.930,7.8127138,
57.019,7.1076318,
54.109,4.6113566,
51.198,4.2064371,
48.288,6.9886751,
45.377,5.581919,
42.466,2.526684,
39.556,-1.2302372,
36.645,-2.6346176,
33.735,3.2309816,
30.824,5.4658084,
27.914,-5.7529955,
25.003,-4.5094501,
22.092,-2.6770954,
19.182,-1.9313514,
16.271,0.16711899,
13.361,-3.2145798,
10.450,-44.696358,
7.539,-252.09602,
4.629,-650.38876,
1.718,-1050.8294,
-1.192,-1304.59,
-4.103,-971.18297,
-7.013,-511.84758,
-9.924,-1,
