,PL3ECB~1,
Wavenumbers [1/cm],Intensity,
3014.167,1.75,
3011.256,-0.049957053,
3008.346,77.763919,
3005.435,54.177567,
3002.525,78.920022,
2999.614,83.839627,
2996.704,83.528354,
2993.793,80.731568,
2990.882,94.75,
2987.972,106.64406,
2985.061,88.410102,
2982.151,99.676057,
2979.240,96.865008,
2976.329,106.50137,
2973.419,115.5654,
2970.508,114.13334,
2967.598,98.797791,
2964.687,107.86889,
2961.777,105.87809,
2958.866,126.07987,
2955.955,120.88497,
2953.045,110.33615,
2950.134,130.75,
2947.224,129.54713,
2944.313,149.10969,
2941.403,145.83348,
2938.492,146.31368,
2935.581,149.79293,
2932.671,169.26931,
2929.760,163.61154,
2926.850,154.16805,
2923.939,155.23132,
2921.028,161.53834,
2918.118,160.9301,
2915.207,152.33216,
2912.297,169.64845,
2909.386,168.16605,
2906.476,153.78935,
2903.565,168.09001,
2900.654,154.09074,
2897.744,166.5237,
2894.833,145.03873,
2891.923,121.91019,
2889.012,127.16619,
2886.102,116.06488,
2883.191,106.75094,
2880.280,56.400692,
2877.370,-112.19731,
2874.459,-207.84736,
2871.549,-101.24894,
2868.638,98.399373,
2865.727,84.246184,
2862.817,117.65237,
2859.906,139.0406,
2856.996,139.6866,
2854.085,175.75634,
2851.175,167.50908,
2848.264,157.88733,
2845.353,158.20291,
2842.443,175.15627,
2839.532,152.67548,
2836.622,174.23307,
2833.711,168.37952,
2830.801,170.75,
2827.890,184.76922,
2824.979,187.02193,
2822.069,177.61353,
2819.158,173.35109,
2816.248,181.26737,
2813.337,193.80123,
2810.427,180.30922,
2807.516,179.80766,
2804.605,190.93269,
2801.695,182.09209,
2798.784,185.15862,
2795.874,175.16951,
2792.963,176.03553,
2790.052,183.74743,
2787.142,182.07904,
2784.231,186.78261,
2781.321,186.31574,
2778.410,191.84518,
2775.500,183.15483,
2772.589,182.21177,
2769.678,194.56907,
2766.768,191.76357,
2763.857,200.53805,
2760.947,186.23424,
2758.036,198.15136,
2755.126,197.51068,
2752.215,203.94095,
2749.304,198.02699,
2746.394,202.17338,
2743.483,218.59994,
2740.573,204.13484,
2737.662,197.19674,
2734.751,197.07527,
2731.841,204.66942,
2728.930,204.07629,
2726.020,201.19387,
2723.109,211.389,
2720.199,232.71265,
2717.288,212.92518,
2714.377,226.94148,
2711.467,216.56978,
2708.556,210.18621,
2705.646,221.42609,
2702.735,230.41495,
2699.825,225.32635,
2696.914,233.8932,
2694.003,230.337,
2691.093,224.3216,
2688.182,226.45889,
2685.272,232.95342,
2682.361,222.17358,
2679.450,231.07506,
2676.540,224.89227,
2673.629,230.75449,
2670.719,219.11506,
2667.808,238.48547,
2664.898,238.71109,
2661.987,227.24983,
2659.076,230.35129,
2656.166,242.49034,
2653.255,229.00681,
2650.345,235.75,
2647.434,227.06495,
2644.524,243.64205,
2641.613,244.46465,
2638.702,241.89203,
2635.792,239.93545,
2632.881,261.52371,
2629.971,245.68276,
2627.060,256.91656,
2624.149,260.04687,
2621.239,249.9748,
2618.328,254.45329,
2615.418,250.73637,
2612.507,262.33496,
2609.597,248.49451,
2606.686,258.08736,
2603.775,260.06746,
2600.865,254.04352,
2597.954,273.75,
2595.044,270.11581,
2592.133,251.74352,
2589.223,263.47317,
2586.312,261.50875,
2583.401,274.81203,
2580.491,282.54323,
2577.580,279.72524,
2574.670,265.30347,
2571.759,275.55821,
2568.848,276.98754,
2565.938,291.46445,
2563.027,270.11591,
2560.117,271.38552,
2557.206,279.88653,
2554.296,261.21224,
2551.385,280.12197,
2548.474,306.30614,
2545.564,293.57304,
2542.653,317.29698,
2539.743,303.03342,
2536.832,277.48458,
2533.922,311.41885,
2531.011,292.12488,
2528.100,300.01482,
2525.190,312.44631,
2522.279,305.56241,
2519.369,299.03318,
2516.458,294.41785,
2513.548,307.88619,
2510.637,315.85669,
2507.726,324.63102,
2504.816,305.62486,
2501.905,289.32988,
2498.995,305.97365,
2496.084,300.49568,
2493.173,306.90761,
2490.263,318.89579,
2487.352,343.53973,
2484.442,312.04766,
2481.531,319.0743,
2478.621,319.93004,
2475.710,332.80367,
2472.799,328.8981,
2469.889,304.47578,
2466.978,310.86343,
2464.068,334.64956,
2461.157,332.51998,
2458.247,337.88238,
2455.336,340.09051,
2452.425,337.07547,
2449.515,353.40072,
2446.604,340.57721,
2443.694,329.51726,
2440.783,348.42117,
2437.872,349.34889,
2434.962,336.64862,
2432.051,337.57729,
2429.141,346.88527,
2426.230,333.72787,
2423.320,358.26396,
2420.409,365.69883,
2417.498,360.53652,
2414.588,340.86037,
2411.677,352.92929,
2408.767,362.5561,
2405.856,386.59995,
2402.946,375.16019,
2400.035,366.54812,
2397.124,367.42379,
2394.214,373.7232,
2391.303,368.7832,
2388.393,361.25697,
2385.482,320.6006,
2382.571,334.19236,
2379.661,349.30827,
2376.750,354.69324,
2373.840,370.88749,
2370.929,378.67419,
2368.019,384.50987,
2365.108,383.74738,
2362.197,400.79106,
2359.287,400.3383,
2356.376,405.74296,
2353.466,394.34074,
2350.555,395.95997,
2347.645,390.01358,
2344.734,383.59792,
2341.823,387.66708,
2338.913,420.64548,
2336.002,400.35754,
2333.092,414.42829,
2330.181,405.73211,
2327.270,410.41997,
2324.360,415.55659,
2321.449,423.01191,
2318.539,442.04973,
2315.628,442.4986,
2312.718,449.99891,
2309.807,435.36482,
2306.896,441.23043,
2303.986,434.18507,
2301.075,426.72875,
2298.165,419.35572,
2295.254,433.42685,
2292.344,443.32253,
2289.433,454.64954,
2286.522,444.15166,
2283.612,442.8788,
2280.701,456.52126,
2277.791,434.66985,
2274.880,434.03398,
2271.969,442.23148,
2269.059,463.39035,
2266.148,461.15902,
2263.238,450.35232,
2260.327,464.4741,
2257.417,463.35944,
2254.506,471.75,
2251.595,470.60819,
2248.685,476.37882,
2245.774,471.54133,
2242.864,462.9819,
2239.953,475.28803,
2237.043,462.59464,
2234.132,472.30065,
2231.221,492.64674,
2228.311,493.79125,
2225.400,497.97516,
2222.490,509.27776,
2219.579,527.82714,
2216.669,525.78816,
2213.758,526.22975,
2210.847,517.85329,
2207.937,522.42426,
2205.026,532.97216,
2202.116,526.88377,
2199.205,515.88671,
2196.294,536.80799,
2193.384,536.48699,
2190.473,524.45422,
2187.563,572.6485,
2184.652,553.10551,
2181.742,556.90861,
2178.831,564.01855,
2175.920,571.92668,
2173.010,588.12698,
2170.099,570.8864,
2167.189,605.76435,
2164.278,610.39121,
2161.368,628.6068,
2158.457,628.54834,
2155.546,641.73369,
2152.636,627.6969,
2149.725,642.87749,
2146.815,670.01588,
2143.904,656.44889,
2140.993,660.96684,
2138.083,687.66792,
2135.172,705.14504,
2132.262,687.70775,
2129.351,693.91566,
2126.441,729.13843,
2123.530,708.4694,
2120.619,678.38325,
2117.709,650.81481,
2114.798,652.59983,
2111.888,628.23752,
2108.977,616.94205,
2106.067,606.95811,
2103.156,603.11049,
2100.245,588.75188,
2097.335,595.0013,
2094.424,613.00561,
2091.514,588.67199,
2088.603,588.19235,
2085.692,597.3857,
2082.782,600.69776,
2079.871,593.71383,
2076.961,604.84591,
2074.050,574.08939,
2071.140,581.55453,
2068.229,588.47135,
2065.318,594.9845,
2062.408,589.81052,
2059.497,606.7917,
2056.587,598.05269,
2053.676,592.83308,
2050.766,598.3651,
2047.855,589.63608,
2044.944,584.81891,
2042.034,581.35697,
2039.123,597.91162,
2036.213,608.88553,
2033.302,609.81511,
2030.391,606.7333,
2027.481,607.70116,
2024.570,629.1352,
2021.660,596.99691,
2018.749,626.30636,
2015.839,590.01903,
2012.928,588.99161,
2010.017,589.81407,
2007.107,599.4453,
2004.196,597.05957,
2001.286,615.18815,
1998.375,602.04921,
1995.465,615.20178,
1992.554,617.24415,
1989.643,589.71778,
1986.733,592.73333,
1983.822,580.5336,
1980.912,605.2739,
1978.001,579.46986,
1975.090,589.59274,
1972.180,572.75,
1969.269,582.3736,
1966.359,557.96581,
1963.448,596.26918,
1960.538,597.27377,
1957.627,570.45896,
1954.716,565.80745,
1951.806,568.85579,
1948.895,549.0719,
1945.985,540.34968,
1943.074,567.65422,
1940.164,549.93288,
1937.253,552.26766,
1934.342,548.35695,
1931.432,569.98659,
1928.521,602.72582,
1925.611,598.00993,
1922.700,577.29558,
1919.790,556.52476,
1916.879,530.49374,
1913.968,547.72664,
1911.058,600.91815,
1908.147,549.27411,
1905.237,563.56616,
1902.326,546.5752,
1899.415,512.59632,
1896.505,494.44885,
1893.594,513.56102,
1890.684,517.42327,
1887.773,551.64544,
1884.863,569.71811,
1881.952,561.05251,
1879.041,554.69808,
1876.131,560.07941,
1873.220,555.64821,
1870.310,576.09974,
1867.399,562.0059,
1864.489,563.67211,
1861.578,562.217,
1858.667,568.07035,
1855.757,575.94928,
1852.846,574.73975,
1849.936,566.63389,
1847.025,559.28042,
1844.114,571.24653,
1841.204,601.16259,
1838.293,600.76164,
1835.383,583.36651,
1832.472,593.13435,
1829.562,630.02448,
1826.651,635.54467,
1823.740,642.66956,
1820.830,596.59208,
1817.919,598.03753,
1815.009,606.8874,
1812.098,644.55313,
1809.188,665.63368,
1806.277,614.92299,
1803.366,611.79991,
1800.456,614.80496,
1797.545,618.05485,
1794.635,642.81403,
1791.724,652.4588,
1788.813,645.76929,
1785.903,681.12808,
1782.992,596.9944,
1780.082,545.17578,
1777.171,410.06261,
1774.261,380.56596,
1771.350,503.72077,
1768.439,598.79732,
1765.529,667.02692,
1762.618,679.73935,
1759.708,659.64125,
1756.797,667.65909,
1753.887,670.2879,
1750.976,691.464,
1748.065,699.07566,
1745.155,678.33719,
1742.244,670.08786,
1739.334,668.38059,
1736.423,698.13127,
1733.512,715.84351,
1730.602,735.70241,
1727.691,715.64954,
1724.781,743.14595,
1721.870,746.31187,
1718.960,740.63884,
1716.049,724.64846,
1713.138,766.20978,
1710.228,718.92129,
1707.317,716.05743,
1704.407,730.22596,
1701.496,767.30036,
1698.586,774.44594,
1695.675,786.91421,
1692.764,734.73358,
1689.854,765.23427,
1686.943,756.12098,
1684.033,797.68204,
1681.122,753.53165,
1678.211,769.5882,
1675.301,826.57425,
1672.390,821.69916,
1669.480,805.12703,
1666.569,852.47367,
1663.659,908.27636,
1660.748,879.46077,
1657.837,865.27487,
1654.927,889.4763,
1652.016,919.96869,
1649.106,928.60311,
1646.195,924.26051,
1643.285,986.38802,
1640.374,1012.872,
1637.463,972.52463,
1634.553,1015.947,
1631.642,1095.978,
1628.732,1117.1115,
1625.821,1177.7847,
1622.911,1230.4513,
1620.000,1289.9941,
1617.089,1365.2376,
1614.179,1453.2401,
1611.268,1516.4078,
1608.358,1591.1914,
1605.447,1619.2645,
1602.536,1658.9574,
1599.626,1737.1845,
1596.715,1718.3372,
1593.805,1661.1958,
1590.894,1652.9887,
1587.984,1633.696,
1585.073,1574.5961,
1582.162,1588.1268,
1579.252,1529.7408,
1576.341,1450.0628,
1573.431,1471.3424,
1570.520,1466.4625,
1567.610,1469.9462,
1564.699,1447.374,
1561.788,1423.6656,
1558.878,1408.8741,
1555.967,1376.3414,
1553.057,1357.9225,
1550.146,1348.3755,
1547.235,1313.6434,
1544.325,1305.7572,
1541.414,1311.4295,
1538.504,1282.5737,
1535.593,1255.8285,
1532.683,1259.1815,
1529.772,1262.4376,
1526.861,1245.8871,
1523.951,1246.8951,
1521.040,1257.9363,
1518.130,1239.9525,
1515.219,1281.3496,
1512.309,1287.822,
1509.398,1263.1055,
1506.487,1258.0336,
1503.577,1248.6891,
1500.666,1263.8473,
1497.756,1251.6487,
1494.845,1284.7089,
1491.934,1235.5516,
1489.024,1174.9145,
1486.113,1228.3829,
1483.203,1232.75,
1480.292,1166.5661,
1477.382,1186.2717,
1474.471,1175.3329,
1471.560,1142.1747,
1468.650,1138.5827,
1465.739,1150.0764,
1462.829,1170.2673,
1459.918,1197.8772,
1457.008,1216.3193,
1454.097,1201.3394,
1451.186,1173.3438,
1448.276,1170.1776,
1445.365,1159.4254,
1442.455,1109.2706,
1439.544,1084.5829,
1436.633,1102.8275,
1433.723,1090.3852,
1430.812,1067.4888,
1427.902,1076.2314,
1424.991,1054.4328,
1422.081,1018.8859,
1419.170,1025.2547,
1416.259,1029.1802,
1413.349,1041.8339,
1410.438,1017.7588,
1407.528,1006.3937,
1404.617,1037.2807,
1401.707,988.26792,
1398.796,919.61365,
1395.885,930.93913,
1392.975,931.9573,
1390.064,903.52563,
1387.154,930.43134,
1384.243,885.19799,
1381.332,876.64335,
1378.422,868.57119,
1375.511,884.49646,
1372.601,938.20108,
1369.690,992.4689,
1366.780,975.40487,
1363.869,1043.5771,
1360.958,1090.2361,
1358.048,1057.0316,
1355.137,1090.3064,
1352.227,1160.0181,
1349.316,1193.6361,
1346.406,1230.6907,
1343.495,1244.5183,
1340.584,1239.285,
1337.674,1286.7852,
1334.763,1279.3498,
1331.853,1295.1128,
1328.942,1325.9918,
1326.032,1322.4094,
1323.121,1354.8344,
1320.210,1410.0348,
1317.300,1437.6523,
1314.389,1456.1392,
1311.479,1486.3518,
1308.568,1530.7382,
1305.657,1562.1974,
1302.747,1549.2748,
1299.836,1597.207,
1296.926,1618.9802,
1294.015,1709.9932,
1291.105,1718.1527,
1288.194,1805.813,
1285.283,1794.0979,
1282.373,1802.2655,
1279.462,1831.2203,
1276.552,1842.8917,
1273.641,1831.6394,
1270.731,1832.3336,
1267.820,1863.7256,
1264.909,1835.7935,
1261.999,1800.6488,
1259.088,1825.276,
1256.178,1873.8551,
1253.267,1815.004,
1250.356,1794.0727,
1247.446,1791.4031,
1244.535,1757.0447,
1241.625,1719.3093,
1238.714,1718.0432,
1235.804,1736.9587,
1232.893,1761.5019,
1229.982,1752.5967,
1227.072,1748.0701,
1224.161,1713.2893,
1221.251,1690.3708,
1218.340,1678.2719,
1215.430,1657.6834,
1212.519,1643.75,
1209.608,1633.4731,
1206.698,1627.0056,
1203.787,1656.2073,
1200.877,1620.4714,
1197.966,1615.9756,
1195.055,1684.0099,
1192.145,1776.8951,
1189.234,1823.2138,
1186.324,1858.8433,
1183.413,1894.3236,
1180.503,1929.95,
1177.592,1944.0021,
1174.681,1870.1336,
1171.771,1811.5742,
1168.860,1847.2978,
1165.950,1808.0167,
1163.039,1801.242,
1160.129,1800.3906,
1157.218,1839.6126,
1154.307,1874.8454,
1151.397,1863.3995,
1148.486,1880.9431,
1145.576,1920.5936,
1142.665,1893.9562,
1139.754,1875.4774,
1136.844,1849.3403,
1133.933,1852.6531,
1131.023,1850.8918,
1128.112,1838.0358,
1125.202,1844.721,
1122.291,1864.3605,
1119.380,1827.2437,
1116.470,1877.5478,
1113.559,1853.5933,
1110.649,1838.8564,
1107.738,1813.7815,
1104.828,1801.8237,
1101.917,1808.4954,
1099.006,1802.853,
1096.096,1813.3413,
1093.185,1822.9993,
1090.275,1845.6003,
1087.364,1814.3855,
1084.453,1835.9976,
1081.543,1860.0531,
1078.632,1857.4509,
1075.722,1865.3052,
1072.811,1854.5638,
1069.901,1851.9441,
1066.990,1855.7917,
1064.079,1871.0408,
1061.169,1885.4822,
1058.258,1914.6182,
1055.348,1932.5219,
1052.437,1898.1262,
1049.527,1886.3276,
1046.616,1927.1626,
1043.705,1918.647,
1040.795,1905.1724,
1037.884,1899.2443,
1034.974,1902.4742,
1032.063,1913.7575,
1029.153,1929.6461,
1026.242,1928.7812,
1023.331,1894.5855,
1020.421,1942.821,
1017.510,1961.1472,
1014.600,1991.0073,
1011.689,2028.6278,
1008.778,2005.0169,
1005.868,2000.8736,
1002.957,2014.6392,
1000.047,2030.582,
997.136,2103.2925,
994.226,2152.9807,
991.315,2151.7921,
988.404,2127.5097,
985.494,2049.0569,
982.583,2062.7618,
979.673,2044.2639,
976.762,2019.1369,
973.852,2009.4021,
970.941,2010.9717,
968.030,2012.7617,
965.120,2046.7321,
962.209,2042.4694,
959.299,2060.1645,
956.388,2070.5498,
953.477,2067.4066,
950.567,2081.4482,
947.656,2144.3097,
944.746,2156.2035,
941.835,2130.836,
938.925,2125.4081,
936.014,2115.6335,
933.103,2108.9278,
930.193,2112.9522,
927.282,2104.2377,
924.372,2076.3326,
921.461,2067.5952,
918.551,2025.6656,
915.640,2012.8979,
912.729,2031.5297,
909.819,2022.0828,
906.908,2017.0282,
903.998,2057.3136,
901.087,2077.2976,
898.176,2071.2973,
895.266,2068.272,
892.355,2087.8076,
889.445,2082.772,
886.534,2083.5849,
883.624,2087.787,
880.713,2108.6332,
877.802,2097.2217,
874.892,2006.8191,
871.981,1847.7255,
869.071,1677.3013,
866.160,1698.1171,
863.250,1842.365,
860.339,1974.2285,
857.428,2030.5417,
854.518,2101.73,
851.607,1962.7744,
848.697,1914.6764,
845.786,1875.2069,
842.875,1895.939,
839.965,2005.1244,
837.054,2102.8616,
834.144,2112.8067,
831.233,2173.4124,
828.323,2208.6849,
825.412,2214.1061,
822.501,2207.9839,
819.591,2181.5391,
816.680,2155.9102,
813.770,2140.3525,
810.859,2120.7615,
807.949,2106.7817,
805.038,2113.2566,
802.127,2100.9097,
799.217,2075.1521,
796.306,2072.4257,
793.396,2105.9488,
790.485,2136.7988,
787.574,2082.9919,
784.664,2142.04,
781.753,2129.9365,
778.843,2131.0021,
775.932,2143.1327,
773.022,2147.2023,
770.111,2182.3582,
767.200,2174.0916,
764.290,2143.5897,
761.379,2135.1722,
758.469,2148.9832,
755.558,2135.139,
752.648,2148.1727,
749.737,2167.7225,
746.826,2162.7634,
743.916,2143.9578,
741.005,2132.2565,
738.095,2092.4745,
735.184,2008.3784,
732.274,1950.4551,
729.363,1947.2601,
726.452,2001.9292,
723.542,2080.4404,
720.631,2136.7387,
717.721,2143.5845,
714.810,2157.3067,
711.899,2190.3738,
708.989,2188.7599,
706.078,2187.9487,
703.168,2193.8222,
700.257,2184.5477,
697.347,2174.6621,
694.436,2206.0953,
691.525,2181.9812,
688.615,2186.8126,
685.704,2190.5915,
682.794,2185.8777,
679.883,2181.6243,
676.973,2223.2955,
674.062,2215.7979,
671.151,2205.8733,
668.241,2215.2329,
665.330,2247.5021,
662.420,2221.1439,
659.509,2189.0829,
656.598,2167.6915,
653.688,2183.2143,
650.777,2259.5628,
647.867,2195.0602,
644.956,2155.3648,
642.046,2098.2902,
639.135,2050.4401,
636.224,2091.0444,
633.314,2149.7959,
630.403,2197.8578,
627.493,2225.743,
624.582,2233.0437,
621.672,2229.8757,
618.761,2216.831,
615.850,2259.584,
612.940,2317.2175,
610.029,2356.0652,
607.119,2363.9615,
604.208,2351.9698,
601.297,2340.2693,
598.387,2338.0495,
595.476,2348.3043,
592.566,2343.5819,
589.655,2365.4262,
586.745,2377.75,
583.834,2383.02,
580.923,2401.551,
578.013,2368.5921,
575.102,2333.3649,
572.192,2319.8238,
569.281,2332.5778,
566.371,2342.7519,
563.460,2357.1539,
560.549,2370.5465,
557.639,2393.2524,
554.728,2434.7701,
551.818,2466.7631,
548.907,2406.7146,
545.996,2376.5801,
543.086,2395.0724,
540.175,2387.2859,
537.265,2404.1327,
534.354,2403.2246,
531.444,2403.5524,
528.533,2422.2601,
525.622,2401.3095,
522.712,2377.9406,
519.801,2352.7661,
516.891,2337.2277,
513.980,2364.328,
511.070,2395.6282,
508.159,2402.9743,
505.248,2395.2464,
502.338,2388.4278,
499.427,2411.5827,
496.517,2430.7601,
493.606,2445.4609,
490.695,2453.3592,
487.785,2443.3519,
484.874,2449.5047,
481.964,2431.325,
479.053,2400.1177,
476.143,2401.6536,
473.232,2413.2605,
470.321,2401.2064,
467.411,2395.6532,
464.500,2430.7694,
461.590,2431.5351,
458.679,2420.7441,
455.769,2407.6542,
452.858,2403.9198,
449.947,2453.5753,
447.037,2424.3106,
444.126,2416.4954,
441.216,2447.2792,
438.305,2450.3269,
435.395,2473.0416,
432.484,2458.9114,
429.573,2406.2423,
426.663,2335.5492,
423.752,2142.8417,
420.842,1897.7997,
417.931,1682.065,
415.020,1609.2626,
412.110,1963.7772,
409.199,2242.4271,
406.289,2387.1568,
403.378,2357.4093,
400.468,2256.8621,
397.557,2259.7122,
394.646,2328.3036,
391.736,2424.7017,
388.825,2423.1932,
385.915,2422.75,
383.004,2430.7452,
380.094,2449.9822,
377.183,2434.9327,
374.272,2447.5762,
371.362,2489.7111,
368.451,2555.1087,
365.541,2528.0894,
362.630,2520.2038,
359.719,2520.046,
356.809,2518.4392,
353.898,2480.2505,
350.988,2496.3318,
348.077,2532.98,
345.167,2565.5174,
342.256,2521.4403,
339.345,2505.5614,
336.435,2496.0878,
333.524,2479.4546,
330.614,2501.8093,
327.703,2542.1213,
324.793,2575.8123,
321.882,2581.6851,
318.971,2554.9212,
316.061,2576.0255,
313.150,2607.981,
310.240,2608.7231,
307.329,2691.6479,
304.418,2717.9107,
301.508,2714.0823,
298.597,2730.3715,
295.687,2763.5803,
292.776,2774.1666,
289.866,2791.1036,
286.955,2901.9124,
284.044,2989.2224,
281.134,3091.4772,
278.223,3199.8157,
275.313,3234.4479,
272.402,3276.0233,
269.492,3296.3141,
266.581,3280.1286,
263.670,3187.4959,
260.760,3226.5703,
257.849,3322.4212,
254.939,3424.4309,
252.028,3431.5408,
249.117,3380.758,
246.207,3336.3123,
243.296,3408.0519,
240.386,3429.4628,
237.475,3406.015,
234.565,3355.0245,
231.654,3344.0687,
228.743,3306.0772,
225.833,3274.5668,
222.922,3259.7943,
220.012,3196.41,
217.101,3184.5829,
214.191,3179.5436,
211.280,3132.2585,
208.369,3056.0862,
205.459,3001.1867,
202.548,2977.6414,
199.638,3011.7469,
196.727,2995.7014,
193.816,2984.1684,
190.906,2992.2297,
187.995,2863.3533,
185.085,2826.7885,
182.174,2837.3171,
179.264,2843.0992,
176.353,2797.6139,
173.442,2795.3163,
170.532,2828.4333,
167.621,2757.0567,
164.711,2673.6307,
161.800,2556.0292,
158.890,2381.1354,
155.979,2183.0848,
153.068,1993.6375,
150.158,1800.487,
147.247,1552.0755,
144.337,1285.9623,
141.426,1011.0059,
138.516,729.98453,
135.605,529.94201,
132.694,369.49656,
129.784,246.97681,
126.873,171.17304,
123.963,117.05323,
121.052,77.268299,
118.141,50.853925,
115.231,45.776008,
112.320,39.937277,
109.410,34.340934,
106.499,32.204469,
103.589,27.828219,
100.678,22.577026,
97.767,16.889526,
94.857,11.206088,
91.946,12.781109,
89.036,19.088694,
86.125,21.21631,
83.215,22.28092,
80.304,18.440212,
77.393,5.6931528,
74.483,9.9910797,
71.572,11.300592,
68.662,9.02707,
65.751,11.852874,
62.840,9.8597881,
59.930,7.4991448,
57.019,10.319473,
54.109,5.3755524,
51.198,3.8612649,
48.288,8.7273502,
45.377,5.913838,
42.466,4.3377807,
39.556,3.9802372,
36.645,5.3846176,
33.735,5.75,
30.824,3.9829042,
27.914,-1.6264977,
25.003,-0.38208757,
22.092,0.42709544,
19.182,0.070360079,
16.271,9.8632219,
13.361,21.757702,
10.450,15.683054,
7.539,-83.477728,
4.629,-421.11028,
1.718,-807.97096,
-1.192,-1116.806,
-4.103,-870.64534,
-7.013,-478.2987,
-9.924,-2.25,
