,PL3C2D~1,
Raman shift [1/cm],Intensity,
3014.167,2.75,
3011.256,2.5499571,
3008.346,74.874558,
3005.435,96.863071,
3002.525,88.920022,
2999.614,72.552618,
2996.704,101.78608,
2993.793,114.87385,
2990.882,118.00953,
2987.972,109.80549,
2985.061,116.75985,
2982.151,118.79538,
2979.240,119.64923,
2976.329,135.02048,
2973.419,139.19621,
2970.508,130.58337,
2967.598,128.03675,
2964.687,138.52581,
2961.777,149.18595,
2958.866,158.08284,
2955.955,154.19691,
2953.045,162.50169,
2950.134,168.68585,
2947.224,152.40478,
2944.313,178.79487,
2941.403,182.01186,
2938.492,172.61179,
2935.581,180.38434,
2932.671,169.31225,
2929.760,188.23463,
2926.850,166.31767,
2923.939,195.39019,
2921.028,191.66762,
2918.118,187.83061,
2915.207,192.75,
2912.297,177.81347,
2909.386,195.98357,
2906.476,187.98317,
2903.565,197.55741,
2900.654,189.70246,
2897.744,177.68714,
2894.833,172.33764,
2891.923,182.2917,
2889.012,178.33381,
2886.102,171.31352,
2883.191,168.74906,
2880.280,163.19497,
2877.370,135.90119,
2874.459,117.03937,
2871.549,144.1581,
2868.638,172.97885,
2865.727,181.11922,
2862.817,190.30748,
2859.906,187.54772,
2856.996,190.76359,
2854.085,178.94746,
2851.175,185.17772,
2848.264,190.3825,
2845.353,204.27553,
2842.443,183.54861,
2839.532,187.07834,
2836.622,184.41276,
2833.711,179.94939,
2830.801,172.06691,
2827.890,182.54372,
2824.979,185.68805,
2822.069,197.78412,
2819.158,194.66913,
2816.248,183.25579,
2813.337,188.88414,
2810.427,196.31612,
2807.516,198.11687,
2804.605,199.70673,
2801.695,187.22367,
2798.784,186.52823,
2795.874,193.01911,
2792.963,199.10691,
2790.052,171.75472,
2787.142,195.1315,
2784.231,181.78261,
2781.321,196.81286,
2778.410,193.18529,
2775.500,181.38897,
2772.589,190.09633,
2769.678,200.17659,
2766.768,216.86652,
2763.857,194.69798,
2760.947,198.24054,
2758.036,198.44428,
2755.126,204.55983,
2752.215,213.85467,
2749.304,205.30398,
2746.394,224.84478,
2743.483,215.55001,
2740.573,207.5398,
2737.662,213.06953,
2734.751,208.21595,
2731.841,202.83058,
2728.930,209.72886,
2726.020,211.09201,
2723.109,214.20367,
2720.199,215.75,
2717.288,210.31204,
2714.377,211.84574,
2711.467,213.91374,
2708.556,215.97358,
2705.646,211.44015,
2702.735,225.2371,
2699.825,212.75,
2696.914,229.75048,
2694.003,221.20854,
2691.093,216.55384,
2688.182,214.58555,
2685.272,215.14829,
2682.361,219.75,
2679.450,209.84057,
2676.540,226.50611,
2673.629,217.40469,
2670.719,242.66221,
2667.808,408.8224,
2664.898,246.85409,
2661.987,236.31668,
2659.076,232.38578,
2656.166,236.76726,
2653.255,238.23639,
2650.345,234.94238,
2647.434,245.80687,
2644.524,230.3447,
2641.613,224.49293,
2638.702,221.81312,
2635.792,229.43694,
2632.881,236.63686,
2629.971,250.96484,
2627.060,248.74938,
2624.149,253.75,
2621.239,237.96887,
2618.328,233.47058,
2615.418,243.11363,
2612.507,235.95551,
2609.597,248.83184,
2606.686,234.08736,
2603.775,238.94841,
2600.865,250.56917,
2597.954,259.51043,
2595.044,254.41962,
2592.133,251.30412,
2589.223,246.18368,
2586.312,251.4083,
2583.401,255.13688,
2580.491,260.29808,
2577.580,241.77971,
2574.670,256.42915,
2571.759,244.44692,
2568.848,253.27492,
2565.938,255.79769,
2563.027,246.38409,
2560.117,247.02103,
2557.206,267.6393,
2554.296,251.6905,
2551.385,264.08822,
2548.474,270.93475,
2545.564,258.84497,
2542.653,268.43457,
2539.743,257.78697,
2536.832,257.77056,
2533.922,276.955,
2531.011,287.82516,
2528.100,287.01482,
2525.190,281.26312,
2522.279,268.78176,
2519.369,290.35374,
2516.458,288.41431,
2513.548,264.71393,
2510.637,274.30334,
2507.726,279.93958,
2504.816,277.12542,
2501.905,273.25732,
2498.995,281.55562,
2496.084,269.18906,
2493.173,289.82914,
2490.263,272.41324,
2487.352,291.70827,
2484.442,293.88275,
2481.531,297.53728,
2478.621,290.6789,
2475.710,311.58131,
2472.799,290.24327,
2469.889,284.47852,
2466.978,301.28585,
2464.068,310.75,
2461.157,290.51998,
2458.247,293.32352,
2455.336,293.40949,
2452.425,299.99057,
2449.515,301.92878,
2446.604,286.68545,
2443.694,310.86681,
2440.783,306.36599,
2437.872,308.78646,
2434.962,312.90207,
2432.051,311.50907,
2429.141,302.88527,
2426.230,313.09809,
2423.320,293.10684,
2420.409,300.45523,
2417.498,302.51968,
2414.588,322.0123,
2411.677,329.81768,
2408.767,308.03838,
2405.856,315.40477,
2402.946,325.75625,
2400.035,327.25469,
2397.124,306.55747,
2394.214,329.0744,
2391.303,320.10366,
2388.393,321.45467,
2385.482,318.05843,
2382.571,313.71157,
2379.661,325.77331,
2376.750,325.38051,
2373.840,331.10311,
2370.929,354.50092,
2368.019,331.47354,
2365.108,326.05105,
2362.197,341.13905,
2359.287,369.09485,
2356.376,328.83277,
2353.466,345.34074,
2350.555,350.91011,
2347.645,352.78974,
2344.734,349.17396,
2341.823,339.89925,
2338.913,335.34852,
2336.002,339.41271,
2333.092,346.14059,
2330.181,353.48658,
2327.270,354.63999,
2324.360,351.82546,
2321.449,361.01191,
2318.539,359.11084,
2315.628,360.42186,
2312.718,361.10022,
2309.807,364.95494,
2306.896,365.9863,
2303.986,366.4059,
2301.075,370.04789,
2298.165,375.73092,
2295.254,366.00852,
2292.344,363.80396,
2289.433,361.77318,
2286.522,362.61611,
2283.612,365.34057,
2280.701,358.36437,
2277.791,388.95037,
2274.880,392.89402,
2271.969,392.45782,
2269.059,391.16416,
2266.148,380.91361,
2263.238,391.34459,
2260.327,402.33615,
2257.417,393.42889,
2254.506,383.55912,
2251.595,385.32091,
2248.685,386.48654,
2245.774,402.06842,
2242.864,410.52804,
2239.953,418.79143,
2237.043,404.46393,
2234.132,400.50323,
2231.221,412.69837,
2228.311,430.66751,
2225.400,423.41226,
2222.490,413.97806,
2219.579,428.53666,
2216.669,441.23331,
2213.758,442.79313,
2210.847,417.56867,
2207.937,456.83626,
2205.026,435.1949,
2202.116,428.25636,
2199.205,443.75,
2196.294,453.30397,
2193.384,449.38198,
2190.473,459.33568,
2187.563,490.75483,
2184.652,494.00918,
2181.742,515.31924,
2178.831,524.75774,
2175.920,526.48771,
2173.010,540.65023,
2170.099,537.41716,
2167.189,550.98679,
2164.278,584.04347,
2161.368,588.32112,
2158.457,618.89674,
2155.546,632.69035,
2152.636,633.77655,
2149.725,643.24664,
2146.815,673.71556,
2143.904,646.06225,
2140.993,681.33723,
2138.083,688.80781,
2135.172,679.66603,
2132.262,681.61356,
2129.351,688.83283,
2126.441,686.56552,
2123.530,633.68266,
2120.619,624.99782,
2117.709,601.68519,
2114.798,566.4921,
2111.888,543.38725,
2108.977,536.03476,
2106.067,504.48191,
2103.156,515.22654,
2100.245,489.76255,
2097.335,508.78665,
2094.424,494.56952,
2091.514,474.25271,
2088.603,474.00348,
2085.692,472.29645,
2082.782,470.50906,
2079.871,469.57147,
2076.961,471.62084,
2074.050,475.62273,
2071.140,488.72733,
2068.229,464.75652,
2065.318,451.00874,
2062.408,447.65922,
2059.497,454.35119,
2056.587,455.45929,
2053.676,462.28293,
2050.766,453.59679,
2047.855,454.57589,
2044.944,479.95674,
2042.034,461.27601,
2039.123,458.38973,
2036.213,462.82559,
2033.302,455.98937,
2030.391,457.56316,
2027.481,449.3843,
2024.570,462.29237,
2021.660,458.22303,
2018.749,453.14215,
2015.839,442.99607,
2012.928,472.61241,
2010.017,461.67183,
2007.107,455.18923,
2004.196,465.90486,
2001.286,474.62282,
1998.375,443.26574,
1995.465,436.32321,
1992.554,438.50293,
1989.643,418.47584,
1986.733,458.30526,
1983.822,436.13552,
1980.912,450.60099,
1978.001,434.45316,
1975.090,440.76526,
1972.180,432.33644,
1969.269,433.71266,
1966.359,433.50671,
1963.448,432.48052,
1960.538,425.44641,
1957.627,425.53328,
1954.716,428.66382,
1951.806,442.65064,
1948.895,437.30673,
1945.985,411.09477,
1943.074,400.46956,
1940.164,404.3751,
1937.253,417.91511,
1934.342,422.22861,
1931.432,404.16325,
1928.521,407.0367,
1925.611,398.17225,
1922.700,387.79282,
1919.790,402.25271,
1916.879,401.95925,
1913.968,373.78443,
1911.058,395.87313,
1908.147,407.49887,
1905.237,382.3309,
1902.326,388.26705,
1899.415,363.28413,
1896.505,355.37069,
1893.594,385.92989,
1890.684,398.01138,
1887.773,389.00042,
1884.863,378.66344,
1881.952,356.03524,
1879.041,363.14928,
1876.131,406.21142,
1873.220,392.08619,
1870.310,359.04602,
1867.399,371.5101,
1864.489,381.71106,
1861.578,382.24439,
1858.667,396.60329,
1855.757,397.34427,
1852.846,398.47309,
1849.936,390.60985,
1847.025,404.16363,
1844.114,378.85112,
1841.204,385.77447,
1838.293,419.75832,
1835.383,409.8315,
1832.472,402.19174,
1829.562,388.25156,
1826.651,413.88754,
1823.740,399.63117,
1820.830,426.56136,
1817.919,393.77367,
1815.009,406.86832,
1812.098,441.26967,
1809.188,422.23842,
1806.277,410.97132,
1803.366,420.98291,
1800.456,433.54094,
1797.545,409.7998,
1794.635,382.29802,
1791.724,398.85671,
1788.813,426.34563,
1785.903,416.26742,
1782.992,426.67697,
1780.082,423.14748,
1777.171,415.41327,
1774.261,411.14517,
1771.350,427.333,
1768.439,439.5386,
1765.529,451.38611,
1762.618,420.76244,
1759.708,418.86986,
1756.797,449.43939,
1753.887,442.72376,
1750.976,451.67081,
1748.065,440.01575,
1745.155,440.44022,
1742.244,445.43932,
1739.334,432.79471,
1736.423,456.01164,
1733.512,466.29471,
1730.602,460.51388,
1727.691,470.26491,
1724.781,503.63991,
1721.870,488.41177,
1718.960,508.2392,
1716.049,492.77563,
1713.138,482.76503,
1710.228,456.51139,
1707.317,479.28714,
1704.407,480.05481,
1701.496,488.86548,
1698.586,504.53375,
1695.675,485.16441,
1692.764,528.24593,
1689.854,525.96653,
1686.943,550.87313,
1684.033,507.86763,
1681.122,569.66249,
1678.211,575.70241,
1675.301,571.76233,
1672.390,572.73804,
1669.480,569.27143,
1666.569,633.99122,
1663.659,652.94599,
1660.748,665.30917,
1657.837,692.87521,
1654.927,654.33573,
1652.016,680.25654,
1649.106,740.94585,
1646.195,749.34941,
1643.285,773.93229,
1640.374,781.33188,
1637.463,763.13712,
1634.553,838.32144,
1631.642,810.48834,
1628.732,878.28329,
1625.821,967.80038,
1622.911,1044.3161,
1620.000,1083.2586,
1617.089,1150.3968,
1614.179,1187.7066,
1611.268,1333.1733,
1608.358,1375.9239,
1605.447,1409.8074,
1602.536,1411.75,
1599.626,1417.2696,
1596.715,1411.3968,
1593.805,1419.6933,
1590.894,1376.7165,
1587.984,1361.223,
1585.073,1306.9994,
1582.162,1346.1734,
1579.252,1262.4637,
1576.341,1226.5298,
1573.431,1233.7144,
1570.520,1213.0543,
1567.610,1204.2598,
1564.699,1205.2001,
1561.788,1163.4969,
1558.878,1155.9914,
1555.967,1124.4134,
1553.057,1085.3364,
1550.146,1060.8446,
1547.235,1017.3304,
1544.325,978.6117,
1541.414,986.11195,
1538.504,997.12578,
1535.593,976.19491,
1532.683,955.07485,
1529.772,940.40016,
1526.861,944.45246,
1523.951,949.87765,
1521.040,924.68455,
1518.130,920.38098,
1515.219,879.3892,
1512.309,898.32655,
1509.398,871.8907,
1506.487,877.26136,
1503.577,918.2482,
1500.666,929.1684,
1497.756,896.402,
1494.845,842.22917,
1491.934,805.69331,
1489.024,788.36843,
1486.113,816.49368,
1483.203,820.52634,
1480.292,850.4479,
1477.382,780.58292,
1474.471,769.65641,
1471.560,781.18366,
1468.650,754.68596,
1465.739,761.24568,
1462.829,762.6041,
1459.918,745.25267,
1457.008,740.81159,
1454.097,736.43115,
1451.186,722.59139,
1448.276,740.36403,
1445.365,759.21051,
1442.455,718.94307,
1439.544,726.69275,
1436.633,706.27433,
1433.723,706.25754,
1430.812,687.78953,
1427.902,675.5245,
1424.991,666.04688,
1422.081,645.5655,
1419.170,592.77044,
1416.259,619.58271,
1413.349,579.41457,
1410.438,582.64405,
1407.528,592.03748,
1404.617,586.29159,
1401.707,576.98054,
1398.796,560.94933,
1395.885,548.16339,
1392.975,539.89546,
1390.064,488.13858,
1387.154,368.40187,
1384.243,237.64319,
1381.332,146.10205,
1378.422,117.10677,
1375.511,279.16988,
1372.601,483.5739,
1369.690,583.90058,
1366.780,631.80751,
1363.869,671.26204,
1360.958,707.83822,
1358.048,726.08981,
1355.137,752.8801,
1352.227,787.01805,
1349.316,815.19253,
1346.406,851.35422,
1343.495,875.04091,
1340.584,854.21327,
1337.674,920.9644,
1334.763,924.16141,
1331.853,961.25065,
1328.942,993.88124,
1326.032,995.30314,
1323.121,976.96685,
1320.210,952.10422,
1317.300,974.62253,
1314.389,1023.9866,
1311.479,1041.886,
1308.568,1024.207,
1305.657,1009.9071,
1302.747,1005.3237,
1299.836,1006.8066,
1296.926,1089.852,
1294.015,1178.107,
1291.105,1269.8042,
1288.194,1322.4859,
1285.283,1329.17,
1282.373,1385.9685,
1279.462,1435.6713,
1276.552,1450.6083,
1273.641,1468.3139,
1270.731,1477.2843,
1267.820,1441.697,
1264.909,1456.5082,
1261.999,1455.1162,
1259.088,1465.1495,
1256.178,1422.9272,
1253.267,1385.0622,
1250.356,1330.374,
1247.446,1339.2598,
1244.535,1328.5403,
1241.625,1279.6019,
1238.714,1239.8705,
1235.804,1210.8665,
1232.893,1228.5066,
1229.982,1195.8369,
1227.072,1109.8323,
1224.161,1125.6031,
1221.251,1091.78,
1218.340,1023.686,
1215.430,1008.6145,
1212.519,1012.6003,
1209.608,1023.3038,
1206.698,1060.4947,
1203.787,1060.2173,
1200.877,1065.2574,
1197.966,1105.7196,
1195.055,1152.9722,
1192.145,1191.5551,
1189.234,1230.9457,
1186.324,1274.0253,
1183.413,1296.3084,
1180.503,1284.9578,
1177.592,1267.4673,
1174.681,1272.5274,
1171.771,1223.4094,
1168.860,1251.9882,
1165.950,1224.111,
1163.039,1217.4484,
1160.129,1224.2384,
1157.218,1240.2877,
1154.307,1219.3577,
1151.397,1170.831,
1148.486,1196.2976,
1145.576,1209.131,
1142.665,1171.8387,
1139.754,1164.6819,
1136.844,1172.1536,
1133.933,1171.058,
1131.023,1157.836,
1128.112,1157.1056,
1125.202,1172.6099,
1122.291,1159.3659,
1119.380,1135.776,
1116.470,1138.4236,
1113.559,1178.959,
1110.649,1189.4403,
1107.738,1173.7471,
1104.828,1168.2398,
1101.917,1167.5069,
1099.006,1138.8222,
1096.096,1133.1902,
1093.185,1189.3824,
1090.275,1187.2758,
1087.364,1176.8304,
1084.453,1191.3113,
1081.543,1183.4007,
1078.632,1165.7188,
1075.722,1186.9291,
1072.811,1173.6951,
1069.901,1158.8497,
1066.990,1185.2333,
1064.079,1216.929,
1061.169,1214.3902,
1058.258,1205.7144,
1055.348,1218.8627,
1052.437,1237.3062,
1049.527,1220.5892,
1046.616,1242.3099,
1043.705,1231.647,
1040.795,1234.135,
1037.884,1239.2672,
1034.974,1260.8608,
1032.063,1292.8424,
1029.153,1286.75,
1026.242,1286.75,
1023.331,1285.9167,
1020.421,1294.8123,
1017.510,1321.161,
1014.600,1348.9003,
1011.689,1356.7635,
1008.778,1344.6822,
1005.868,1362.4064,
1002.957,1435.5365,
1000.047,1485.334,
997.136,1503.8613,
994.226,1488.9041,
991.315,1471.3168,
988.404,1473.9677,
985.494,1433.8843,
982.583,1439.8802,
979.673,1426.1171,
976.762,1413.7048,
973.852,1416.7062,
970.941,1431.7885,
968.030,1446.0044,
965.120,1458.7393,
962.209,1456.1816,
959.299,1431.6695,
956.388,1425.1098,
953.477,1430.6272,
950.567,1429.5215,
947.656,1416.1983,
944.746,1427.2426,
941.835,1409.9341,
938.925,1427.4657,
936.014,1423.0694,
933.103,1420.1083,
930.193,1433.5612,
927.282,1395.1002,
924.372,1364.6583,
921.461,1343.0764,
918.551,1358.2445,
915.640,1366.101,
912.729,1346.6259,
909.819,1318.6363,
906.908,1295.0484,
903.998,1333.5182,
901.087,1350.1151,
898.176,1342.7745,
895.266,1351.3809,
892.355,1400.1477,
889.445,1423.6472,
886.534,1411.2269,
883.624,1424.2251,
880.713,1427.1568,
877.802,1427.6135,
874.892,1438.0369,
871.981,1441.9745,
869.071,1366.7873,
866.160,1372.3789,
863.250,1382.3226,
860.339,1391.2675,
857.428,1399.202,
854.518,1375.5093,
851.607,1367.1886,
848.697,1379.5063,
845.786,1367.0672,
842.875,1365.1301,
839.965,1389.6188,
837.054,1370.8616,
834.144,1380.8067,
831.233,1357.4185,
828.323,1357.6089,
825.412,1373.0037,
822.501,1371.6435,
819.591,1337.7611,
816.680,1343.1603,
813.770,1332.8465,
810.859,1312.2128,
807.949,1302.6403,
805.038,1320.8496,
802.127,1321.6727,
799.217,1332.1855,
796.306,1316.4526,
793.396,1295.9102,
790.485,1286.9606,
787.574,1289.0266,
784.664,1322.6512,
781.753,1294.5298,
778.843,1289.512,
775.932,1307.3055,
773.022,1320.384,
770.111,1324.4719,
767.200,1308.7624,
764.290,1323.9757,
761.379,1321.4198,
758.469,1287.0071,
755.558,1256.7775,
752.648,1224.1933,
749.737,1211.2221,
746.826,1140.1479,
743.916,1007.7427,
741.005,822.19015,
738.095,436.54865,
735.184,37.510507,
732.274,-52.763849,
729.363,193.14335,
726.452,655.26079,
723.542,1023.5348,
720.631,1155.3727,
717.721,1217.8194,
714.810,1236.8466,
711.899,1232.4332,
708.989,1226.7847,
706.078,1262.0073,
703.168,1275.6078,
700.257,1271.7363,
697.347,1258.2721,
694.436,1246.5792,
691.525,1277.1238,
688.615,1278.7187,
685.704,1267.1161,
682.794,1260.4308,
679.883,1276.9034,
676.973,1302.5473,
674.062,1302.6453,
671.151,1301.065,
668.241,1290.5993,
665.330,1254.3593,
662.420,1309.4718,
659.509,1304.8767,
656.598,1309.1652,
653.688,1320.9989,
650.777,1301.1019,
647.867,1281.9901,
644.956,1285.1798,
642.046,1278.9704,
639.135,1268.7806,
636.224,1287.8694,
633.314,1311.6875,
630.403,1311.2467,
627.493,1313.6633,
624.582,1324.5734,
621.672,1323.7814,
618.761,1323.75,
615.850,1309.9753,
612.940,1332.2204,
610.029,1386.2282,
607.119,1323.0577,
604.208,1347.2806,
601.297,1341.8034,
598.387,1328.0495,
595.476,1334.5904,
592.566,1290.5145,
589.655,1293.1162,
586.745,1272.7119,
583.834,1235.0171,
580.923,1221.205,
578.013,1130.9606,
575.102,1126.252,
572.192,1177.9076,
569.281,1249.3898,
566.371,1275.2164,
563.460,1334.8929,
560.549,1343.6444,
557.639,1346.2809,
554.728,1394.7791,
551.818,1363.5665,
548.907,1373.8136,
545.996,1400.3016,
543.086,1424.4145,
540.175,1422.8572,
537.265,1407.5401,
534.354,1413.7906,
531.444,1419.3409,
528.533,1403.6329,
525.622,1416.0481,
522.712,1404.1879,
519.801,1400.8601,
516.891,1417.9492,
513.980,1453.5668,
511.070,1470.1326,
508.159,1470.9743,
505.248,1474.012,
502.338,1499.1341,
499.427,1512.2552,
496.517,1533.2853,
493.606,1554.1528,
490.695,1563.4008,
487.785,1524.9112,
484.874,1513.5802,
481.964,1545.6334,
479.053,1589.9697,
476.143,1570.0027,
473.232,1586.7351,
470.321,1583.5319,
467.411,1578.0685,
464.500,1592.1597,
461.590,1529.369,
458.679,1529.9097,
455.769,1554.8321,
452.858,1580.4086,
449.947,1615.5494,
447.037,1609.4013,
444.126,1583.0046,
441.216,1557.6447,
438.305,1585.8361,
435.395,1566.1471,
432.484,1557.5008,
429.573,1564.7025,
426.663,1573.0641,
423.752,1550.0378,
420.842,1513.2622,
417.931,1493.1698,
415.020,1533.3628,
412.110,1592.5474,
409.199,1641.6228,
406.289,1660.6648,
403.378,1629.7474,
400.468,1628.9914,
397.557,1594.8161,
394.646,1543.8958,
391.736,1487.245,
388.825,1315.2802,
385.915,1234.9472,
383.004,1247.2983,
380.094,1348.9325,
377.183,1450.5168,
374.272,1544.4264,
371.362,1623.2962,
368.451,1681.5281,
365.541,1710.799,
362.630,1756.4406,
359.719,1777.0952,
356.809,1752.3843,
353.898,1762.8675,
350.988,1770.6324,
348.077,1763.1336,
345.167,1734.75,
342.256,1734.75,
339.345,1748.5672,
336.435,1761.5828,
333.524,1762.834,
330.614,1733.7729,
327.703,1772.4967,
324.793,1796.3533,
321.882,1734.8455,
318.971,1774.248,
316.061,1791.1682,
313.150,1805.6047,
310.240,1840.4842,
307.329,1836.7475,
304.418,1797.3618,
301.508,1722.4238,
298.597,1608.3996,
295.687,1474.1378,
292.776,1426.8334,
289.866,1512.0981,
286.955,1836.3986,
284.044,2077.5598,
281.134,2269.6213,
278.223,2417.6537,
275.313,2512.7081,
272.402,2620.4664,
269.492,2703.078,
266.581,2749.6898,
263.670,2818.7967,
260.760,2865.3915,
257.849,2908.997,
254.939,2964.0382,
252.028,2970.5408,
249.117,2932.5492,
246.207,2891.9476,
243.296,2919.765,
240.386,2866.5927,
237.475,2828.6821,
234.565,2811.1486,
231.654,2781.9333,
228.743,2751.5845,
225.833,2703.2604,
222.922,2632.425,
220.012,2604.0114,
217.101,2582.4821,
214.191,2559.6962,
211.280,2526.2329,
208.369,2473.289,
205.459,2459.929,
202.548,2467.5995,
199.638,2414.6272,
196.727,2427.3749,
193.816,2433.6122,
190.906,2409.934,
187.995,2472.2001,
185.085,2499.8971,
182.174,2500.8735,
179.264,2479.1905,
176.353,2497.8957,
173.442,2494.16,
170.532,2469.1862,
167.621,2490.0945,
164.711,2431.6307,
161.800,2348.1905,
158.890,2273.3388,
155.979,2129.3841,
153.068,1953.3545,
150.158,1747.9528,
147.247,1508.1567,
144.337,1259.0186,
141.426,1000.1288,
138.516,729.86076,
135.605,520.73876,
132.694,359.46326,
129.784,239.58311,
126.873,156.62805,
123.963,113.57277,
121.052,78.735671,
118.141,40.898865,
115.231,37.907719,
112.320,37.597272,
109.410,36.295605,
106.499,23.476811,
103.589,19.629491,
100.678,18.478378,
97.767,17.767441,
94.857,11.513099,
91.946,10.765554,
89.036,13.637102,
86.125,12.927897,
83.215,12.21908,
80.304,11.271135,
77.393,9.8547948,
74.483,14.99108,
71.572,15.575887,
68.662,11.19586,
65.751,5.5442514,
62.840,6.6402119,
59.930,9.5627138,
57.019,8.8576318,
54.109,7.5556783,
51.198,6.4483907,
48.288,5.7783122,
45.377,9.2952025,
42.466,9.1011226,
39.556,6.6348814,
36.645,5.9326912,
33.735,9.3847393,
30.824,12.75,
27.914,12.75,
25.003,15.24055,
22.092,18.687427,
19.182,23.161892,
16.271,35.752714,
13.361,140.21408,
10.450,366.65194,
7.539,888.99183,
4.629,1403.2162,
1.718,1654.0487,
-1.192,1315.9336,
-4.103,788.43742,
-7.013,330.42731,
-9.924,-2.25,
