,PL7E9D~1,
Wavenumbers [1/cm],Intensity,
3014.167,-3.25,
3011.256,0.40003221,
3008.346,48.196804,
3005.435,35.368378,
3002.525,48.164989,
2999.614,51.027945,
2996.704,59.298456,
2993.793,44.997696,
2990.882,58.04765,
2987.972,64.669281,
2985.061,57.173656,
2982.151,49.255867,
2979.240,64.383078,
2976.329,70.25819,
2973.419,78.981067,
2970.508,69.833317,
2967.598,68.224297,
2964.687,70.167119,
2961.777,73.784087,
2958.866,84.758908,
2955.955,74.267697,
2953.045,93.465877,
2950.134,87.75,
2947.224,81.433252,
2944.313,102.50285,
2941.403,96.273723,
2938.492,106.60095,
2935.581,113.6101,
2932.671,98.114851,
2929.760,108.84998,
2926.850,120.44361,
2923.939,108.23132,
2921.028,104.5206,
2918.118,111.86838,
2915.207,94.629696,
2912.297,102.70346,
2909.386,111.15876,
2906.476,86.533745,
2903.565,96.540371,
2900.654,88.409263,
2897.744,96.561417,
2894.833,74.327457,
2891.923,68.615402,
2889.012,58.125722,
2886.102,43.064878,
2883.191,11.771712,
2880.280,-102.37924,
2877.370,-396.33079,
2874.459,-558.55099,
2871.549,-274.45885,
2868.638,-47.101649,
2865.727,5.7769183,
2862.817,23.050789,
2859.906,65.63604,
2856.996,74.704713,
2854.085,109.3971,
2851.175,96.888624,
2848.264,81.813831,
2845.353,82.224475,
2842.443,106.14582,
2839.532,112.07834,
2836.622,109.14323,
2833.711,104.69819,
2830.801,113.64191,
2827.890,103.08568,
2824.979,107.04605,
2822.069,114.71588,
2819.158,114.03033,
2816.248,115.50868,
2813.337,130.3683,
2810.427,112.70592,
2807.516,104.49109,
2804.605,117.18029,
2801.695,116.5263,
2798.784,108.04569,
2795.874,102.30935,
2792.963,107.96415,
2790.052,121.74635,
2787.142,108.05281,
2784.231,119.65374,
2781.321,112.19002,
2778.410,116.26016,
2775.500,114.28172,
2772.589,114.17278,
2769.678,121.35404,
2766.768,126.63348,
2763.857,126.32803,
2760.947,114.22163,
2758.036,127.53992,
2755.126,122.4124,
2752.215,124.17715,
2749.304,122.72841,
2746.394,135.63309,
2743.483,134.89997,
2740.573,131.87828,
2737.662,114.2929,
2734.751,118.58961,
2731.841,128.75,
2728.930,119.322,
2726.020,124.75,
2723.109,115.88417,
2720.199,132.08447,
2717.288,125.27555,
2714.377,141.19984,
2711.467,140.58626,
2708.556,122.36726,
2705.646,139.10218,
2702.735,154.57216,
2699.825,137.88089,
2696.914,149.56002,
2694.003,136.26382,
2691.093,138.8571,
2688.182,140.80482,
2685.272,144.55512,
2682.361,127.20306,
2679.450,142.98449,
2676.540,120.99389,
2673.629,133.41367,
2670.719,137.31932,
2667.808,130.18772,
2664.898,144.38618,
2661.987,141.14973,
2659.076,143.84266,
2656.166,143.62017,
2653.255,137.11905,
2650.345,137.61388,
2647.434,135.52165,
2644.524,144.90828,
2641.613,151.55013,
2638.702,155.71844,
2635.792,142.46884,
2632.881,144.63686,
2629.971,145.87751,
2627.060,148.58281,
2624.149,151.37188,
2621.239,144.48962,
2618.328,128.02162,
2615.418,155.75454,
2612.507,147.54449,
2609.597,143.75,
2606.686,151.75,
2603.775,150.78968,
2600.865,150.51451,
2597.954,163.22914,
2595.044,160.85628,
2592.133,139.80736,
2589.223,155.1237,
2586.312,161.45852,
2583.401,165.70984,
2580.491,159.29808,
2577.580,162.71204,
2574.670,141.9639,
2571.759,164.2654,
2568.848,157.99299,
2565.938,169.13107,
2563.027,156.31135,
2560.117,152.4883,
2557.206,164.92712,
2554.296,165.29462,
2551.385,171.87399,
2548.474,182.00948,
2545.564,173.19318,
2542.653,185.97148,
2539.743,174.77465,
2536.832,150.85093,
2533.922,174.93923,
2531.011,185.65009,
2528.100,173.68725,
2525.190,186.30492,
2522.279,157.40657,
2519.369,168.93879,
2516.458,154.18697,
2513.548,161.93159,
2510.637,188.81148,
2507.726,183.50463,
2504.816,177.06342,
2501.905,188.4311,
2498.995,157.94438,
2496.084,177.05662,
2493.173,179.40795,
2490.263,190.3229,
2487.352,189.91693,
2484.442,189.19327,
2481.531,172.4841,
2478.621,176.19553,
2475.710,203.67332,
2472.799,192.2702,
2469.889,179.02422,
2466.978,173.35821,
2464.068,182.4114,
2461.157,186.86745,
2458.247,197.4559,
2455.336,201.06898,
2452.425,178.57073,
2449.515,201.01403,
2446.604,191.16708,
2443.694,189.72699,
2440.783,204.46622,
2437.872,176.73455,
2434.962,202.22466,
2432.051,202.21299,
2429.141,206.59702,
2426.230,191.85825,
2423.320,199.52095,
2420.409,210.29505,
2417.498,210.90451,
2414.588,202.9478,
2411.677,172.78989,
2408.767,205.80905,
2405.856,218.87382,
2402.946,197.58289,
2400.035,198.63968,
2397.124,211.6377,
2394.214,211.3988,
2391.303,201.49594,
2388.393,183.53835,
2385.482,169.27874,
2382.571,121.02783,
2379.661,144.61043,
2376.750,177.26952,
2373.840,211.29994,
2370.929,224.6417,
2368.019,214.67733,
2365.108,229.07461,
2362.197,224.41569,
2359.287,237.10321,
2356.376,226.77818,
2353.466,246.03947,
2350.555,219.58989,
2347.645,212.97384,
2344.734,217.26614,
2341.823,221.70025,
2338.913,239.48729,
2336.002,227.1662,
2333.092,234.68112,
2330.181,229.99553,
2327.270,215.57508,
2324.360,228.88443,
2321.449,232.33504,
2318.539,243.87845,
2315.628,233.01139,
2312.718,233.69934,
2309.807,243.75,
2306.896,242.49022,
2303.986,245.27603,
2301.075,258.06913,
2298.165,256.75954,
2295.254,233.24549,
2292.344,255.90767,
2289.433,246.67272,
2286.522,246.25877,
2283.612,265.44005,
2280.701,273.53922,
2277.791,256.62978,
2274.880,250.75406,
2271.969,240.52366,
2269.059,247.89442,
2266.148,241.80676,
2263.238,254.84265,
2260.327,270.50845,
2257.417,255.41055,
2254.506,269.65032,
2251.595,266.19374,
2248.685,255.22307,
2245.774,263.85975,
2242.864,267.65772,
2239.953,278.70176,
2237.043,268.24322,
2234.132,265.50323,
2231.221,270.59239,
2228.311,282.18813,
2225.400,274.75,
2222.490,274.75,
2219.579,278.85285,
2216.669,287.74523,
2213.758,282.8794,
2210.847,270.07747,
2207.937,289.81349,
2205.026,291.63804,
2202.116,315.01221,
2199.205,307.50059,
2196.294,297.436,
2193.384,312.24952,
2190.473,317.75,
2187.563,348.71133,
2184.652,339.09327,
2181.742,324.72665,
2178.831,324.18195,
2175.920,332.92122,
2173.010,347.60147,
2170.099,346.95089,
2167.189,353.83611,
2164.278,363.10879,
2161.368,351.46384,
2158.457,365.83352,
2155.546,378.91636,
2152.636,355.87774,
2149.725,370.38085,
2146.815,382.51642,
2143.904,391.95445,
2140.993,397.16277,
2138.083,385.68006,
2135.172,410.64084,
2132.262,403.09595,
2129.351,420.95708,
2126.441,407.77906,
2123.530,384.94081,
2120.619,396.79608,
2117.709,367.33213,
2114.798,358.15369,
2111.888,335.21257,
2108.977,333.75,
2106.067,315.54893,
2103.156,363.41994,
2100.245,333.73118,
2097.335,307.0013,
2094.424,330.2713,
2091.514,326.24729,
2088.603,314.63021,
2085.692,323.89116,
2082.782,334.33635,
2079.871,329.64265,
2076.961,344.65218,
2074.050,324.44091,
2071.140,303.73811,
2068.229,330.83854,
2065.318,332.9845,
2062.408,325.34834,
2059.497,328.97025,
2056.587,333.62213,
2053.676,323.76722,
2050.766,330.05717,
2047.855,302.03479,
2044.944,308.69071,
2042.034,294.43794,
2039.123,323.29209,
2036.213,321.19657,
2033.302,312.31492,
2030.391,321.0214,
2027.481,315.26221,
2024.570,326.54969,
2021.660,327.80913,
2018.749,355.9522,
2015.839,333.32874,
2012.928,321.42785,
2010.017,332.45141,
2007.107,324.72569,
2004.196,311.09522,
2001.286,311.39663,
1998.375,318.53347,
1995.465,311.09732,
1992.554,304.36768,
1989.643,302.78456,
1986.733,293.94737,
1983.822,284.4051,
1980.912,304.55132,
1978.001,281.7667,
1975.090,291.55458,
1972.180,295.54254,
1969.269,288.72984,
1966.359,267.72283,
1963.448,288.77907,
1960.538,293.88094,
1957.627,281.15866,
1954.716,249.64053,
1951.806,276.79324,
1948.895,292.92415,
1945.985,267.1585,
1943.074,271.83482,
1940.164,272.27868,
1937.253,254.87617,
1934.342,255.29706,
1931.432,284.99606,
1928.521,277.42357,
1925.611,266.63309,
1922.700,289.91022,
1919.790,261.29952,
1916.879,254.81975,
1913.968,256.74754,
1911.058,311.43768,
1908.147,273.70178,
1905.237,238.76469,
1902.326,232.85963,
1899.415,203.32068,
1896.505,140.1477,
1893.594,156.56708,
1890.684,195.40989,
1887.773,253.43044,
1884.863,263.73405,
1881.952,271.60738,
1879.041,255.56827,
1876.131,242.23497,
1873.220,252.0819,
1870.310,282.52573,
1867.399,275.89394,
1864.489,244.86683,
1861.578,252.13977,
1858.667,286.24107,
1855.757,237.34785,
1852.846,252.31406,
1849.936,280.68094,
1847.025,248.46048,
1844.114,267.98543,
1841.204,318.72902,
1838.293,291.27744,
1835.383,268.19201,
1832.472,282.91348,
1829.562,289.08437,
1826.651,262.18535,
1823.740,282.32477,
1820.830,274.45849,
1817.919,267.12125,
1815.009,273.59987,
1812.098,267.5689,
1809.188,299.57938,
1806.277,273.39182,
1803.366,294.11782,
1800.456,257.07974,
1797.545,264.77827,
1794.635,283.58898,
1791.724,278.39074,
1788.813,289.54717,
1785.903,263.39741,
1782.992,203.53091,
1780.082,134.79877,
1777.171,-46.939536,
1774.261,-88.084109,
1771.350,65.525533,
1768.439,216.37173,
1765.529,284.02692,
1762.618,310.75,
1759.708,296.44551,
1756.797,308.0303,
1753.887,324.67274,
1750.976,324.87762,
1748.065,329.59332,
1745.155,336.49835,
1742.244,326.50727,
1739.334,313.58765,
1736.423,329.82661,
1733.512,329.74591,
1730.602,331.2381,
1727.691,327.37638,
1724.781,347.77414,
1721.870,360.18813,
1718.960,353.52768,
1716.049,351.75,
1713.138,375.68988,
1710.228,339.71634,
1707.317,354.09514,
1704.407,376.51474,
1701.496,365.07678,
1698.586,356.35812,
1695.675,350.13575,
1692.764,367.73771,
1689.854,344.83266,
1686.943,347.6151,
1684.033,347.75,
1681.122,412.6285,
1678.211,397.90228,
1675.301,425.66366,
1672.390,392.6842,
1669.480,371.10297,
1666.569,415.46097,
1663.659,470.43968,
1660.748,452.21276,
1657.837,475.81561,
1654.927,478.72657,
1652.016,477.7743,
1649.106,478.72552,
1646.195,478.92484,
1643.285,526.95508,
1640.374,535.68728,
1637.463,533.45257,
1634.553,572.415,
1631.642,617.20603,
1628.732,658.81518,
1625.821,669.77159,
1622.911,702.56404,
1620.000,747.18306,
1617.089,808.51617,
1614.179,848.62196,
1611.268,939.29245,
1608.358,1008.5192,
1605.447,1052.2932,
1602.536,1065.9326,
1599.626,1090.6683,
1596.715,1095.4728,
1593.805,1077.8634,
1590.894,1037.8812,
1587.984,1028.4195,
1585.073,977.55181,
1582.162,982.94306,
1579.252,955.47286,
1576.341,920.71278,
1573.431,928.63031,
1570.520,873.89297,
1567.610,876.61307,
1564.699,847.49851,
1561.788,834.45422,
1558.878,829.28789,
1555.967,775.21815,
1553.057,749.38792,
1550.146,759.5827,
1547.235,722.06584,
1544.325,730.7717,
1541.414,766.69063,
1538.504,753.25311,
1535.593,746.94903,
1532.683,734.4021,
1529.772,705.75,
1526.861,710.98027,
1523.951,719.49544,
1521.040,722.46285,
1518.130,739.77141,
1515.219,773.26981,
1512.309,771.0788,
1509.398,735.29769,
1506.487,693.50629,
1503.577,664.27688,
1500.666,688.66737,
1497.756,717.99554,
1494.845,695.4693,
1491.934,664.68071,
1489.024,643.50586,
1486.113,651.09494,
1483.203,634.87481,
1480.292,639.53809,
1477.382,670.65518,
1474.471,614.82492,
1471.560,587.04201,
1468.650,581.70018,
1465.739,570.50216,
1462.829,594.59087,
1459.918,642.37455,
1457.008,655.61142,
1454.097,637.50684,
1451.186,641.30512,
1448.276,636.29112,
1445.365,596.9293,
1442.455,594.5439,
1439.544,572.37764,
1436.633,588.26342,
1433.723,533.64047,
1430.812,501.88743,
1427.902,552.87056,
1424.991,515.90783,
1422.081,516.58495,
1419.170,525.3906,
1416.259,534.04057,
1413.349,500.25367,
1410.438,485.95088,
1407.528,478.95632,
1404.617,498.648,
1401.707,455.39667,
1398.796,395.6696,
1395.885,398.91151,
1392.975,404.83292,
1390.064,392.34188,
1387.154,405.98366,
1384.243,396.40325,
1381.332,342.87671,
1378.422,313.44068,
1375.511,346.22801,
1372.601,430.6129,
1369.690,437.75,
1366.780,479.72786,
1363.869,511.81783,
1360.958,499.94351,
1358.048,499.24299,
1355.137,534.66262,
1352.227,563.95263,
1349.316,591.46857,
1346.406,631.94312,
1343.495,622.30744,
1340.584,588.28462,
1337.674,661.46521,
1334.763,675.67943,
1331.853,673.82497,
1328.942,663.07643,
1326.032,674.79993,
1323.121,665.1536,
1320.210,728.67391,
1317.300,764.5207,
1314.389,796.07004,
1311.479,811.6433,
1308.568,819.89338,
1305.657,847.61159,
1302.747,821.34055,
1299.836,888.53868,
1296.926,876.04013,
1294.015,946.82805,
1291.105,936.54187,
1288.194,995.45447,
1285.283,1025.0701,
1282.373,1014.9297,
1279.462,1021.6713,
1276.552,1046.3642,
1273.641,1041.1493,
1270.731,1017.2187,
1267.820,1020.4934,
1264.909,976.65139,
1261.999,997.61685,
1259.088,993.96836,
1256.178,1040.8551,
1253.267,991.21034,
1250.356,963.59119,
1247.446,978.69872,
1244.535,965.49561,
1241.625,924.83152,
1238.714,916.02494,
1235.804,942.02668,
1232.893,948.25848,
1229.982,908.6461,
1227.072,876.05487,
1224.161,882.99554,
1221.251,889.96156,
1218.340,860.65503,
1215.430,861.36713,
1212.519,840.43476,
1209.608,795.97812,
1206.698,799.64379,
1203.787,819.75,
1200.877,820.8087,
1197.966,837.89272,
1195.055,873.73319,
1192.145,931.59269,
1189.234,983.13599,
1186.324,1007.2051,
1183.413,993.64338,
1180.503,1017.2913,
1177.592,1079.4766,
1174.681,983.7637,
1171.771,990.19365,
1168.860,966.08024,
1165.950,953.26824,
1163.039,968.90847,
1160.129,954.33551,
1157.218,959.90238,
1154.307,995.36486,
1151.397,1012.8398,
1148.486,1006.0958,
1145.576,1028.9768,
1142.665,988.13282,
1139.754,1033.5677,
1136.844,1025.1415,
1133.933,1006.1929,
1131.023,973.72892,
1128.112,942.89327,
1125.202,955.14125,
1122.291,1006.6166,
1119.380,984.78465,
1116.470,988.31476,
1113.559,948.54105,
1110.649,949.84691,
1107.738,950.856,
1104.828,945.75,
1101.917,946.93348,
1099.006,950.97677,
1096.096,955.88995,
1093.185,941.8419,
1090.275,968.26519,
1087.364,947.30509,
1084.453,940.37464,
1081.543,964.46994,
1078.632,982.54193,
1075.722,973.52018,
1072.811,1000.8884,
1069.901,974.69061,
1066.990,962.24169,
1064.079,977.44336,
1061.169,993.48222,
1058.258,1006.9493,
1055.348,1010.5769,
1052.437,991.4863,
1049.527,970.75699,
1046.616,996.82187,
1043.705,987.41776,
1040.795,985.02701,
1037.884,990.80738,
1034.974,988.67397,
1032.063,977.22691,
1029.153,982.28132,
1026.242,1011.6898,
1023.331,991.918,
1020.421,1038.6384,
1017.510,1054.587,
1014.600,1048.0583,
1011.689,1037.483,
1008.778,1010.2991,
1005.868,972.69594,
1002.957,966.67346,
1000.047,1010.158,
997.136,1083.1333,
994.226,1116.0578,
991.315,1107.4455,
988.404,1102.5346,
985.494,1081.0569,
982.583,1094.7618,
979.673,1063.8259,
976.762,1032.3756,
973.852,1028.4742,
970.941,1030.9694,
968.030,1010.4552,
965.120,1025.8359,
962.209,1046.2969,
959.299,1051.8747,
956.388,1068.989,
953.477,1071.0633,
950.567,1073.004,
947.656,1119.6332,
944.746,1103.4916,
941.835,1093.0322,
938.925,1110.4915,
936.014,1100.0111,
933.103,1077.6314,
930.193,1072.3517,
927.282,1065.9251,
924.372,1050.7042,
921.461,1046.5408,
918.551,1035.8741,
915.640,1030.4498,
912.729,1032.2133,
909.819,1028.8595,
906.908,1014.5383,
903.998,1029.6573,
901.087,1036.9325,
898.176,1030.1605,
895.266,1030.9068,
892.355,1058.4042,
889.445,1088.6178,
886.534,1066.2085,
883.624,1029.4541,
880.713,1029.571,
877.802,1003.063,
874.892,871.98601,
871.981,632.87718,
869.071,426.5302,
866.160,485.96443,
863.250,719.03561,
860.339,937.57071,
857.428,1018.6021,
854.518,1010.6688,
851.607,904.16394,
848.697,764.69418,
845.786,689.51032,
842.875,738.91195,
839.965,895.38675,
837.054,1030.9919,
834.144,1052.5395,
831.233,1099.4136,
828.323,1113.826,
825.412,1100.6327,
822.501,1085.8138,
819.591,1075.0706,
816.680,1096.3847,
813.770,1064.1598,
810.859,1039.945,
807.949,1037.1988,
805.038,1036.3473,
802.127,1041.2861,
799.217,1014.9159,
796.306,992.69585,
793.396,1022.4603,
790.485,1074.4316,
787.574,1036.4039,
784.664,1053.6262,
781.753,1045.3433,
778.843,1052.4921,
775.932,1066.6759,
773.022,1067.1016,
770.111,1056.4731,
767.200,1081.6346,
764.290,1065.4791,
761.379,1039.0849,
758.469,1034.3299,
755.558,1066.5312,
752.648,1059.1998,
749.737,1054.4861,
746.826,1048.0878,
743.916,1037.4447,
741.005,1018.9813,
738.095,976.76375,
735.184,872.3567,
732.274,821.70615,
729.363,832.93252,
726.452,887.17509,
723.542,955.97353,
720.631,984.97979,
717.721,1017.3824,
714.810,1034.608,
711.899,1038.9579,
708.989,1065.5865,
706.078,1052.9292,
703.168,1039.4272,
700.257,1046.7774,
697.347,1070.4453,
694.436,1083.5754,
691.525,1077.145,
688.615,1078.8946,
685.704,1066.9358,
682.794,1068.1753,
679.883,1130.5966,
676.973,1104.9527,
674.062,1110.5974,
671.151,1088.6969,
668.241,1057.0385,
665.330,1071.0525,
662.420,1077.4424,
659.509,1053.9877,
656.598,1047.9722,
653.688,1071.4023,
650.777,1111.0768,
647.867,1032.2403,
644.956,985.0308,
642.046,929.85076,
639.135,879.84609,
636.224,888.32692,
633.314,1003.448,
630.403,1042.8006,
627.493,1048.9819,
624.582,1036.626,
621.672,986.73037,
618.761,1040.2256,
615.850,1082.5445,
612.940,1111.6299,
610.029,1125.988,
607.119,1109.4058,
604.208,1127.6304,
601.297,1143.2278,
598.387,1139.5713,
595.476,1112.4185,
592.566,1119.5021,
589.655,1155.7361,
586.745,1139.5985,
583.834,1107.8034,
580.923,1157.6931,
578.013,1148.2763,
575.102,1110.7611,
572.192,1095.4685,
569.281,1117.2808,
566.371,1131.368,
563.460,1144.743,
560.549,1153.6482,
557.639,1167.9554,
554.728,1195.3066,
551.818,1188.2837,
548.907,1172.7335,
545.996,1151.3087,
543.086,1138.6283,
540.175,1170.5527,
537.265,1148.1245,
534.354,1150.7906,
531.444,1166.6512,
528.533,1178.4606,
525.622,1202.515,
522.712,1211.3905,
519.801,1183.5815,
516.891,1136.6281,
513.980,1145.9196,
511.070,1141.8196,
508.159,1168.8816,
505.248,1189.9844,
502.338,1157.9985,
499.427,1166.4887,
496.517,1180.0631,
493.606,1195.1433,
490.695,1207.3221,
487.785,1204.2429,
484.874,1207.6273,
481.964,1181.0958,
479.053,1144.4272,
476.143,1159.7864,
473.232,1155.7142,
470.321,1146.4514,
467.411,1144.0685,
464.500,1159.0131,
461.590,1129.9149,
458.679,1154.7677,
455.769,1175.1337,
452.858,1166.0788,
449.947,1217.2622,
447.037,1182.8497,
444.126,1150.053,
441.216,1148.9092,
438.305,1178.6246,
435.395,1203.7304,
432.484,1183.9103,
429.573,1122.4673,
426.663,1044.1728,
423.752,776.21786,
420.842,411.57271,
417.931,87.540152,
415.020,-1.1877473,
412.110,499.09984,
409.199,878.85981,
406.289,1063.5636,
403.378,1004.4068,
400.468,903.10352,
397.557,920.10836,
394.646,1006.8825,
391.736,1117.1987,
388.825,1162.4526,
385.915,1134.7711,
383.004,1108.744,
380.094,1135.2856,
377.183,1165.3846,
374.272,1185.6912,
371.362,1206.0515,
368.451,1230.2029,
365.541,1221.1965,
362.630,1229.1286,
359.719,1237.454,
356.809,1237.339,
353.898,1247.0734,
350.988,1254.0899,
348.077,1258.9116,
345.167,1261.2959,
342.256,1252.3311,
339.345,1249.75,
336.435,1253.3587,
333.524,1262.844,
330.614,1265.8246,
327.703,1290.88,
324.793,1299.5715,
321.882,1258.8455,
318.971,1298.248,
316.061,1313.7033,
313.150,1318.0595,
310.240,1325.4807,
307.329,1377.9185,
304.418,1396.9262,
301.508,1397.1131,
298.597,1405.9981,
295.687,1411.4907,
292.776,1419.1667,
289.866,1450.1036,
286.955,1560.9124,
284.044,1637.4699,
281.134,1719.7766,
278.223,1798.5644,
275.313,1790.459,
272.402,1823.0233,
269.492,1839.195,
266.581,1811.7113,
263.670,1685.2603,
260.760,1728.1523,
257.849,1838.4742,
254.939,1946.3549,
252.028,1923.1393,
249.117,1893.1928,
246.207,1892.0475,
243.296,1982.0881,
240.386,1986.5261,
237.475,1994.5072,
234.565,2006.1133,
231.654,1970.3245,
228.743,1952.9687,
225.833,1915.2604,
222.922,1844.5949,
220.012,1819.824,
217.101,1808.8057,
214.191,1795.6962,
211.280,1762.2329,
208.369,1740.9112,
205.459,1703.8025,
202.548,1668.8949,
199.638,1710.2569,
196.727,1706.6495,
193.816,1691.1275,
190.906,1672.7534,
187.995,1587.3185,
185.085,1616.3841,
182.174,1678.8117,
179.264,1667.9703,
176.353,1626.3809,
173.442,1621.5153,
170.532,1640.3169,
167.621,1533.6126,
164.711,1481.0995,
161.800,1405.6818,
158.890,1247.3417,
155.979,1203.4603,
153.068,1137.1064,
150.158,1041.397,
147.247,910.01175,
144.337,764.76103,
141.426,611.4568,
138.516,451.59005,
135.605,333.64744,
132.694,236.16362,
129.784,157.46105,
126.873,99.535534,
123.963,66.694405,
121.052,40.834877,
118.141,15.848307,
115.231,25.697985,
112.320,23.395461,
109.410,14.340934,
106.499,12.204469,
103.589,10.069237,
100.678,8.75,
97.767,8.75,
94.857,5.2850548,
91.946,8.9904413,
89.036,14.943633,
86.125,3.5963491,
83.215,4.9973628,
80.304,4.919077,
77.393,-6.4116419,
74.483,-0.043515464,
71.572,4.4747042,
68.662,5.6807325,
65.751,4.9742814,
62.840,5.713404,
59.930,6.5627138,
57.019,5.8576318,
54.109,0.37555237,
51.198,-1.4403443,
48.288,2.7443376,
45.377,2.0409595,
42.466,2.1622193,
39.556,2.9802372,
36.645,4.3846176,
33.735,1.6345092,
30.824,-1.9126609,
27.914,-4.0161867,
25.003,-1.7594501,
22.092,-1.8645228,
19.182,-4.8609913,
16.271,7.0303409,
13.361,53.47434,
10.450,103.05786,
7.539,58.365672,
4.629,-240.32669,
1.718,-587.93468,
-1.192,-844.48387,
-4.103,-690.69547,
-7.013,-395.74116,
-9.924,3.75,
