,PL9E2D~1,
Raman shift [1/cm],Intensity,
3014.167,2.375,
3011.256,-1.9749678,
3008.346,48.518902,
3005.435,63.912101,
3002.525,55.789989,
2999.614,54.464627,
2996.704,60.286342,
2993.793,56.012672,
2990.882,55.41312,
2987.972,68.309415,
2985.061,60.251854,
2982.151,60.210289,
2979.240,58.540391,
2976.329,82.656397,
2973.419,71.851764,
2970.508,83.308307,
2967.598,80.852912,
2964.687,83.211278,
2961.777,81.716945,
2958.866,86.388363,
2955.955,86.587366,
2953.045,97.842569,
2950.134,101.94934,
2947.224,101.20419,
2944.313,95.82443,
2941.403,97.244069,
2938.492,99.662264,
2935.581,108.82652,
2932.671,100.77413,
2929.760,92.632687,
2926.850,94.113721,
2923.939,115.2582,
2921.028,114.39275,
2918.118,103.79692,
2915.207,121.14084,
2912.297,106.4427,
2909.386,108.35311,
2906.476,103.40589,
2903.565,117.47129,
2900.654,121.0929,
2897.744,102.53844,
2894.833,114.13791,
2891.923,101.8333,
2889.012,110.91835,
2886.102,102.95879,
2883.191,86.38916,
2880.280,94.097483,
2877.370,69.462256,
2874.459,59.488267,
2871.549,80.690929,
2868.638,106.55849,
2865.727,118.42884,
2862.817,130.3897,
2859.906,108.93339,
2856.996,132.42934,
2854.085,128.29728,
2851.175,120.85091,
2848.264,120.65933,
2845.353,125.35343,
2842.443,120.38196,
2839.532,122.13615,
2836.622,137.61654,
2833.711,126.01235,
2830.801,134.6625,
2827.890,117.91696,
2824.979,122.58498,
2822.069,128.375,
2819.158,127.99495,
2816.248,116.16842,
2813.337,128.39573,
2810.427,138.76481,
2807.516,134.64125,
2804.605,137.6226,
2801.695,141.84867,
2798.784,117.07523,
2795.874,128.7998,
2792.963,138.80372,
2790.052,125.37865,
2787.142,128.53285,
2784.231,126.92313,
2781.321,126.43786,
2778.410,130.69479,
2775.500,135.375,
2772.589,130.60589,
2769.678,130.05419,
2766.768,124.12839,
2763.857,117.42895,
2760.947,127.3687,
2758.036,143.31778,
2755.126,137.12928,
2752.215,141.42026,
2749.304,148.31023,
2746.394,146.43346,
2743.483,146.52502,
2740.573,153.13389,
2737.662,145.26849,
2734.751,138.32661,
2731.841,133.05083,
2728.930,136.10815,
2726.020,132.49769,
2723.109,141.375,
2720.199,140.96244,
2717.288,148.74361,
2714.377,136.92516,
2711.467,154.98159,
2708.556,151.28995,
2705.646,135.85384,
2702.735,141.22811,
2699.825,159.39681,
2696.914,150.27953,
2694.003,161.11809,
2691.093,150.44601,
2688.182,145.48463,
2685.272,150.25124,
2682.361,156.82806,
2679.450,154.91408,
2676.540,151.47662,
2673.629,158.69786,
2670.719,160.16335,
2667.808,161.22909,
2664.898,156.59582,
2661.987,154.94168,
2659.076,158.86638,
2656.166,167.77763,
2653.255,166.63181,
2650.345,164.75068,
2647.434,151.63222,
2644.524,159.00811,
2641.613,161.57487,
2638.702,145.59593,
2635.792,159.81269,
2632.881,165.30345,
2629.971,177.35491,
2627.060,181.87531,
2624.149,181.2125,
2621.239,181.12055,
2618.328,172.39229,
2615.418,184.7568,
2612.507,175.78602,
2609.597,170.66043,
2606.686,182.98544,
2603.775,178.9742,
2600.865,178.66852,
2597.954,164.3812,
2595.044,186.35729,
2592.133,189.15206,
2589.223,179.4592,
2586.312,179.40011,
2583.401,176.74359,
2580.491,178.99035,
2577.580,167.40306,
2574.670,186.03542,
2571.759,192.02654,
2568.848,177.73404,
2565.938,193.23222,
2563.027,182.74091,
2560.117,182.73948,
2557.206,190.51153,
2554.296,195.77088,
2551.385,184.50706,
2548.474,190.96756,
2545.564,189.40666,
2542.653,196.98574,
2539.743,193.85652,
2536.832,197.64042,
2533.922,195.46962,
2531.011,199.45016,
2528.100,199.70603,
2525.190,195.67869,
2522.279,205.71843,
2519.369,196.29929,
2516.458,200.37146,
2513.548,193.13868,
2510.637,185.86686,
2507.726,193.68727,
2504.816,196.06271,
2501.905,205.49085,
2498.995,190.15135,
2496.084,204.21473,
2493.173,210.5856,
2490.263,202.8021,
2487.352,223.1246,
2484.442,215.95102,
2481.531,209.21546,
2478.621,204.07167,
2475.710,218.40567,
2472.799,219.41539,
2469.889,223.94843,
2466.978,218.169,
2464.068,201.75592,
2461.157,228.79751,
2458.247,215.28664,
2455.336,210.26738,
2452.425,209.13443,
2449.515,215.62032,
2446.604,217.72753,
2443.694,227.09624,
2440.783,235.80405,
2437.872,219.95844,
2434.962,230.90957,
2432.051,227.15294,
2429.141,227.12218,
2426.230,229.91866,
2423.320,233.53212,
2420.409,229.83663,
2417.498,231.34973,
2414.588,239.00997,
2411.677,233.62601,
2408.767,245.1811,
2405.856,259.84405,
2402.946,238.46973,
2400.035,240.0628,
2397.124,247.13971,
2394.214,238.3482,
2391.303,238.76728,
2388.393,245.58665,
2385.482,221.60873,
2382.571,234.8814,
2379.661,240.5609,
2376.750,249.74449,
2373.840,240.8844,
2370.929,240.36417,
2368.019,267.375,
2365.108,264.2127,
2362.197,260.56953,
2359.287,259.77834,
2356.376,243.40318,
2353.466,260.78426,
2350.555,257.58497,
2347.645,265.84783,
2344.734,262.91876,
2341.823,271.19258,
2338.913,269.7108,
2336.002,259.22905,
2333.092,267.44388,
2330.181,269.11158,
2327.270,273.09997,
2324.360,255.31603,
2321.449,263.31378,
2318.539,264.82148,
2315.628,265.86221,
2312.718,280.62391,
2309.807,288.82849,
2306.896,282.88674,
2303.986,283.45938,
2301.075,275.2899,
2298.165,283.75019,
2295.254,295.18111,
2292.344,270.69455,
2289.433,259.39818,
2286.522,277.18294,
2283.612,300.10588,
2280.701,277.67999,
2277.791,307.85403,
2274.880,292.37906,
2271.969,278.66718,
2269.059,290.01535,
2266.148,308.21139,
2263.238,289.6839,
2260.327,301.5473,
2257.417,294.645,
2254.506,307.16132,
2251.595,306.51681,
2248.685,308.11154,
2245.774,306.57283,
2242.864,291.98598,
2239.953,283.41643,
2237.043,290.90891,
2234.132,307.91271,
2231.221,299.375,
2228.311,317.64173,
2225.400,283.72598,
2222.490,331.48903,
2219.579,333.63977,
2216.669,339.32254,
2213.758,324.93575,
2210.847,314.59918,
2207.937,341.27562,
2205.026,335.48608,
2202.116,333.49072,
2199.205,334.03689,
2196.294,351.99498,
2193.384,331.50746,
2190.473,347.97242,
2187.563,332.40883,
2184.652,341.63418,
2181.742,360.28482,
2178.831,371.29717,
2175.920,377.28393,
2173.010,380.02466,
2170.099,380.10814,
2167.189,400.38935,
2164.278,406.04334,
2161.368,432.80292,
2158.457,458.23656,
2155.546,477.17789,
2152.636,482.16223,
2149.725,513.33471,
2146.815,505.84216,
2143.904,523.37129,
2140.993,524.38546,
2138.083,558.83396,
2135.172,543.52614,
2132.262,547.28081,
2129.351,536.96452,
2126.441,537.32648,
2123.530,514.29643,
2120.619,501.73304,
2117.709,466.63869,
2114.798,460.77108,
2111.888,449.86252,
2108.977,427.12333,
2106.067,418.16689,
2103.156,424.65401,
2100.245,386.36622,
2097.335,374.66295,
2094.424,382.99777,
2091.514,361.02289,
2088.603,366.05243,
2085.692,357.05533,
2082.782,363.27052,
2079.871,369.01794,
2076.961,375.92295,
2074.050,357.92652,
2071.140,381.93873,
2068.229,353.27343,
2065.318,370.2025,
2062.408,363.07925,
2059.497,370.4167,
2056.587,365.93344,
2053.676,360.82485,
2050.766,354.91386,
2047.855,374.63454,
2044.944,351.76922,
2042.034,363.34604,
2039.123,356.15614,
2036.213,365.16388,
2033.302,367.26623,
2030.391,345.61299,
2027.481,356.66745,
2024.570,350.20397,
2021.660,347.375,
2018.749,347.33701,
2015.839,348.39272,
2012.928,358.61661,
2010.017,351.97218,
2007.107,354.86285,
2004.196,359.5655,
2001.286,347.43511,
1998.375,343.42126,
1995.465,334.78929,
1992.554,346.27487,
1989.643,361.89111,
1986.733,339.46535,
1983.822,327.32478,
1980.912,343.17632,
1978.001,312.23956,
1975.090,311.75058,
1972.180,318.47873,
1969.269,316.50719,
1966.359,335.5374,
1963.448,338.06985,
1960.538,336.99802,
1957.627,352.53291,
1954.716,333.00699,
1951.806,343.375,
1948.895,336.99858,
1945.985,299.50245,
1943.074,321.13149,
1940.164,325.69254,
1937.253,340.07074,
1934.342,321.26378,
1931.432,316.45702,
1928.521,311.33527,
1925.611,299.60883,
1922.700,311.62085,
1919.790,311.92995,
1916.879,298.35149,
1913.968,299.37254,
1911.058,305.52514,
1908.147,281.36772,
1905.237,293.97794,
1902.326,289.21056,
1899.415,282.67134,
1896.505,293.64014,
1893.594,287.92982,
1890.684,269.375,
1887.773,275.15072,
1884.863,310.62785,
1881.952,320.00508,
1879.041,292.9238,
1876.131,328.53707,
1873.220,306.99434,
1870.310,311.65749,
1867.399,272.03074,
1864.489,328.90768,
1861.578,311.02384,
1858.667,257.44381,
1855.757,305.96927,
1852.846,309.86219,
1849.936,295.72436,
1847.025,289.90053,
1844.114,320.25034,
1841.204,334.86451,
1838.293,321.3883,
1835.383,310.6425,
1832.472,310.15413,
1829.562,300.51536,
1826.651,324.46121,
1823.740,312.89603,
1820.830,320.35153,
1817.919,317.23124,
1815.009,323.93734,
1812.098,363.07576,
1809.188,331.73167,
1806.277,357.73318,
1803.366,313.50809,
1800.456,322.74893,
1797.545,347.02036,
1794.635,351.31097,
1791.724,336.87986,
1788.813,334.97577,
1785.903,334.79556,
1782.992,329.32583,
1780.082,337.97752,
1777.171,328.70262,
1774.261,297.15479,
1771.350,305.89026,
1768.439,338.28876,
1765.529,357.83528,
1762.618,367.80307,
1759.708,359.29911,
1756.797,363.85227,
1753.887,352.50328,
1750.976,344.53011,
1748.065,354.96486,
1745.155,345.57514,
1742.244,345.63132,
1739.334,341.10441,
1736.423,346.26658,
1733.512,357.65144,
1730.602,380.57146,
1727.691,353.59794,
1724.781,348.88104,
1721.870,363.25127,
1718.960,379.53071,
1716.049,371.46833,
1713.138,376.21497,
1710.228,388.68886,
1707.317,370.91443,
1704.407,402.51409,
1701.496,363.53225,
1698.586,345.51523,
1695.675,377.1248,
1692.764,373.69467,
1689.854,418.33959,
1686.943,354.66834,
1684.033,363.1018,
1681.122,387.95019,
1678.211,391.34645,
1675.301,404.33492,
1672.390,375.53351,
1669.480,428.48731,
1666.569,442.09569,
1663.659,420.76698,
1660.748,444.47141,
1657.837,449.89987,
1654.927,473.65615,
1652.016,484.37874,
1649.106,445.25632,
1646.195,479.70366,
1643.285,453.71941,
1640.374,511.04051,
1637.463,495.98749,
1634.553,529.22722,
1631.642,519.375,
1628.732,519.33352,
1625.821,512.40182,
1622.911,553.14396,
1620.000,630.3923,
1617.089,631.375,
1614.179,706.20352,
1611.268,738.22248,
1608.358,774.64255,
1605.447,785.80365,
1602.536,836.6969,
1599.626,847.73446,
1596.715,833.85338,
1593.805,806.43937,
1590.894,865.02191,
1587.984,846.52615,
1585.073,825.35866,
1582.162,821.54011,
1579.252,809.91878,
1576.341,794.55799,
1573.431,813.30388,
1570.520,778.09864,
1567.610,743.02171,
1564.699,752.05069,
1561.788,751.33281,
1558.878,740.18184,
1555.967,715.23373,
1553.057,689.70273,
1550.146,675.22956,
1547.235,651.3039,
1544.325,635.11287,
1541.414,653.89718,
1538.504,652.87811,
1535.593,624.17597,
1532.683,595.83681,
1529.772,571.63132,
1526.861,557.32843,
1523.951,565.12919,
1521.040,584.3296,
1518.130,566.72261,
1515.219,582.61536,
1512.309,580.03719,
1509.398,601.21164,
1506.487,563.04474,
1503.577,529.63664,
1500.666,553.59153,
1497.756,547.68012,
1494.845,551.375,
1491.934,551.19862,
1489.024,497.29902,
1486.113,519.4826,
1483.203,497.39447,
1480.292,485.88989,
1477.382,487.60799,
1474.471,493.74665,
1471.560,519.32198,
1468.650,487.37858,
1465.739,460.68912,
1462.829,416.98505,
1459.918,431.25933,
1457.008,479.60596,
1454.097,486.98047,
1451.186,464.23574,
1448.276,430.35417,
1445.365,413.44767,
1442.455,420.99537,
1439.544,412.36778,
1436.633,453.87053,
1433.723,461.02829,
1430.812,397.14818,
1427.902,419.0593,
1424.991,405.79063,
1422.081,457.67119,
1419.170,407.07514,
1416.259,381.36368,
1413.349,386.43789,
1410.438,399.87169,
1407.528,344.50702,
1404.617,347.18982,
1401.707,405.76125,
1398.796,381.09193,
1395.885,335.25701,
1392.975,358.85427,
1390.064,346.30507,
1387.154,302.80473,
1384.243,281.61401,
1381.332,227.12559,
1378.422,283.16229,
1375.511,317.82318,
1372.601,384.72806,
1369.690,419.52056,
1366.780,437.8396,
1363.869,450.8192,
1360.958,499.92992,
1358.048,494.89603,
1355.137,501.13352,
1352.227,539.47313,
1349.316,580.31591,
1346.406,611.26601,
1343.495,612.58235,
1340.584,647.76797,
1337.674,640.4822,
1334.763,642.99812,
1331.853,685.65075,
1328.942,714.05892,
1326.032,705.95631,
1323.121,761.17023,
1320.210,767.39066,
1317.300,792.24753,
1314.389,771.20749,
1311.479,762.26797,
1308.568,822.77132,
1305.657,844.17,
1302.747,808.95967,
1299.836,810.13182,
1296.926,859.44323,
1294.015,882.42631,
1291.105,952.05726,
1288.194,990.92849,
1285.283,1009.831,
1282.373,1022.6015,
1279.462,1040.0022,
1276.552,1068.4932,
1273.641,1089.375,
1270.731,1087.0228,
1267.820,1095.0858,
1264.909,1146.6497,
1261.999,1140.2765,
1259.088,1110.1765,
1256.178,1117.796,
1253.267,1117.0734,
1250.356,1077.0943,
1247.446,1034.9059,
1244.535,1010.942,
1241.625,1009.4305,
1238.714,1025.225,
1235.804,1027.2683,
1232.893,977.87885,
1229.982,960.06836,
1227.072,951.01524,
1224.161,911.71183,
1221.251,905.86402,
1218.340,871.39315,
1215.430,863.38571,
1212.519,877.80811,
1209.608,865.94747,
1206.698,853.05636,
1203.787,912.28455,
1200.877,907.26653,
1197.966,921.65308,
1195.055,938.58672,
1192.145,940.62366,
1189.234,950.10689,
1186.324,994.10599,
1183.413,1039.6237,
1180.503,1038.5005,
1177.592,1003.8397,
1174.681,1005.6284,
1171.771,1007.4368,
1168.860,1010.1161,
1165.950,1004.731,
1163.039,965.66125,
1160.129,975.91848,
1157.218,990.52911,
1154.307,981.55167,
1151.397,971.28957,
1148.486,959.23088,
1145.576,926.30238,
1142.665,970.69802,
1139.754,928.81179,
1136.844,936.58287,
1133.933,964.31621,
1131.023,960.90745,
1128.112,938.16118,
1125.202,934.54891,
1122.291,941.12433,
1119.380,939.82539,
1116.470,985.71686,
1113.559,983.64251,
1110.649,994.47191,
1107.738,999.76755,
1104.828,996.2945,
1101.917,993.67087,
1099.006,994.90076,
1096.096,997.21374,
1093.185,994.57973,
1090.275,990.32865,
1087.364,994.86398,
1084.453,983.31339,
1081.543,976.31899,
1078.632,984.50894,
1075.722,984.41676,
1072.811,956.11246,
1069.901,980.56377,
1066.990,997.7333,
1064.079,993.20883,
1061.169,1001.5256,
1058.258,1013.4924,
1055.348,1019.3146,
1052.437,1033.7545,
1049.527,1071.7442,
1046.616,1081.3014,
1043.705,1093.9365,
1040.795,1076.9429,
1037.884,1075.4898,
1034.974,1090.2165,
1032.063,1095.5136,
1029.153,1086.6866,
1026.242,1089.2815,
1023.331,1096.8745,
1020.421,1118.5909,
1017.510,1130.1764,
1014.600,1123.4935,
1011.689,1121.6375,
1008.778,1147.9614,
1005.868,1151.9001,
1002.957,1210.4042,
1000.047,1263.783,
997.136,1290.9469,
994.226,1288.1136,
991.315,1271.4171,
988.404,1259.2945,
985.494,1243.4901,
982.583,1248.6294,
979.673,1224.499,
976.762,1232.401,
973.852,1240.3969,
970.941,1246.3411,
968.030,1268.768,
965.120,1248.3356,
962.209,1238.9577,
959.299,1233.1255,
956.388,1219.0558,
953.477,1222.5279,
950.567,1252.6162,
947.656,1279.1387,
944.746,1239.2096,
941.835,1275.4362,
938.925,1285.6911,
936.014,1267.1536,
933.103,1261.0864,
930.193,1271.191,
927.282,1218.7875,
924.372,1226.3979,
921.461,1206.7558,
918.551,1198.2131,
915.640,1203.3242,
912.729,1201.1775,
909.819,1173.7086,
906.908,1176.2359,
903.998,1188.3055,
901.087,1181.8274,
898.176,1197.3716,
895.266,1232.7536,
892.355,1261.888,
889.445,1275.3162,
886.534,1254.5032,
883.624,1292.0906,
880.713,1291.9608,
877.802,1265.7746,
874.892,1249.8819,
871.981,1234.9077,
869.071,1257.4638,
866.160,1264.8248,
863.250,1271.0928,
860.339,1266.0677,
857.428,1247.0793,
854.518,1237.7842,
851.607,1251.9294,
848.697,1239.243,
845.786,1225.6284,
842.875,1229.5119,
839.965,1252.8654,
837.054,1272.8819,
834.144,1228.958,
831.233,1247.7064,
828.323,1250.4944,
825.412,1249.6778,
822.501,1265.5663,
819.591,1233.3368,
816.680,1223.5609,
813.770,1216.363,
810.859,1202.5452,
807.949,1195.9897,
805.038,1210.0896,
802.127,1182.9264,
799.217,1173.6665,
796.306,1175.348,
793.396,1179.543,
790.485,1184.1125,
787.574,1194.2816,
784.664,1191.8213,
781.753,1214.8594,
778.843,1190.599,
775.932,1178.0659,
773.022,1228.5567,
770.111,1197.4887,
767.200,1233.4406,
764.290,1208.3908,
761.379,1194.7665,
758.469,1210.3526,
755.558,1190.8887,
752.648,1174.5967,
749.737,1131.5549,
746.826,1122.4967,
743.916,1112.3617,
741.005,1034.9686,
738.095,898.57326,
735.184,747.22872,
732.274,723.87705,
729.363,805.84433,
726.452,944.657,
723.542,1117.8672,
720.631,1163.3083,
717.721,1174.375,
714.810,1193.7896,
711.899,1222.3651,
708.989,1209.4543,
706.078,1206.9711,
703.168,1207.5894,
700.257,1193.1098,
697.347,1181.1566,
694.436,1215.3275,
691.525,1176.7449,
688.615,1168.375,
685.704,1176.5772,
682.794,1197.2047,
679.883,1228.582,
676.973,1210.9519,
674.062,1188.2325,
671.151,1195.3465,
668.241,1212.657,
665.330,1195.0557,
662.420,1209.4329,
659.509,1213.0099,
656.598,1205.5855,
653.688,1188.4737,
650.777,1167.2112,
647.867,1221.3615,
644.956,1203.0366,
642.046,1181.4728,
639.135,1184.9209,
636.224,1213.4148,
633.314,1221.3542,
630.403,1199.7266,
627.493,1199.5061,
624.582,1220.431,
621.672,1198.2552,
618.761,1239.9316,
615.850,1238.4983,
612.940,1238.3287,
610.029,1257.9554,
607.119,1237.425,
604.208,1273.7157,
601.297,1263.4521,
598.387,1239.6681,
595.476,1245.6721,
592.566,1248.8204,
589.655,1231.882,
586.745,1221.0731,
583.834,1218.4967,
580.923,1215.0338,
578.013,1158.533,
575.102,1145.6694,
572.192,1170.9558,
569.281,1208.7352,
566.371,1182.9086,
563.460,1230.4632,
560.549,1248.4513,
557.639,1248.5978,
554.728,1258.3112,
551.818,1273.1372,
548.907,1270.2809,
545.996,1275.7059,
543.086,1291.7171,
540.175,1297.9463,
537.265,1303.445,
534.354,1280.7922,
531.444,1258.8829,
528.533,1265.2646,
525.622,1263.7127,
522.712,1326.4773,
519.801,1337.2065,
516.891,1293.8527,
513.980,1320.953,
511.070,1326.8967,
508.159,1337.9263,
505.248,1354.8844,
502.338,1374.8042,
499.427,1389.4691,
496.517,1417.6982,
493.606,1419.5504,
490.695,1392.6871,
487.785,1438.1047,
484.874,1416.9411,
481.964,1413.0028,
479.053,1420.7337,
476.143,1384.6394,
473.232,1406.8347,
470.321,1427.0797,
467.411,1430.7772,
464.500,1408.6853,
461.590,1420.9371,
458.679,1417.7715,
455.769,1417.416,
452.858,1423.2052,
449.947,1373.5497,
447.037,1423.4443,
444.126,1462.7447,
441.216,1462.449,
438.305,1457.1155,
435.395,1441.2954,
432.484,1438.7928,
429.573,1442.47,
426.663,1425.7469,
423.752,1413.2163,
420.842,1418.4221,
417.931,1432.7452,
415.020,1441.0871,
412.110,1441.375,
409.199,1469.2478,
406.289,1492.9635,
403.378,1476.2597,
400.468,1442.24,
397.557,1451.4268,
394.646,1464.1801,
391.736,1446.0953,
388.825,1406.1211,
385.915,1362.9756,
383.004,1344.5124,
380.094,1368.6418,
377.183,1393.4736,
374.272,1437.8268,
371.362,1473.2013,
368.451,1485.2928,
365.541,1533.3271,
362.630,1554.5686,
359.719,1554.8637,
356.809,1539.7375,
353.898,1545.7279,
350.988,1570.1594,
348.077,1570.208,
345.167,1523.4885,
342.256,1525.7297,
339.345,1531.1579,
336.435,1546.2011,
333.524,1573.9757,
330.614,1561.3081,
327.703,1553.2678,
324.793,1543.4458,
321.882,1526.5102,
318.971,1582.2684,
316.061,1575.9827,
313.150,1543.3703,
310.240,1524.0752,
307.329,1569.8264,
304.418,1584.7274,
301.508,1571.5134,
298.597,1538.1947,
295.687,1435.1434,
292.776,1416.9585,
289.866,1476.5908,
286.955,1563.0217,
284.044,1625.3424,
281.134,1691.0335,
278.223,1758.764,
275.313,1795.6068,
272.402,1850.4282,
269.492,1866.9481,
266.581,1831.477,
263.670,1860.8842,
260.760,1892.8822,
257.849,1907.9593,
254.939,1889.6123,
252.028,1888.6512,
249.117,1887.4613,
246.207,1885.4279,
243.296,1881.7678,
240.386,1879.416,
237.475,1867.6178,
234.565,1839.6768,
231.654,1771.7512,
228.743,1767.7316,
225.833,1789.4002,
222.922,1819.2007,
220.012,1772.5731,
217.101,1746.5793,
214.191,1723.1356,
211.280,1682.3977,
208.369,1667.2644,
205.459,1672.1548,
202.548,1689.0017,
199.638,1692.63,
196.727,1712.9663,
193.816,1736.4057,
190.906,1755.8513,
187.995,1712.4098,
185.085,1704.4678,
182.174,1706.3026,
179.264,1683.8969,
176.353,1723.0256,
173.442,1750.3631,
170.532,1750.1504,
167.621,1688.1465,
164.711,1674.0028,
161.800,1643.4425,
158.890,1546.999,
155.979,1477.3274,
153.068,1365.4428,
150.158,1218.8462,
147.247,1068.7942,
144.337,884.25475,
141.426,699.78351,
138.516,531.31407,
135.605,366.54825,
132.694,242.58376,
129.784,155.06164,
126.873,102.14203,
123.963,78.855457,
121.052,59.743166,
118.141,35.470499,
115.231,36.796141,
112.320,31.444097,
109.410,23.647711,
106.499,25.072021,
103.589,23.694237,
100.678,17.757431,
97.767,5.6714922,
94.857,8.1469562,
91.946,10.181222,
89.036,11.375,
86.125,11.375,
83.215,9.7822389,
80.304,11.00876,
77.393,18.798629,
74.483,8.8928407,
71.572,3.7373521,
68.662,4.0286625,
65.751,0.49640711,
62.840,3.7103179,
59.930,8.0004276,
57.019,6.5902636,
54.109,5.1806783,
51.198,5.5814371,
48.288,8.3466878,
45.377,4.8297975,
42.466,3.375,
39.556,2.9145257,
36.645,0.10576483,
33.735,-1.6634969,
30.824,-3.0667739,
27.914,-4.4691244,
25.003,2.2240122,
22.092,4.4375727,
19.182,0.375,
16.271,0.375,
13.361,-0.46791595,
10.450,-31.55225,
7.539,-205.43278,
4.629,-400.35924,
1.718,-603.91485,
-1.192,-810.26963,
-4.103,-559.52771,
-7.013,-264.79248,
-9.924,0.375,
