,PL1FD2~1,
Raman shift [1/cm],Intensity,
3014.167,4.875,
3011.256,-0.52508589,
3008.346,338.3152,
3005.435,394.95274,
3002.525,429.78272,
2999.614,430.02304,
2996.704,444.72551,
2993.793,441.83814,
2990.882,468.18035,
2987.972,475.0213,
2985.061,491.01784,
2982.151,519.78932,
2979.240,513.40731,
2976.329,546.67551,
2973.419,560.42879,
2970.508,573.97494,
2967.598,574.9742,
2964.687,599.26291,
2961.777,601.875,
2958.866,635.54068,
2955.955,645.22233,
2953.045,661.81014,
2950.134,688.21614,
2947.224,691.18816,
2944.313,700.97614,
2941.403,718.99452,
2938.492,730.64196,
2935.581,753.46641,
2932.671,751.31708,
2929.760,770.96348,
2926.850,795.9344,
2923.939,803.7582,
2921.028,789.79262,
2918.118,836.01227,
2915.207,820.93838,
2912.297,819.90039,
2909.386,847.0283,
2906.476,827.06882,
2903.565,834.45574,
2900.654,827.98118,
2897.744,817.91272,
2894.833,817.98846,
2891.923,822.7949,
2889.012,807.70159,
2886.102,812.9615,
2883.191,817.8599,
2880.280,804.31997,
2877.370,774.67154,
2874.459,768.97586,
2871.549,814.23035,
2868.638,864.743,
2865.727,835.59416,
2862.817,833.27342,
2859.906,854.90064,
2856.996,856.90217,
2854.085,857.03678,
2851.175,868.92318,
2848.264,854.53651,
2845.353,874.16329,
2842.443,839.87848,
2839.532,858.60621,
2836.622,842.20638,
2833.711,816.04609,
2830.801,828.75221,
2827.890,831.91343,
2824.979,834.49287,
2822.069,843.89774,
2819.158,845.11489,
2816.248,844.62211,
2813.337,858.2872,
2810.427,841.09539,
2807.516,865.33515,
2804.605,861.83173,
2801.695,862.92765,
2798.784,841.16662,
2795.874,856.15468,
2792.963,856.08915,
2790.052,842.87714,
2787.142,837.58554,
2784.231,831.77874,
2781.321,844.1893,
2778.410,843.06537,
2775.500,838.70431,
2772.589,838.2993,
2769.678,860.12413,
2766.768,865.4983,
2763.857,868.40294,
2760.947,885.39706,
2758.036,866.84939,
2755.126,886.11432,
2752.215,883.40682,
2749.304,889.98111,
2746.394,899.72176,
2743.483,910.02497,
2740.573,892.80853,
2737.662,887.53477,
2734.751,879.52554,
2731.841,898.2816,
2728.930,928.03616,
2726.020,910.09954,
2723.109,911.875,
2720.199,922.38434,
2717.288,927.3312,
2714.377,935.5832,
2711.467,935.00578,
2708.556,945.61984,
2705.646,943.25529,
2702.735,945.72295,
2699.825,948.13677,
2696.914,967.44731,
2694.003,955.74655,
2691.093,949.96406,
2688.182,947.69352,
2685.272,945.91056,
2682.361,967.33352,
2679.450,979.75155,
2676.540,996.96042,
2673.629,957.18888,
2670.719,965.23267,
2667.808,980.09683,
2664.898,950.62791,
2661.987,960.80816,
2659.076,992.28015,
2656.166,994.27763,
2653.255,995.53827,
2650.345,1003.3069,
2647.434,1014.7324,
2644.524,1022.3306,
2641.613,1030.8467,
2638.702,1005.3642,
2635.792,1033.1881,
2632.881,1024.8334,
2629.971,1018.385,
2627.060,1030.8731,
2624.149,1033.0125,
2621.239,1026.1413,
2618.328,1033.5532,
2615.418,1049.2068,
2612.507,1047.3928,
2609.597,1068.5796,
2606.686,1079.0577,
2603.775,1063.8393,
2600.865,1117.6294,
2597.954,1084.9708,
2595.044,1092.8219,
2592.133,1087.7538,
2589.223,1073.3087,
2586.312,1097.8297,
2583.401,1127.7108,
2580.491,1120.3558,
2577.580,1115.8667,
2574.670,1110.0448,
2571.759,1120.5368,
2568.848,1123.4661,
2565.938,1131.4464,
2563.027,1140.5341,
2560.117,1146.2395,
2557.206,1142.2588,
2554.296,1141.3304,
2551.385,1140.8831,
2548.474,1140.7267,
2545.564,1146.5584,
2542.653,1147.5059,
2539.743,1173.7395,
2536.832,1163.7311,
2533.922,1174.1746,
2531.011,1185.4506,
2528.100,1179.2026,
2525.190,1196.409,
2522.279,1198.0157,
2519.369,1201.1769,
2516.458,1177.9692,
2513.548,1197.7108,
2510.637,1168.6417,
2507.726,1207.1278,
2504.816,1193.8119,
2501.905,1206.9183,
2498.995,1223.0237,
2496.084,1212.2723,
2493.173,1242.2694,
2490.263,1212.1337,
2487.352,1252.0837,
2484.442,1252.6031,
2481.531,1236.6091,
2478.621,1243.3916,
2475.710,1255.8903,
2472.799,1258.8615,
2469.889,1257.5121,
2466.978,1256.4832,
2464.068,1284.6899,
2461.157,1278.9076,
2458.247,1259.4192,
2455.336,1271.4914,
2452.425,1290.8137,
2449.515,1268.2347,
2446.604,1318.7598,
2443.694,1316.0378,
2440.783,1305.5394,
2437.872,1336.2761,
2434.962,1336.6308,
2432.051,1330.7952,
2429.141,1342.0634,
2426.230,1356.506,
2423.320,1354.9029,
2420.409,1367.8817,
2417.498,1338.8918,
2414.588,1360.2171,
2411.677,1358.4846,
2408.767,1373.3573,
2405.856,1377.7869,
2402.946,1377.6069,
2400.035,1402.544,
2397.124,1415.2921,
2394.214,1390.009,
2391.303,1405.0627,
2388.393,1429.1145,
2385.482,1417.4478,
2382.571,1434.0652,
2379.661,1428.2238,
2376.750,1444.2937,
2373.840,1459.7187,
2370.929,1445.0591,
2368.019,1497.7075,
2365.108,1486.1054,
2362.197,1477.4146,
2359.287,1493.5981,
2356.376,1497.8838,
2353.466,1459.7824,
2350.555,1493.3553,
2347.645,1469.9837,
2344.734,1506.9166,
2341.823,1510.1072,
2338.913,1530.7899,
2336.002,1515.9539,
2333.092,1532.4495,
2330.181,1546.6653,
2327.270,1566.8299,
2324.360,1544.7995,
2321.449,1545.6301,
2318.539,1567.4927,
2315.628,1557.5313,
2312.718,1572.0732,
2309.807,1607.1236,
2306.896,1592.5917,
2303.986,1588.1413,
2301.075,1595.7899,
2298.165,1583.4998,
2295.254,1595.5519,
2292.344,1600.2899,
2289.433,1616.485,
2286.522,1623.4373,
2283.612,1622.4834,
2280.701,1618.0678,
2277.791,1614.0772,
2274.880,1643.517,
2271.969,1660.5746,
2269.059,1691.1366,
2266.148,1696.1455,
2263.238,1694.0758,
2260.327,1722.7024,
2257.417,1713.28,
2254.506,1722.5473,
2251.595,1718.4349,
2248.685,1739.6596,
2245.774,1719.5457,
2242.864,1750.8201,
2239.953,1774.0958,
2237.043,1765.2782,
2234.132,1773.5711,
2231.221,1793.6141,
2228.311,1788.0876,
2225.400,1780.9727,
2222.490,1830.5723,
2219.579,1881.1912,
2216.669,1888.3345,
2213.758,1913.1822,
2210.847,1908.9783,
2207.937,1920.2642,
2205.026,1946.9849,
2202.116,1989.0523,
2199.205,2030.9614,
2196.294,2052.189,
2193.384,2089.2421,
2190.473,2122.0346,
2187.563,2207.4164,
2184.652,2331.2252,
2181.742,2427.7647,
2178.831,2568.3812,
2175.920,2757.3869,
2173.010,2976.587,
2170.099,3239.385,
2167.189,3458.1425,
2164.278,3801.8087,
2161.368,4038.7245,
2158.457,4304.7471,
2155.546,4565.5512,
2152.636,4775.1193,
2149.725,4940.2239,
2146.815,5075.0042,
2143.904,5209.165,
2140.993,5180.6846,
2138.083,5151.1912,
2135.172,5103.5471,
2132.262,5012.7764,
2129.351,4845.5156,
2126.441,4677.6513,
2123.530,4517.7884,
2120.619,4210.6471,
2117.709,3923.6894,
2114.798,3662.3472,
2111.888,3396.3314,
2108.977,3139.6233,
2106.067,2927.0248,
2103.156,2755.9384,
2100.245,2607.8349,
2097.335,2530.7494,
2094.424,2427.2158,
2091.514,2379.9931,
2088.603,2305.1747,
2085.692,2248.9606,
2082.782,2243.6501,
2079.871,2232.91,
2076.961,2195.2644,
2074.050,2195.8871,
2071.140,2149.3124,
2068.229,2111.5078,
2065.318,2122.7645,
2062.408,2104.3289,
2059.497,2079.8869,
2056.587,2079.6193,
2053.676,2047.6602,
2050.766,2051.0282,
2047.855,1998.1883,
2044.944,2007.2789,
2042.034,1994.505,
2039.123,2000.4777,
2036.213,2025.1061,
2033.302,2035.9183,
2030.391,2043.6547,
2027.481,2044.8506,
2024.570,2025.647,
2021.660,2037.8698,
2018.749,2015.7868,
2015.839,2039.6821,
2012.928,2045.1049,
2010.017,2037.4342,
2007.107,2023.2245,
2004.196,2021.7321,
2001.286,2032.7937,
1998.375,2033.437,
1995.465,2024.1554,
1992.554,2023.7515,
1989.643,2013.2552,
1986.733,1998.0355,
1983.822,1997.4895,
1980.912,1980.2911,
1978.001,1985.9177,
1975.090,1983.2353,
1972.180,1986.8072,
1969.269,1993.6883,
1966.359,1997.1992,
1963.448,1987.9529,
1960.538,1991.7441,
1957.627,2015.166,
1954.716,1987.7655,
1951.806,1984.633,
1948.895,1962.2778,
1945.985,1975.143,
1943.074,1987.5946,
1940.164,1980.8268,
1937.253,1957.8231,
1934.342,1950.4477,
1931.432,1975.6163,
1928.521,1974.2377,
1925.611,1959.6673,
1922.700,1936.2977,
1919.790,1949.8228,
1916.879,1987.2943,
1913.968,1983.8824,
1911.058,1963.875,
1908.147,1960.5538,
1905.237,1942.6471,
1902.326,1957.0839,
1899.415,1942.4091,
1896.505,1930.1884,
1893.594,1944.061,
1890.684,1954.9794,
1887.773,1974.6077,
1884.863,1953.5515,
1881.952,1947.1524,
1879.041,1965.0048,
1876.131,1943.8149,
1873.220,1957.9238,
1870.310,1943.2383,
1867.399,1953.6831,
1864.489,1995.1865,
1861.578,1997.4578,
1858.667,1946.0486,
1855.757,1958.455,
1852.846,1979.116,
1849.936,1977.8049,
1847.025,1991.8142,
1844.114,2011.3362,
1841.204,2024.1687,
1838.293,2010.3925,
1835.383,2014.6305,
1832.472,2029.8402,
1829.562,2051.6779,
1826.651,2060.8237,
1823.740,2059.147,
1820.830,2054.245,
1817.919,2031.7012,
1815.009,2094.5175,
1812.098,2068.1742,
1809.188,2072.3168,
1806.277,2066.0299,
1803.366,2061.3907,
1800.456,2092.5345,
1797.545,2105.3501,
1794.635,2121.036,
1791.724,2132.8361,
1788.813,2153.4758,
1785.903,2164.3168,
1782.992,2180.3399,
1780.082,2155.2015,
1777.171,2149.1973,
1774.261,2114.0801,
1771.350,2154.1605,
1768.439,2209.0892,
1765.529,2218.7833,
1762.618,2224.5038,
1759.708,2229.2336,
1756.797,2206.2008,
1753.887,2235.3138,
1750.976,2257.0818,
1748.065,2286.3558,
1745.155,2271.5527,
1742.244,2275.6983,
1739.334,2291.6138,
1736.423,2322.5497,
1733.512,2323.9603,
1730.602,2313.8909,
1727.691,2324.1576,
1724.781,2395.5206,
1721.870,2420.3131,
1718.960,2399.6747,
1716.049,2435.1458,
1713.138,2460.8299,
1710.228,2446.4691,
1707.317,2428.8373,
1704.407,2478.982,
1701.496,2491.2558,
1698.586,2539.9222,
1695.675,2529.8394,
1692.764,2583.7849,
1689.854,2576.3514,
1686.943,2627.0875,
1684.033,2562.5639,
1681.122,2633.6176,
1678.211,2668.5514,
1675.301,2779.5327,
1672.390,2793.0245,
1669.480,2843.4847,
1666.569,2918.8369,
1663.659,2917.3776,
1660.748,3009.6875,
1657.837,3103.3621,
1654.927,3169.9219,
1652.016,3173.9647,
1649.106,3257.7771,
1646.195,3256.1767,
1643.285,3350.9232,
1640.374,3398.53,
1637.463,3524.118,
1634.553,3592.939,
1631.642,3666.8718,
1628.732,3940.8645,
1625.821,4106.9875,
1622.911,4277.9058,
1620.000,4518.8135,
1617.089,4773.7606,
1614.179,4997.5298,
1611.268,5276.3537,
1608.358,5540.4201,
1605.447,5727.305,
1602.536,5804.039,
1599.626,5866.8308,
1596.715,5909.0866,
1593.805,5816.2872,
1590.894,5813.6817,
1587.984,5766.3738,
1585.073,5721.4391,
1582.162,5724.0587,
1579.252,5666.9573,
1576.341,5641.859,
1573.431,5634.9591,
1570.520,5633.1106,
1567.610,5608.2864,
1564.699,5599.875,
1561.788,5543.5375,
1558.878,5425.6537,
1555.967,5333.6465,
1553.057,5296.1165,
1550.146,5166.5807,
1547.235,5048.5521,
1544.325,4978.0256,
1541.414,4909.6912,
1538.504,4872.1956,
1535.593,4855.1629,
1532.683,4763.481,
1529.772,4655.9377,
1526.861,4591.4002,
1523.951,4496.2754,
1521.040,4443.9127,
1518.130,4399.8176,
1515.219,4344.9553,
1512.309,4330.1678,
1509.398,4278.925,
1506.487,4161.9843,
1503.577,4238.1438,
1500.666,4196.4806,
1497.756,4127.968,
1494.845,4104.1546,
1491.934,4086.3774,
1489.024,3934.3035,
1486.113,3918.6756,
1483.203,3885.0128,
1480.292,3844.389,
1477.382,3848.3822,
1474.471,3859.3162,
1471.560,3773.3437,
1468.650,3759.6899,
1465.739,3702.264,
1462.829,3691.135,
1459.918,3688.9853,
1457.008,3711.9678,
1454.097,3731.8508,
1451.186,3710.875,
1448.276,3724.8958,
1445.365,3752.0898,
1442.455,3753.1353,
1439.544,3728.4526,
1436.633,3707.9346,
1433.723,3744.8107,
1430.812,3603.4317,
1427.902,3597.9201,
1424.991,3599.8156,
1422.081,3567.7633,
1419.170,3537.2251,
1416.259,3591.1995,
1413.349,3532.3719,
1410.438,3480.8838,
1407.528,3486.8998,
1404.617,3488.0681,
1401.707,3511.0217,
1398.796,3547.2596,
1395.885,3574.5838,
1392.975,3594.3957,
1390.064,3595.4669,
1387.154,3586.9109,
1384.243,3505.7354,
1381.332,3477.5895,
1378.422,3611.9902,
1375.511,3769.3694,
1372.601,3838.2281,
1369.690,3948.4561,
1366.780,4008.6449,
1363.869,4075.0873,
1360.958,4125.5847,
1358.048,4201.9861,
1355.137,4292.7636,
1352.227,4373.019,
1349.316,4452.8138,
1346.406,4533.2268,
1343.495,4595.5737,
1340.584,4653.9811,
1337.674,4726.3791,
1334.763,4792.4035,
1331.853,4885.1266,
1328.942,4920.8957,
1326.032,4970.5498,
1323.121,5109.8028,
1320.210,5194.8302,
1317.300,5214.2848,
1314.389,5274.5151,
1311.479,5348.9137,
1308.568,5425.8312,
1305.657,5530.8989,
1302.747,5582.843,
1299.836,5725.5974,
1296.926,5797.1899,
1294.015,5997.6025,
1291.105,6115.9427,
1288.194,6262.6676,
1285.283,6425.4716,
1282.373,6558.5075,
1279.462,6676.1482,
1276.552,6784.0484,
1273.641,6856.6797,
1270.731,6895.8705,
1267.820,6923.5654,
1264.909,6879.3023,
1261.999,6788.8403,
1259.088,6815.2919,
1256.178,6681.5549,
1253.267,6552.2348,
1250.356,6385.1015,
1247.446,6225.2385,
1244.535,6043.9021,
1241.625,5847.5382,
1238.714,5669.7162,
1235.804,5506.5451,
1232.893,5381.5145,
1229.982,5312.2567,
1227.072,5205.4298,
1224.161,5118.8676,
1221.251,5032.4021,
1218.340,4939.2069,
1215.430,4867.1913,
1212.519,4801.7487,
1209.608,4755.1031,
1206.698,4763.3646,
1203.787,4794.5383,
1200.877,4785.2183,
1197.966,4839.1678,
1195.055,4954.5038,
1192.145,5067.0416,
1189.234,5154.9687,
1186.324,5260.6094,
1183.413,5319.7836,
1180.503,5321.9456,
1177.592,5299.7227,
1174.681,5189.0291,
1171.771,5202.1235,
1168.860,5126.2109,
1165.950,5086.6234,
1163.039,5039.066,
1160.129,5004.7692,
1157.218,4941.4362,
1154.307,4872.1471,
1151.397,4829.0634,
1148.486,4764.9326,
1145.576,4717.6007,
1142.665,4665.2138,
1139.754,4651.9251,
1136.844,4581.2453,
1133.933,4557.7401,
1131.023,4520.3306,
1128.112,4472.8037,
1125.202,4459.2808,
1122.291,4424.7551,
1119.380,4438.2907,
1116.470,4480.6521,
1113.559,4533.8164,
1110.649,4545.2556,
1107.738,4578.1674,
1104.828,4556.2787,
1101.917,4493.047,
1099.006,4515.7513,
1096.096,4519.8212,
1093.185,4518.9432,
1090.275,4537.4882,
1087.364,4482.1823,
1084.453,4472.8739,
1081.543,4476.3577,
1078.632,4452.8464,
1075.722,4428.4302,
1072.811,4420.4191,
1069.901,4456.2228,
1066.990,4512.2249,
1064.079,4531.6801,
1061.169,4582.9252,
1058.258,4640.9319,
1055.348,4673.93,
1052.437,4706.9459,
1049.527,4787.2302,
1046.616,4744.6576,
1043.705,4768.3933,
1040.795,4829.2324,
1037.884,4862.9209,
1034.974,4862.0335,
1032.063,4855.7826,
1029.153,4861.4596,
1026.242,4857.9997,
1023.331,4897.8724,
1020.421,4936.5475,
1017.510,4966.123,
1014.600,5019.8992,
1011.689,5095.8299,
1008.778,5157.1641,
1005.868,5224.7515,
1002.957,5433.8176,
1000.047,5673.3551,
997.136,5861.2922,
994.226,5960.2901,
991.315,5946.9914,
988.404,5853.7673,
985.494,5840.8803,
982.583,5751.7984,
979.673,5669.3686,
976.762,5639.7653,
973.852,5634.6649,
970.941,5635.1352,
968.030,5653.5457,
965.120,5713.832,
962.209,5703.6015,
959.299,5667.1708,
956.388,5677.5134,
953.477,5666.87,
950.567,5628.0578,
947.656,5648.2308,
944.746,5711.9475,
941.835,5655.7586,
938.925,5697.1512,
936.014,5720.3109,
933.103,5699.6919,
930.193,5650.1015,
927.282,5561.3627,
924.372,5533.4576,
921.461,5473.1722,
918.551,5409.8859,
915.640,5363.577,
912.729,5319.7964,
909.819,5253.6501,
906.908,5229.2197,
903.998,5238.2147,
901.087,5279.7019,
898.176,5305.6926,
895.266,5345.7411,
892.355,5426.4874,
889.445,5445.7905,
886.534,5567.7663,
883.624,5605.3316,
880.713,5649.131,
877.802,5695.6441,
874.892,5703.1896,
871.981,5646.1056,
869.071,5613.5245,
866.160,5626.5039,
863.250,5637.496,
860.339,5633.4315,
857.428,5617.8575,
854.518,5598.0345,
851.607,5499.8504,
848.697,5468.4308,
845.786,5448.9008,
842.875,5449.1092,
839.965,5472.2342,
837.054,5474.2471,
834.144,5507.3972,
831.233,5481.8773,
828.323,5471.8099,
825.412,5458.2353,
822.501,5409.2791,
819.591,5367.1327,
816.680,5343.4391,
813.770,5271.4657,
810.859,5198.0319,
807.949,5149.1579,
805.038,5124.1958,
802.127,5085.5088,
799.217,5131.0708,
796.306,5070.6852,
793.396,5021.9972,
790.485,5042.7183,
787.574,5058.4463,
784.664,4994.4775,
781.753,5015.7532,
778.843,5056.8692,
775.932,5076.085,
773.022,5072.4136,
770.111,5146.8132,
767.200,5084.1182,
764.290,5083.6786,
761.379,5094.5425,
758.469,5073.4356,
755.558,5018.875,
752.648,5018.875,
749.737,5015.6111,
746.826,4948.1378,
743.916,4866.7321,
741.005,4829.6912,
738.095,4642.1476,
735.184,4444.6854,
732.274,4388.5483,
729.363,4487.9587,
726.452,4687.6487,
723.542,4841.4335,
720.631,4916.3899,
717.721,4962.6531,
714.810,4992.9147,
711.899,4998.6472,
708.989,4946.1971,
706.078,4925.8424,
703.168,4937.8772,
700.257,4935.2601,
697.347,4896.9639,
694.436,4828.4386,
691.525,4812.3625,
688.615,4818.3087,
685.704,4843.3012,
682.794,4862.0878,
679.883,4836.7392,
676.973,4767.02,
674.062,4796.9027,
671.151,4838.9699,
668.241,4863.734,
665.330,4872.3456,
662.420,4861.1633,
659.509,4855.7003,
656.598,4879.4072,
653.688,4906.8939,
650.777,4885.3629,
647.867,4840.7685,
644.956,4884.7411,
642.046,4902.9495,
639.135,4889.8401,
636.224,4919.8591,
633.314,4916.6833,
630.403,4924.1519,
627.493,4942.9335,
624.582,4973.5864,
621.672,5017.1461,
618.761,5023.4346,
615.850,5066.1991,
612.940,5120.7086,
610.029,5165.8729,
607.119,5195.8788,
604.208,5151.3041,
601.297,5148.8246,
598.387,5166.7349,
595.476,5174.2231,
592.566,5230.892,
589.655,5178.6776,
586.745,5118.8369,
583.834,5078.0679,
580.923,5054.3015,
578.013,5124.9276,
575.102,5136.9919,
572.192,5123.3002,
569.281,5124.747,
566.371,5218.6618,
563.460,5212.3547,
560.549,5256.552,
557.639,5327.6002,
554.728,5375.0374,
551.818,5361.772,
548.907,5358.875,
545.996,5402.0306,
543.086,5474.5724,
540.175,5496.3744,
537.265,5547.126,
534.354,5635.1083,
531.444,5695.7939,
528.533,5678.1859,
525.622,5724.7428,
522.712,5845.3041,
519.801,5923.7488,
516.891,5964.7675,
513.980,6112.658,
511.070,6197.7184,
508.159,6289.0035,
505.248,6405.4468,
502.338,6556.699,
499.427,6653.178,
496.517,6743.9254,
493.606,6814.401,
490.695,6854.1261,
487.785,6848.7376,
484.874,6878.2475,
481.964,6886.1542,
479.053,6874.7943,
476.143,6878.6341,
473.232,6857.2929,
470.321,6830.3851,
467.411,6814.9272,
464.500,6826.4871,
461.590,6811.1723,
458.679,6840.9933,
455.769,6861.3135,
452.858,6838.5917,
449.947,6778.2412,
447.037,6846.5742,
444.126,6872.6265,
441.216,6830.5208,
438.305,6845.7594,
435.395,6810.5037,
432.484,6795.876,
429.573,6805.8925,
426.663,6818.8149,
423.752,6812.9008,
420.842,6770.1433,
417.931,6738.3888,
415.020,6792.9905,
412.110,6924.3705,
409.199,7008.0608,
406.289,7029.8863,
403.378,6980.7597,
400.468,6946.74,
397.557,6930.7335,
394.646,6926.683,
391.736,6927.2814,
388.825,6877.5022,
385.915,6883.0984,
383.004,6922.8618,
380.094,6981.522,
377.183,7053.0072,
374.272,7139.0942,
371.362,7210.18,
368.451,7250.3399,
365.541,7307.3807,
362.630,7338.716,
359.719,7380.2879,
356.809,7450.7295,
353.898,7497.9038,
350.988,7524.4372,
348.077,7530.6476,
345.167,7521.0915,
342.256,7584.5923,
339.345,7653.8925,
336.435,7712.7546,
333.524,7749.1334,
330.614,7757.3301,
327.703,7819.43,
324.793,7885.1555,
321.882,7912.113,
318.971,8010.2474,
316.061,8021.9009,
313.150,8031.2083,
310.240,8135.1045,
307.329,8161.7434,
304.418,8232.8846,
301.508,8281.8657,
298.597,8187.8328,
295.687,8175.8116,
292.776,8259.2921,
289.866,8428.8517,
286.955,8665.9825,
284.044,8950.9772,
281.134,9157.9725,
278.223,9302.185,
275.313,9577.7689,
272.402,9728.2386,
269.492,9865.2163,
266.581,10033.901,
263.670,10272.1,
260.760,10405.128,
257.849,10514.174,
254.939,10658.015,
252.028,10827.807,
249.117,10946.694,
246.207,11015.095,
243.296,11027.54,
240.386,11141.843,
237.475,11153.852,
234.565,11078.14,
231.654,11086.175,
228.743,11072.915,
225.833,11032.3,
222.922,10962.157,
220.012,10903.873,
217.101,10867.209,
214.191,10830.297,
211.280,10768.463,
208.369,10717.451,
205.459,10758.755,
202.548,10863.524,
199.638,10913.594,
196.727,10868.558,
193.816,10848.345,
190.906,10897.018,
187.995,10929.599,
185.085,10955.534,
182.174,10982.257,
179.264,11020.563,
176.353,11021.671,
173.442,11092.387,
170.532,11199.461,
167.621,11024.264,
164.711,10811.321,
161.800,10526.459,
158.890,10129.889,
155.979,9502.1662,
153.068,8736.3361,
150.158,7828.8136,
147.247,6711.6799,
144.337,5545.5584,
141.426,4381.6763,
138.516,3243.9699,
135.605,2336.0358,
132.694,1605.7845,
129.784,1046.5838,
126.873,696.17021,
123.963,475.20955,
121.052,324.48082,
118.141,230.24576,
115.231,184.3985,
112.320,154.43683,
109.410,133.6935,
106.499,106.6316,
103.589,96.392964,
100.678,87.170944,
97.767,72.241255,
94.857,74.646956,
91.946,67.006561,
89.036,54.665285,
86.125,59.629722,
83.215,56.096717,
80.304,49.480673,
77.393,42.398974,
74.483,45.150675,
71.572,43.613831,
68.662,37.805733,
65.751,37.099281,
62.840,34.948192,
59.930,32.875,
57.019,32.875,
54.109,29.292035,
51.198,26.271781,
48.288,24.858013,
45.377,22.747878,
42.466,25.172755,
39.556,29.06917,
36.645,24.153838,
33.735,24.951994,
30.824,25.770565,
27.914,22.264689,
25.003,26.8561,
22.092,30.197905,
19.182,30.966531,
16.271,33.764492,
13.361,87.978705,
10.450,183.83124,
7.539,317.20948,
4.629,281.13848,
1.718,101.97959,
-1.192,-266.11272,
-4.103,-225.01292,
-7.013,-117.35326,
-9.924,-1.125,
