,PLBC96~1,
Raman shift [1/cm],Intensity,
3014.167,2.5,
3011.256,0.39997853,
3008.346,101.29264,
3005.435,114.38693,
3002.525,114.40492,
2999.614,109.49094,
2996.704,124.13711,
2993.793,122.76613,
2990.882,120.103,
2987.972,140.5,
2985.061,136.0665,
2982.151,138.42606,
2979.240,136.04656,
2976.329,164.26775,
2973.419,175.06971,
2970.508,163.51662,
2967.598,166.5,
2964.687,170.32065,
2961.777,168.15806,
2958.866,175.17162,
2955.955,166.9823,
2953.045,182.96757,
2950.134,184.04226,
2947.224,193.24019,
2944.313,205.01709,
2941.403,182.41652,
2938.492,199.53254,
2935.581,197.59697,
2932.671,228.81757,
2929.760,210.08461,
2926.850,220.61165,
2923.939,219.90188,
2921.028,231.22371,
2918.118,218.48111,
2915.207,239.86091,
2912.297,224.60155,
2909.386,229.90876,
2906.476,229.46911,
2903.565,249.98445,
2900.654,230.71235,
2897.744,241.46228,
2894.833,235.20109,
2891.923,228.8782,
2889.012,235.25144,
2886.102,229.29189,
2883.191,221.50661,
2880.280,210.29904,
2877.370,200.77905,
2874.459,185.95307,
2871.549,225.5,
2868.638,232.18247,
2865.727,243.94235,
2862.817,247.90105,
2859.906,240.00711,
2856.996,260.49547,
2854.085,264.14076,
2851.175,258.59637,
2848.264,254.22534,
2845.353,233.82351,
2842.443,245.70487,
2839.532,245.38057,
2836.622,251.528,
2833.711,240.5,
2830.801,243.19779,
2827.890,245.06118,
2824.979,248.77193,
2822.069,254.54549,
2819.158,260.02022,
2816.248,259.51158,
2813.337,241.33535,
2810.427,267.32369,
2807.516,254.66563,
2804.605,255.72596,
2801.695,259.93421,
2798.784,253.01746,
2795.874,262.52114,
2792.963,256.64319,
2790.052,246.50386,
2787.142,262.39461,
2784.231,255.17701,
2781.321,246.1286,
2778.410,255.91497,
2775.500,258.79759,
2772.589,262.23013,
2769.678,254.35665,
2766.768,263.80486,
2763.857,255.7659,
2760.947,277.99685,
2758.036,261.40436,
2755.126,269.49359,
2752.215,269.48161,
2749.304,273.69063,
2746.394,266.19353,
2743.483,264.25003,
2740.573,265.48455,
2737.662,281.05326,
2734.751,273.91756,
2731.841,290.9066,
2728.930,263.39828,
2726.020,276.51042,
2723.109,268.5415,
2720.199,281.28438,
2717.288,280.5,
2714.377,295.30394,
2711.467,287.2044,
2708.556,299.55347,
2705.646,281.89435,
2702.735,285.18558,
2699.825,302.52181,
2696.914,293.40453,
2694.003,287.83983,
2691.093,305.14261,
2688.182,303.84593,
2685.272,297.81863,
2682.361,298.74127,
2679.450,296.62345,
2676.540,311.84963,
2673.629,289.12776,
2670.719,300.07671,
2667.808,304.11092,
2664.898,301.72082,
2661.987,310.83355,
2659.076,322.99138,
2656.166,322.5304,
2653.255,304.79422,
2650.345,312.06806,
2647.434,315.29966,
2644.524,308.67749,
2641.613,321.92866,
2638.702,316.61047,
2635.792,323.4681,
2632.881,326.19052,
2629.971,333.22489,
2627.060,338.00031,
2624.149,329.06876,
2621.239,340.28706,
2618.328,310.47491,
2615.418,336.81364,
2612.507,336.81229,
2609.597,346.93912,
2606.686,327.00604,
2603.775,339.57936,
2600.865,332.91295,
2597.954,342.41037,
2595.044,361.49114,
2592.133,350.04763,
2589.223,338.82526,
2586.312,346.76636,
2583.401,340.68251,
2580.491,346.59616,
2577.580,365.46864,
2574.670,351.75801,
2571.759,362.19692,
2568.848,353.73754,
2565.938,375.78598,
2563.027,347.45223,
2560.117,349.33175,
2557.206,367.90959,
2554.296,360.26888,
2551.385,363.51614,
2548.474,382.20372,
2545.564,378.62662,
2542.653,379.79531,
2539.743,366.51232,
2536.832,371.54112,
2533.922,366.72077,
2531.011,379.95005,
2528.100,381.69862,
2525.190,378.96598,
2522.279,381.21861,
2519.369,378.82055,
2516.458,388.16785,
2513.548,391.11816,
2510.637,395.43852,
2507.726,393.25093,
2504.816,382.06144,
2501.905,384.42744,
2498.995,389.27635,
2496.084,396.90067,
2493.173,392.02649,
2490.263,402.88193,
2487.352,396.126,
2484.442,405.94327,
2481.531,401.87227,
2478.621,407.73222,
2475.710,411.57668,
2472.799,421.00673,
2469.889,417.07617,
2466.978,415.94329,
2464.068,400.21952,
2461.157,411.62232,
2458.247,428.70573,
2455.336,417.43543,
2452.425,407.12734,
2449.515,423.27338,
2446.604,418.73038,
2443.694,432.31416,
2440.783,421.92567,
2437.872,425.86465,
2434.962,436.55069,
2432.051,439.5,
2429.141,438.78824,
2426.230,443.17404,
2423.320,450.6292,
2420.409,431.68576,
2417.498,442.30337,
2414.588,448.0399,
2411.677,439.75101,
2408.767,445.99409,
2405.856,459.0404,
2402.946,461.80921,
2400.035,474.3803,
2397.124,465.74598,
2394.214,472.47041,
2391.303,446.28455,
2388.393,459.9233,
2385.482,442.55748,
2382.571,453.76502,
2379.661,481.61626,
2376.750,480.60593,
2373.840,475.36251,
2370.929,488.34838,
2368.019,495.11453,
2365.108,501.01047,
2362.197,501.152,
2359.287,483.12172,
2356.376,492.47887,
2353.466,508.42649,
2350.555,482.61026,
2347.645,489.94769,
2344.734,502.47239,
2341.823,509.45025,
2338.913,493.87465,
2336.002,505.05028,
2333.092,504.82171,
2330.181,521.8171,
2327.270,511.32508,
2324.360,489.86081,
2321.449,517.31634,
2318.539,525.41436,
2315.628,517.31535,
2312.718,519.9163,
2309.807,526.33867,
2306.896,514.02739,
2303.986,512.31807,
2301.075,520.56374,
2298.165,517.14389,
2295.254,514.45691,
2292.344,531.44604,
2289.433,538.51546,
2286.522,542.5,
2283.612,560.44135,
2280.701,533.01576,
2277.791,547.1412,
2274.880,561.64402,
2271.969,562.75515,
2269.059,570.05858,
2266.148,586.55008,
2263.238,568.21044,
2260.327,554.3277,
2257.417,571.43055,
2254.506,586.4544,
2251.595,578.78728,
2248.685,570.13464,
2245.774,569.30217,
2242.864,568.37033,
2239.953,571.05164,
2237.043,590.00678,
2234.132,583.38577,
2231.221,582.73777,
2228.311,599.54766,
2225.400,603.89404,
2222.490,616.75731,
2219.579,613.1581,
2216.669,610.01192,
2213.758,610.76144,
2210.847,619.7544,
2207.937,634.92995,
2205.026,642.27784,
2202.116,632.89598,
2199.205,613.97482,
2196.294,639.41794,
2193.384,623.10645,
2190.473,653.25705,
2187.563,655.529,
2184.652,658.33715,
2181.742,651.72866,
2178.831,687.29381,
2175.920,716.56923,
2173.010,730.22506,
2170.099,742.63195,
2167.189,787.70809,
2164.278,818.40754,
2161.368,841.21287,
2158.457,877.27803,
2155.546,916.21063,
2152.636,948.55849,
2149.725,996.60735,
2146.815,1014.1997,
2143.904,1025.8122,
2140.993,1063.648,
2138.083,1098.1595,
2135.172,1094.6427,
2132.262,1078.7518,
2129.351,1098.3794,
2126.441,1083.2961,
2123.530,1053.0623,
2120.619,1004.1793,
2117.709,935.80837,
2114.798,908.4075,
2111.888,868.68806,
2108.977,820.26157,
2106.067,804.80864,
2103.156,818.81769,
2100.245,757.49059,
2097.335,741.89791,
2094.424,733.67041,
2091.514,718.63976,
2088.603,717.29722,
2085.692,704.35884,
2082.782,705.22281,
2079.871,706.39265,
2076.961,713.9188,
2074.050,692.56667,
2071.140,707.86826,
2068.229,683.39843,
2065.318,704.53776,
2062.408,699.77233,
2059.497,695.92859,
2056.587,689.8956,
2053.676,683.5,
2050.766,681.65396,
2047.855,688.41456,
2044.944,686.16506,
2042.034,687.65603,
2039.123,685.98148,
2036.213,699.17333,
2033.302,687.71754,
2030.391,676.27975,
2027.481,690.12181,
2024.570,702.24268,
2021.660,654.57472,
2018.749,685.51225,
2015.839,665.47704,
2012.928,697.72987,
2010.017,690.70846,
2007.107,692.08508,
2004.196,702.67852,
2001.286,664.12195,
1998.375,663.50493,
1995.465,668.92679,
1992.554,686.90572,
1989.643,656.67517,
1986.733,699.55701,
1983.822,652.43722,
1980.912,677.71743,
1978.001,666.83025,
1975.090,668.53816,
1972.180,666.05051,
1969.269,655.72406,
1966.359,662.14897,
1963.448,655.77608,
1960.538,680.96039,
1957.627,682.25851,
1954.716,680.52873,
1951.806,660.34453,
1948.895,673.94943,
1945.985,656.0915,
1943.074,653.93912,
1940.164,652.85578,
1937.253,667.70405,
1934.342,668.346,
1931.432,634.91325,
1928.521,628.04577,
1925.611,630.5,
1922.700,632.87431,
1919.790,647.28019,
1916.879,633.68574,
1913.968,665.45942,
1911.058,641.98047,
1908.147,622.62557,
1905.237,630.94114,
1902.326,614.30147,
1899.415,631.48415,
1896.505,636.63257,
1893.594,633.77741,
1890.684,632.76138,
1887.773,645.69814,
1884.863,648.22437,
1881.952,640.52507,
1879.041,623.12668,
1876.131,642.11698,
1873.220,626.57956,
1870.310,636.49549,
1867.399,625.69192,
1864.489,636.21351,
1861.578,674.85742,
1858.667,638.76647,
1855.757,637.28998,
1852.846,656.28972,
1849.936,668.91943,
1847.025,639.56083,
1844.114,639.75415,
1841.204,665.22727,
1838.293,674.50832,
1835.383,675.51149,
1832.472,675.75565,
1829.562,673.1388,
1826.651,702.90243,
1823.740,685.19726,
1820.830,675.04332,
1817.919,673.05687,
1815.009,684.48728,
1812.098,705.35038,
1809.188,681.2365,
1806.277,717.63686,
1803.366,672.63126,
1800.456,737.5765,
1797.545,706.71265,
1794.635,723.33992,
1791.724,694.60671,
1788.813,722.49614,
1785.903,707.68607,
1782.992,706.81597,
1780.082,713.83435,
1777.171,679.83458,
1774.261,676.46984,
1771.350,681.10026,
1768.439,715.45828,
1765.529,718.04443,
1762.618,715.84813,
1759.708,739.40236,
1756.797,735.44697,
1753.887,723.26968,
1750.976,742.65183,
1748.065,748.19893,
1745.155,705.90028,
1742.244,723.89033,
1739.334,762.30235,
1736.423,759.90188,
1733.512,776.60169,
1730.602,799.46034,
1727.691,774.56124,
1724.781,745.04901,
1721.870,758.00963,
1718.960,787.9892,
1716.049,819.50822,
1713.138,817.66003,
1710.228,797.35347,
1707.317,809.53771,
1704.407,780.9545,
1701.496,828.54668,
1698.586,814.09633,
1695.675,765.71457,
1692.764,793.74182,
1689.854,879.68902,
1686.943,824.55726,
1684.033,822.5,
1681.122,840.19414,
1678.211,905.87185,
1675.301,878.58634,
1672.390,903.61365,
1669.480,941.45989,
1666.569,935.66207,
1663.659,871.62693,
1660.748,940.09773,
1657.837,971.2217,
1654.927,1003.1251,
1652.016,988.30187,
1649.106,1021.4548,
1646.195,1057.9176,
1643.285,995.43686,
1640.374,1077.392,
1637.463,1027.1573,
1634.553,1117.2636,
1631.642,1101.956,
1628.732,1143.5652,
1625.821,1154.5746,
1622.911,1267.8576,
1620.000,1360.3283,
1617.089,1359.5398,
1614.179,1455.7081,
1611.268,1511.4552,
1608.358,1619.3026,
1605.447,1698.9863,
1602.536,1761.277,
1599.626,1758.1405,
1596.715,1768.3912,
1593.805,1722.1004,
1590.894,1795.7603,
1587.984,1722.4891,
1585.073,1707.7984,
1582.162,1709.1698,
1579.252,1684.951,
1576.341,1678.6989,
1573.431,1661.2702,
1570.520,1634.3331,
1567.610,1605.1467,
1564.699,1563.4236,
1561.788,1532.1903,
1558.878,1517.6724,
1555.967,1508.554,
1553.057,1502.9483,
1550.146,1480.6055,
1547.235,1450.3805,
1544.325,1408.5268,
1541.414,1386.0401,
1538.504,1401.4003,
1535.593,1370.217,
1532.683,1323.4188,
1529.772,1307.2503,
1526.861,1300.1908,
1523.951,1317.5365,
1521.040,1288.316,
1518.130,1262.094,
1515.219,1266.7414,
1512.309,1230.3919,
1509.398,1254.4698,
1506.487,1214.3029,
1503.577,1229.4427,
1500.666,1219.2908,
1497.756,1231.2879,
1494.845,1202.5389,
1491.934,1155.4843,
1489.024,1150.6718,
1486.113,1112.4842,
1483.203,1163.6782,
1480.292,1094.134,
1477.382,1116.0629,
1474.471,1106.0829,
1471.560,1101.2257,
1468.650,1109.016,
1465.739,1077.273,
1462.829,1021.691,
1459.918,1041.6993,
1457.008,1080.5462,
1454.097,1087.6594,
1451.186,1075.8656,
1448.276,1035.5274,
1445.365,1011.3223,
1442.455,1017.4002,
1439.544,1028.4856,
1436.633,1094.363,
1433.723,1045.3784,
1430.812,1035.8746,
1427.902,1015.5225,
1424.991,1016.4703,
1422.081,1017.4175,
1419.170,991.57819,
1416.259,953.47735,
1413.349,967.40199,
1410.438,964.00331,
1407.528,928.6004,
1404.617,952.01185,
1401.707,981.02994,
1398.796,965.92312,
1395.885,941.05899,
1392.975,927.31237,
1390.064,916.79105,
1387.154,906.20098,
1384.243,895.91146,
1381.332,841.91859,
1378.422,895.4322,
1375.511,932.90344,
1372.601,1025.657,
1369.690,1102.935,
1366.780,1085.9867,
1363.869,1156.233,
1360.958,1191.4419,
1358.048,1177.294,
1355.137,1199.6695,
1352.227,1244.2256,
1349.316,1269.8319,
1346.406,1301.1042,
1343.495,1342.9774,
1340.584,1374.9991,
1337.674,1438.1816,
1334.763,1486.5586,
1331.853,1514.3755,
1328.942,1529.7314,
1326.032,1524.975,
1323.121,1582.7772,
1320.210,1605.4978,
1317.300,1634.8311,
1314.389,1646.7915,
1311.479,1661.3445,
1308.568,1686.9857,
1305.657,1686.7144,
1302.747,1709.6314,
1299.836,1762.7826,
1296.926,1802.9356,
1294.015,1855.337,
1291.105,1910.3325,
1288.194,2017.3429,
1285.283,2013.8599,
1282.373,2035.4061,
1279.462,2102.8128,
1276.552,2137.3897,
1273.641,2153.1376,
1270.731,2192.0284,
1267.820,2203.6161,
1264.909,2210.4226,
1261.999,2173.5333,
1259.088,2174.4454,
1256.178,2124.8255,
1253.267,2154.0926,
1250.356,2105.9017,
1247.446,2024.1078,
1244.535,1973.6161,
1241.625,1954.4445,
1238.714,1935.5364,
1235.804,1904.5437,
1232.893,1868.5062,
1229.982,1838.3842,
1227.072,1775.9177,
1224.161,1779.0645,
1221.251,1747.7416,
1218.340,1695.6878,
1215.430,1671.2979,
1212.519,1664.0669,
1209.608,1661.7525,
1206.698,1675.1172,
1203.787,1695.5503,
1200.877,1718.3358,
1197.966,1731.8232,
1195.055,1778.5754,
1192.145,1844.3534,
1189.234,1858.9585,
1186.324,1894.6855,
1183.413,1915.0178,
1180.503,1889.3706,
1177.592,1869.591,
1174.681,1877.5137,
1171.771,1883.923,
1168.860,1858.9165,
1165.950,1808.9289,
1163.039,1814.2617,
1160.129,1826.8087,
1157.218,1821.8468,
1154.307,1806.5636,
1151.397,1785.5515,
1148.486,1748.5057,
1145.576,1716.8129,
1142.665,1770.0876,
1139.754,1744.3957,
1136.844,1724.8945,
1133.933,1719.5,
1131.023,1726.1093,
1128.112,1711.3604,
1125.202,1687.2004,
1122.291,1736.124,
1119.380,1733.422,
1116.470,1725.4793,
1113.559,1728.3662,
1110.649,1762.2423,
1107.738,1765.0329,
1104.828,1741.6814,
1101.917,1731.5298,
1099.006,1748.7576,
1096.096,1773.1237,
1093.185,1766.9777,
1090.275,1738.1755,
1087.364,1745.9086,
1084.453,1765.4367,
1081.543,1771.9942,
1078.632,1770.9473,
1075.722,1774.7388,
1072.811,1759.3687,
1069.901,1771.5944,
1066.990,1789.475,
1064.079,1810.5128,
1061.169,1815.7385,
1058.258,1829.169,
1055.348,1849.9121,
1052.437,1856.6994,
1049.527,1898.1979,
1046.616,1890.3784,
1043.705,1902.603,
1040.795,1902.669,
1037.884,1925.7869,
1034.974,1949.7552,
1032.063,1943.254,
1029.153,1929.0966,
1026.242,1950.7205,
1023.331,1939.0008,
1020.421,1953.9275,
1017.510,1971.585,
1014.600,1984.9981,
1011.689,2004.473,
1008.778,2040.5111,
1005.868,2076.3108,
1002.957,2166.648,
1000.047,2217.628,
997.136,2284.3593,
994.226,2318.377,
991.315,2304.453,
988.404,2272.0964,
985.494,2223.5,
982.583,2223.5,
979.673,2200.0873,
976.762,2169.7772,
973.852,2172.1804,
970.941,2195.6855,
968.030,2198.5,
965.120,2198.4749,
962.209,2192.5071,
959.299,2197.166,
956.388,2167.0221,
953.477,2162.0514,
950.567,2188.1015,
947.656,2182.0651,
944.746,2209.2509,
941.835,2208.0706,
938.925,2231.1898,
936.014,2233.8893,
933.103,2214.6134,
930.193,2196.3002,
927.282,2193.8502,
924.372,2163.4083,
921.461,2127.0984,
918.551,2114.3381,
915.640,2087.5784,
912.729,2063.5026,
909.819,2090.6087,
906.908,2068.7056,
903.998,2078.6351,
901.087,2085.9555,
898.176,2103.293,
895.266,2129.3394,
892.355,2154.2694,
889.445,2174.4118,
886.534,2195.3718,
883.624,2224.3948,
880.713,2225.2722,
877.802,2216.237,
874.892,2216.3746,
871.981,2202.4605,
869.071,2200.7897,
866.160,2206.7096,
863.250,2217.8872,
860.339,2217.2666,
857.428,2207.474,
854.518,2226.7909,
851.607,2167.714,
848.697,2140.9924,
845.786,2150.1069,
842.875,2179.8315,
839.965,2206.5,
837.054,2206.6209,
834.144,2217.3947,
831.233,2199.5014,
828.323,2189.5,
825.412,2193.6855,
822.501,2196.9892,
819.591,2166.4125,
816.680,2140.6602,
813.770,2110.6929,
810.859,2096.0488,
807.949,2083.3731,
805.038,2047.4181,
802.127,2013.6699,
799.217,2016.4631,
796.306,2024.1757,
793.396,2021.8816,
790.485,2016.7645,
787.574,2036.3443,
784.664,2032.2438,
781.753,2054.3135,
778.843,2032.6645,
775.932,2030.9069,
773.022,2100.2033,
770.111,2078.9462,
767.200,2101.862,
764.290,2072.5158,
761.379,2051.408,
758.469,2059.2444,
755.558,2054.1596,
752.648,2042.7552,
749.737,2003.9438,
746.826,1962.5876,
743.916,1921.0257,
741.005,1864.7443,
738.095,1742.9627,
735.184,1565.4664,
732.274,1535.2092,
729.363,1634.4186,
726.452,1795.5428,
723.542,1945.2806,
720.631,2005.4887,
717.721,2032.9569,
714.810,2039.2159,
711.899,2038.698,
708.989,2052.4158,
706.078,2034.07,
703.168,2011.8906,
700.257,2007.1012,
697.347,2021.4995,
694.436,2039.0854,
691.525,2023.8131,
688.615,2008.5507,
685.704,1999.3415,
682.794,1985.2661,
679.883,1949.9057,
676.973,1981.1591,
674.062,2009.8329,
671.151,2023.3767,
668.241,2019.2585,
665.330,2002.7647,
662.420,2008.3558,
659.509,2043.7863,
656.598,2041.8625,
653.688,2019.2511,
650.777,2038.311,
647.867,2032.7367,
644.956,2015.4021,
642.046,2000.1102,
639.135,2001.5132,
636.224,2035.5279,
633.314,2041.0854,
630.403,2037.7703,
627.493,2025.6663,
624.582,2024.9194,
621.672,2085.111,
618.761,2100.419,
615.850,2103.949,
612.940,2116.8199,
610.029,2137.5021,
607.119,2107.4962,
604.208,2130.7705,
601.297,2132.5267,
598.387,2119.2005,
595.476,2107.5344,
592.566,2097.3025,
589.655,2090.3169,
586.745,2092.7076,
583.834,2088.7404,
580.923,2050.4763,
578.013,2046.5526,
575.102,2054.6774,
572.192,2055.0689,
569.281,2047.718,
566.371,2071.1967,
563.460,2108.7734,
560.549,2135.1947,
557.639,2132.9976,
554.728,2095.5201,
551.818,2127.5131,
548.907,2157.0483,
545.996,2179.2758,
543.086,2181.602,
540.175,2135.6619,
537.265,2146.2613,
534.354,2167.5541,
531.444,2183.7787,
528.533,2185.2726,
525.622,2196.1358,
522.712,2230.0512,
519.801,2247.445,
516.891,2242.6565,
513.980,2243.4308,
511.070,2261.813,
508.159,2296.7213,
505.248,2326.7504,
502.338,2329.6236,
499.427,2402.1759,
496.517,2421.5,
493.606,2406.3579,
490.695,2381.1003,
487.785,2414.2013,
484.874,2409.1604,
481.964,2424.2639,
479.053,2443.7555,
476.143,2403.0535,
473.232,2397.6224,
470.321,2405.2584,
467.411,2410.1946,
464.500,2398.6248,
461.590,2443.0377,
458.679,2436.2397,
455.769,2422.3904,
452.858,2424.9888,
449.947,2410.4741,
447.037,2449.9732,
444.126,2470.1061,
441.216,2459.7489,
438.305,2472.7017,
435.395,2490.2353,
432.484,2478.0791,
429.573,2455.5351,
426.663,2481.3799,
423.752,2459.7878,
420.842,2463.6573,
417.931,2494.0745,
415.020,2541.8511,
412.110,2568.3748,
409.199,2603.4168,
406.289,2630.5,
403.378,2630.2797,
400.468,2565.2642,
397.557,2547.5849,
394.646,2534.878,
391.736,2492.2103,
388.825,2483.1595,
385.915,2450.6972,
383.004,2446.4868,
380.094,2503.4578,
377.183,2541.8341,
374.272,2600.2647,
371.362,2642.8546,
368.451,2649.4574,
365.541,2665.2187,
362.630,2677.1474,
359.719,2697.7064,
356.809,2730.8657,
353.898,2720.3825,
350.988,2731.6047,
348.077,2733.6261,
345.167,2710.0676,
342.256,2721.2736,
339.345,2741.5058,
336.435,2743.7307,
333.524,2711.1342,
330.614,2731.2534,
327.703,2704.6421,
324.793,2689.9986,
321.882,2737.4766,
318.971,2727.8118,
316.061,2755.7521,
313.150,2776.7215,
310.240,2738.8735,
307.329,2808.2491,
304.418,2809.1428,
301.508,2765.8661,
298.597,2725.8836,
295.687,2681.8656,
292.776,2681.2501,
289.866,2736.1471,
286.955,2872.0725,
284.044,2931.98,
281.134,3011.0432,
278.223,3114.7692,
275.313,3178.1387,
272.402,3255.9803,
269.492,3320.2438,
266.581,3358.6051,
263.670,3360.0755,
260.760,3372.5148,
257.849,3399.6675,
254.939,3445.9021,
252.028,3447.2238,
249.117,3446.5863,
246.207,3450.6141,
243.296,3470.3791,
240.386,3511.0265,
237.475,3510.3697,
234.565,3473.049,
231.654,3451.1375,
228.743,3389.5386,
225.833,3355.4273,
222.922,3370.884,
220.012,3314.7853,
217.101,3278.8342,
214.191,3257.003,
211.280,3245.3636,
208.369,3240.4631,
205.459,3265.2498,
202.548,3293.3412,
199.638,3222.9532,
196.727,3258.6308,
193.816,3307.8419,
190.906,3336.4492,
187.995,3335.0012,
185.085,3294.3073,
182.174,3264.1913,
179.264,3318.3987,
176.353,3336.6748,
173.442,3344.2251,
170.532,3336.8473,
167.621,3262.5868,
164.711,3187.841,
161.800,3094.2624,
158.890,2964.7114,
155.979,2792.115,
153.068,2558.0934,
150.158,2270.9001,
147.247,1949.9754,
144.337,1598.5651,
141.426,1248.1416,
138.516,913.35338,
135.605,644.0216,
132.694,440.83684,
129.784,294.26698,
126.873,195.57906,
123.963,137.94137,
121.052,96.468696,
118.141,63.629204,
115.231,57.104867,
112.320,50.687277,
109.410,44.000092,
106.499,36.166385,
103.589,33.379491,
100.678,28.154053,
97.767,16.779052,
94.857,17.192989,
91.946,20.321776,
89.036,24.274204,
86.125,22.855794,
83.215,20.907239,
80.304,19.978865,
77.393,21.395205,
74.483,14.94865,
71.572,11.137648,
68.662,10.153663,
65.751,6.6214071,
62.840,9.8353179,
59.930,13.938141,
57.019,11.822895,
54.109,15.082965,
51.198,15.388735,
48.288,10.533975,
45.377,14.754243,
42.466,11.965587,
39.556,5.8453557,
36.645,7.9519264,
33.735,11.615491,
30.824,10.303147,
27.914,-3.0191822,
25.003,8.575387,
22.092,14.885477,
19.182,11.477117,
16.271,10.777627,
13.361,56.017461,
10.450,121.62493,
7.539,139.78113,
4.629,182.70805,
1.718,127.41393,
-1.192,-169.56964,
-4.103,-172.86284,
-7.013,-105.20067,
-9.924,-1.5,
