,PLC8A1~1,
Raman shift [1/cm],Intensity,
3014.167,-2,
3011.256,1.1000215,
3008.346,18.879689,
3005.435,34.844521,
3002.525,16.697427,
2999.614,36.425982,
2996.704,36.911342,
2993.793,25.486176,
2990.882,41.083942,
2987.972,31.035315,
2985.061,36.226599,
2982.151,26.954616,
2979.240,35.165391,
2976.329,43.50273,
2973.419,38.861876,
2970.508,35.483277,
2967.598,43.569879,
2964.687,39.775815,
2961.777,38.658055,
2958.866,54.343232,
2955.955,35.68806,
2953.045,35.834461,
2950.134,57.947552,
2947.224,55.886125,
2944.313,53.348291,
2941.403,48.916515,
2938.492,64,
2935.581,49.209846,
2932.671,60.240346,
2929.760,48.099978,
2926.850,46.425187,
2923.939,60.761695,
2921.028,51.14702,
2918.118,53.440808,
2915.207,68.829223,
2912.297,61.059238,
2909.386,63.007297,
2906.476,59.55057,
2903.565,59.838517,
2900.654,68.505553,
2897.744,53.11315,
2894.833,62.412363,
2891.923,50.025595,
2889.012,54,
2886.102,55.208107,
2883.191,51.00472,
2880.280,40.052622,
2877.370,28.633694,
2874.459,30.352211,
2871.549,46.144912,
2868.638,59.863915,
2865.727,58.342306,
2862.817,60.457218,
2859.906,61.290604,
2856.996,56.959242,
2854.085,59.838224,
2851.175,59.882505,
2848.264,57.725337,
2845.353,57.107835,
2842.443,57.208356,
2839.532,67.850638,
2836.622,40.151693,
2833.711,50.466261,
2830.801,54.503675,
2827.890,57.167842,
2824.979,73.913925,
2822.069,61.806674,
2819.158,48.420489,
2816.248,58.482631,
2813.337,63.340242,
2810.427,62.654273,
2807.516,59.841719,
2804.605,58.043274,
2801.695,58.644722,
2798.784,65.965077,
2795.874,61.730893,
2792.963,57.571705,
2790.052,56.001716,
2787.142,57.605153,
2784.231,48.128879,
2781.321,65.994236,
2778.410,54.319791,
2775.500,56.702415,
2772.589,52.307342,
2769.678,54.890747,
2766.768,56.695136,
2763.857,70.788052,
2760.947,54.471631,
2758.036,65.2485,
2755.126,69.049144,
2752.215,63.404526,
2749.304,68.978409,
2746.394,66.693529,
2743.483,71.350007,
2740.573,44.272012,
2737.662,56.914193,
2734.751,68.417559,
2731.841,48.836991,
2728.930,71.631438,
2726.020,67.78588,
2723.109,66.020751,
2720.199,58.059424,
2717.288,60.788329,
2714.377,64.645899,
2711.467,52.950554,
2708.556,74.903999,
2705.646,81.464782,
2702.735,63.847949,
2699.825,73.598164,
2696.914,60.094988,
2694.003,68.25691,
2691.093,66.874854,
2688.182,69.873334,
2685.272,62.123757,
2682.361,57.911573,
2679.450,73.370346,
2676.540,69.040648,
2673.629,69.00898,
2670.719,69.496306,
2667.808,67.243178,
2664.898,69,
2661.987,71.833389,
2659.076,68.762935,
2656.166,70.467543,
2653.255,70.406464,
2650.345,74.568058,
2647.434,70.885395,
2644.524,63.247022,
2641.613,74.800126,
2638.702,78.968438,
2635.792,69.811569,
2632.881,77.577371,
2629.971,76.255023,
2627.060,73.499064,
2624.149,78.243754,
2621.239,72.745553,
2618.328,57.805357,
2615.418,75.004544,
2612.507,86.652123,
2609.597,79.560878,
2606.686,62.636541,
2603.775,64.202385,
2600.865,72,
2597.954,89.377117,
2595.044,73.365808,
2592.133,78.840894,
2589.223,83.433681,
2586.312,84.949772,
2583.401,77.69344,
2580.491,76.644243,
2577.580,82.013203,
2574.670,84.741993,
2571.759,75.95462,
2568.848,70.121496,
2565.938,78.952314,
2563.027,87.634093,
2560.117,74.925208,
2557.206,88.793355,
2554.296,81.201373,
2551.385,80.867939,
2548.474,77.926023,
2545.564,84.841722,
2542.653,85.463087,
2539.743,90.456871,
2536.832,81.917752,
2533.922,85.952692,
2531.011,82.725023,
2528.100,83.066205,
2525.190,87.162295,
2522.279,76.844164,
2519.369,90.679446,
2516.458,80.776204,
2513.548,85.472636,
2510.637,77.491862,
2507.726,82.501852,
2504.816,86.563702,
2501.905,81.826219,
2498.995,81.238876,
2496.084,85,
2493.173,77.815562,
2490.263,88.752569,
2487.352,95.916533,
2484.442,95.99357,
2481.531,100.47341,
2478.621,80.805617,
2475.710,102.03067,
2472.799,100.82069,
2469.889,86.939062,
2466.978,83.226859,
2464.068,92.492104,
2461.157,90.422514,
2458.247,86.294098,
2455.336,91.254412,
2452.425,86.084896,
2449.515,97.509353,
2446.604,90.122147,
2443.694,87.651328,
2440.783,82.093468,
2437.872,81.14586,
2434.962,87.626724,
2432.051,95.975327,
2429.141,93.441222,
2426.230,96.674044,
2423.320,108.80028,
2420.409,97,
2417.498,97.598315,
2414.588,112.71476,
2411.677,112.21515,
2408.767,111.17028,
2405.856,99.442813,
2402.946,93.940127,
2400.035,82.504691,
2397.124,100.67379,
2394.214,104.0536,
2391.303,103.21545,
2388.393,98.534866,
2385.482,95.044062,
2382.571,115.83547,
2379.661,118.34878,
2376.750,121.68474,
2373.840,101.17509,
2370.929,88.086638,
2368.019,101.96366,
2365.108,110.34817,
2362.197,121.18084,
2359.287,115.21838,
2356.376,105.01409,
2353.466,103.77223,
2350.555,111.79003,
2347.645,120.10463,
2344.734,113.1797,
2341.823,127.7015,
2338.913,106.82239,
2336.002,110.44972,
2333.092,112.36792,
2330.181,130.63421,
2327.270,113.43014,
2324.360,100.95751,
2321.449,119.67687,
2318.539,117.97859,
2315.628,126.06675,
2312.718,111.45153,
2309.807,111.63952,
2306.896,128.205,
2303.986,113.61041,
2301.075,121.93615,
2298.165,113.82671,
2295.254,137.41834,
2292.344,112.26559,
2289.433,111.73364,
2286.522,115.65189,
2283.612,117.49109,
2280.701,116.21078,
2277.791,128.47903,
2274.880,119.85193,
2271.969,125.10288,
2269.059,113.23434,
2266.148,116.4591,
2263.238,118.79923,
2260.327,123.7241,
2257.417,122.135,
2254.506,131.0228,
2251.595,123.15279,
2248.685,112.05386,
2245.774,111,
2242.864,135.87033,
2239.953,131.4966,
2237.043,128.06535,
2234.132,133.24677,
2231.221,127.44701,
2228.311,129.47938,
2225.400,146.66226,
2222.490,134.07164,
2219.579,131.70952,
2216.669,138.48331,
2213.758,134.82483,
2210.847,134.22418,
2207.937,142.67426,
2205.026,154.55569,
2202.116,150.21338,
2199.205,145.1127,
2196.294,148.30598,
2193.384,159.68401,
2190.473,164.57394,
2187.563,159.01933,
2184.652,166.46408,
2181.742,178.61272,
2178.831,170.67319,
2175.920,185.91439,
2173.010,187.27494,
2170.099,194.79911,
2167.189,177.07893,
2164.278,186.53266,
2161.368,184.85631,
2158.457,193.95109,
2155.546,181.31827,
2152.636,195.32974,
2149.725,207.8255,
2146.815,211.89989,
2143.904,213.69889,
2140.993,213.79362,
2138.083,231.38901,
2135.172,236.08397,
2132.262,221.61884,
2129.351,232.59318,
2126.441,217.56305,
2123.530,206.73062,
2120.619,184.23848,
2117.709,190.41787,
2114.798,191.43852,
2111.888,189.75045,
2108.977,176.18543,
2106.067,151.24867,
2103.156,165.99588,
2100.245,151.99812,
2097.335,149.48167,
2094.424,150.12781,
2091.514,138.13976,
2088.603,137.27187,
2085.692,152.63934,
2082.782,152.93177,
2079.871,145.07118,
2076.961,154.28964,
2074.050,158.49697,
2071.140,133.02267,
2068.229,149.64584,
2065.318,142.97576,
2062.408,138.68912,
2059.497,139.8274,
2056.587,161.76724,
2053.676,145.76796,
2050.766,133.61585,
2047.855,128.68673,
2044.944,122.52242,
2042.034,144.89008,
2039.123,139.34343,
2036.213,157.07993,
2033.302,130.47836,
2030.391,123.06785,
2027.481,133.15843,
2024.570,142.89984,
2021.660,138.35478,
2018.749,149.3799,
2015.839,156.04068,
2012.928,140.44799,
2010.017,149.07817,
2007.107,145.93085,
2004.196,147.44047,
2001.286,144.39576,
1998.375,123.81987,
1995.465,143.31785,
1992.554,133.47074,
1989.643,138.72349,
1986.733,138.19737,
1983.822,124.56425,
1980.912,132.09934,
1978.001,143.49165,
1975.090,132.02289,
1972.180,129.27526,
1969.269,141.09484,
1966.359,137.21612,
1963.448,129.34742,
1960.538,137.73812,
1957.627,123.95045,
1954.716,155.02329,
1951.806,130.54646,
1948.895,139.97977,
1945.985,129.32353,
1943.074,119.48701,
1940.164,131.35578,
1937.253,136.30426,
1934.342,127.88022,
1931.432,123.81388,
1928.521,134.24698,
1925.611,135.27923,
1922.700,126.2942,
1919.790,138.64145,
1916.879,118.67399,
1913.968,116.00123,
1911.058,115.991,
1908.147,130.92994,
1905.237,133.22792,
1902.326,124.59258,
1899.415,137.09511,
1896.505,119.12644,
1893.594,109.54573,
1890.684,112.09802,
1887.773,115,
1884.863,141.15034,
1881.952,142.05014,
1879.041,140.53894,
1876.131,130.5987,
1873.220,103.59282,
1870.310,119.49324,
1867.399,129.85606,
1864.489,137.26007,
1861.578,119.0934,
1858.667,123.37423,
1855.757,142.60143,
1852.846,130.1949,
1849.936,113.1151,
1847.025,136.00488,
1844.114,119.63296,
1841.204,134.31468,
1838.293,118.53908,
1835.383,109.75549,
1832.472,133.26783,
1829.562,140.3612,
1826.651,124.9569,
1823.740,109.99232,
1820.830,152.52796,
1817.919,130.16743,
1815.009,144.26208,
1812.098,139.92126,
1809.188,107.1086,
1806.277,140.20325,
1803.366,139.78373,
1800.456,126.39547,
1797.545,116.09219,
1794.635,117.90301,
1791.724,127.46597,
1788.813,140.59434,
1785.903,122.29652,
1782.992,118.1222,
1780.082,114.50631,
1777.171,128.00536,
1774.261,150.19004,
1771.350,151.22975,
1768.439,138.91376,
1765.529,125.72684,
1762.618,123,
1759.708,125.0435,
1756.797,115.70454,
1753.887,123.48834,
1750.976,125.79647,
1748.065,132.1321,
1745.155,136.52906,
1742.244,132.01359,
1739.334,157.01882,
1736.423,142.85798,
1733.512,162.56106,
1730.602,153.80354,
1727.691,129.34381,
1724.781,139.73153,
1721.870,111.80934,
1718.960,143.46714,
1716.049,143.61025,
1713.138,155.67993,
1710.228,130.1505,
1707.317,154.30628,
1704.407,126.5561,
1701.496,119.35381,
1698.586,179.98297,
1695.675,167.22154,
1692.764,147.06556,
1689.854,192.87798,
1686.943,165.04549,
1684.033,203.98171,
1681.122,121.44436,
1678.211,224.99116,
1675.301,209.05242,
1672.390,171.01794,
1669.480,177.1444,
1666.569,195.24122,
1663.659,214.40831,
1660.748,237.68884,
1657.837,171.83105,
1654.927,209.02343,
1652.016,210.43738,
1649.106,228.88132,
1646.195,264.19181,
1643.285,271.04296,
1640.374,229.58188,
1637.463,210.41433,
1634.553,233.69456,
1631.642,280.02172,
1628.732,282.15406,
1625.821,307.99084,
1622.911,294.07889,
1620.000,324.60944,
1617.089,377.92537,
1614.179,386.77439,
1611.268,400.47951,
1608.358,406.71906,
1605.447,440.00027,
1602.536,429.88547,
1599.626,437.2794,
1596.715,471.58124,
1593.805,441.01539,
1590.894,419.3866,
1587.984,404.00862,
1585.073,389.23775,
1582.162,392.8442,
1579.252,408.72942,
1576.341,359.93088,
1573.431,397.12315,
1570.520,406.41374,
1567.610,384.13693,
1564.699,386.42539,
1561.788,387.88734,
1558.878,343.98592,
1555.967,351.74792,
1553.057,353.87943,
1550.146,332.86549,
1547.235,320.45804,
1544.325,319.13106,
1541.414,311.89914,
1538.504,321.44168,
1535.593,311.68045,
1532.683,285,
1529.772,287.58746,
1526.861,284.96507,
1523.951,283.45441,
1521.040,300.11085,
1518.130,297.71763,
1515.219,273.32013,
1512.309,269,
1509.398,269.64448,
1506.487,277.43278,
1503.577,304.4982,
1500.666,313.85146,
1497.756,272.38975,
1494.845,266.12061,
1491.934,292.90236,
1489.024,263.06508,
1486.113,274.0538,
1483.203,281.21717,
1480.292,258.24168,
1477.382,232.98555,
1474.471,213.4198,
1471.560,219.88499,
1468.650,240.39857,
1465.739,225.58285,
1462.829,221.95226,
1459.918,218.60765,
1457.008,236.38494,
1454.097,266.5459,
1451.186,260.52418,
1448.276,230.82401,
1445.365,203.24882,
1442.455,211.95885,
1439.544,255.27695,
1436.633,194.69911,
1433.723,201.11557,
1430.812,222.40894,
1427.902,214.00781,
1424.991,172.30626,
1422.081,178.33982,
1419.170,186.77654,
1416.259,202.58113,
1413.349,176.5456,
1410.438,179.59603,
1407.528,181.78129,
1404.617,188.2198,
1401.707,172.80238,
1398.796,164.85661,
1395.885,182.78745,
1392.975,181.4371,
1390.064,173.4179,
1387.154,180.11107,
1384.243,122.99907,
1381.332,93.356066,
1378.422,52.250843,
1375.511,134.68757,
1372.601,177.47067,
1369.690,205.00223,
1366.780,224.04867,
1363.869,217.82932,
1360.958,231.16562,
1358.048,212.70766,
1355.137,248.67114,
1352.227,265.51614,
1349.316,247.21911,
1346.406,281.23518,
1343.495,295.46693,
1340.584,322.92865,
1337.674,319.50081,
1334.763,333.9054,
1331.853,383.97588,
1328.942,326.40591,
1326.032,324.70934,
1323.121,357.12051,
1320.210,383.31618,
1317.300,378.01489,
1314.389,351.52744,
1311.479,328.44665,
1308.568,328.97978,
1305.657,356.80022,
1302.747,371.43136,
1299.836,317.49393,
1296.926,371.38456,
1294.015,379.65847,
1291.105,365.91133,
1288.194,436.68562,
1285.283,432.0879,
1282.373,452.10927,
1279.462,462.41189,
1276.552,460.71655,
1273.641,468.79606,
1270.731,472.35373,
1267.820,467.24643,
1264.909,469.58218,
1261.999,453.29822,
1259.088,488.87095,
1256.178,494.42583,
1253.267,470.44975,
1250.356,461.64549,
1247.446,443.39819,
1244.535,427.03573,
1241.625,414.52225,
1238.714,399.19774,
1235.804,388.84954,
1232.893,379.1171,
1229.982,413.65079,
1227.072,373.81706,
1224.161,404.62015,
1221.251,390.15374,
1218.340,349.96159,
1215.430,355.67302,
1212.519,349.19271,
1209.608,337.13628,
1206.698,366.63817,
1203.787,355.05026,
1200.877,377.22288,
1197.966,380.81952,
1195.055,366.49477,
1192.145,415.09135,
1189.234,420.32174,
1186.324,420.54608,
1183.413,427.7665,
1180.503,414.8235,
1177.592,397.77805,
1174.681,440.63356,
1171.771,443.96973,
1168.860,399.31526,
1165.950,430.47674,
1163.039,431.31757,
1160.129,397.91739,
1157.218,381.32662,
1154.307,374.49822,
1151.397,355,
1148.486,359.34584,
1145.576,384.69386,
1142.665,400.67629,
1139.754,397.93186,
1136.844,362.68516,
1133.933,366.7682,
1131.023,367.72551,
1128.112,363.28437,
1125.202,376.85991,
1122.291,368.88006,
1119.380,381.92205,
1116.470,373.97929,
1113.559,374.5465,
1110.649,372.38062,
1107.738,362.96273,
1104.828,356.4161,
1101.917,367.35547,
1099.006,391.47424,
1096.096,388.56997,
1093.185,381.54595,
1090.275,396.37613,
1087.364,367.0661,
1084.453,362.68682,
1081.543,377.13509,
1078.632,381.86606,
1075.722,378.38509,
1072.811,392.37948,
1069.901,383.64687,
1066.990,373.30002,
1064.079,394.13747,
1061.169,424.33054,
1058.258,436.18863,
1055.348,426.59062,
1052.437,410.09642,
1049.527,381.34266,
1046.616,416.09583,
1043.705,429.24918,
1040.795,423.06094,
1037.884,424.06885,
1034.974,428.88273,
1032.063,425.09237,
1029.153,417.96138,
1026.242,409.31181,
1023.331,441.49792,
1020.421,431.96667,
1017.510,440.68772,
1014.600,453.42293,
1011.689,458.84619,
1008.778,465.28216,
1005.868,432.13128,
1002.957,446.7573,
1000.047,465.01601,
997.136,489.2071,
994.226,504.67688,
991.315,509.82673,
988.404,511.40591,
985.494,497.73148,
982.583,485.73969,
979.673,471.56201,
976.762,467,
973.852,466.55799,
970.941,472.22399,
968.030,479.33514,
965.120,436.10024,
962.209,459.97142,
959.299,462.5835,
956.388,462,
953.477,458.30075,
950.567,458.75132,
947.656,472.10332,
944.746,450.01487,
941.835,453.85888,
938.925,459.60635,
936.014,474.64565,
933.103,479.23192,
930.193,464.00122,
927.282,459.86251,
924.372,457.32569,
921.461,454.0544,
918.551,438.47667,
915.640,435.64899,
912.729,443.85315,
909.819,440.55771,
906.908,459.93349,
903.998,440.32053,
901.087,437.54602,
898.176,443.29476,
895.266,448.9522,
892.355,457.28239,
889.445,490.85308,
886.534,489.33026,
883.624,461.41388,
880.713,469.9453,
877.802,479.88347,
874.892,458.26461,
871.981,454.68435,
869.071,441.31775,
866.160,443.13976,
863.250,450.24203,
860.339,471.10884,
857.428,490.05194,
854.518,448.09629,
851.607,451.42456,
848.697,471.25888,
845.786,467.02585,
842.875,457.44684,
839.965,461.82038,
837.054,460.85114,
834.144,447.59111,
831.233,459.66561,
828.323,442.27141,
825.412,428.91263,
822.501,455.34046,
819.591,462.77805,
816.680,413.32043,
813.770,407.26503,
810.859,414.15868,
807.949,424.89028,
805.038,443.89602,
802.127,451.30417,
799.217,459.45391,
796.306,448.94585,
793.396,439,
790.485,435.20955,
787.574,421.43593,
784.664,432.9175,
781.753,443.72279,
778.843,449.96033,
775.932,448.605,
773.022,442.64837,
770.111,453.27689,
767.200,451.71606,
764.290,450.42212,
761.379,456.69575,
758.469,460.722,
755.558,436.4408,
752.648,417.70492,
749.737,434.23647,
746.826,417.02673,
743.916,374.66868,
741.005,338.8295,
738.095,257.64182,
735.184,185.78981,
732.274,150.48205,
729.363,177.64912,
726.452,274.70401,
723.542,411.49148,
720.631,402.18014,
717.721,401.58276,
714.810,416.42038,
711.899,435,
708.989,435,
706.078,446.21824,
703.168,419.8534,
700.257,411.72687,
697.347,420.47895,
694.436,396.78178,
691.525,388.74373,
688.615,389.51564,
685.704,395.31694,
682.794,394.91496,
679.883,376.00921,
676.973,398.44759,
674.062,404.27616,
671.151,419.02656,
668.241,439.62073,
665.330,447.43276,
662.420,435.45178,
659.509,406.96783,
656.598,400.22225,
653.688,411.92017,
650.777,415.91808,
647.867,442.99323,
644.956,449,
642.046,439.04964,
639.135,426.04805,
636.224,429.96817,
633.314,423.61666,
630.403,418.45274,
627.493,429.82668,
624.582,450.05771,
621.672,441.34578,
618.761,426.56115,
615.850,437.42766,
612.940,446.92619,
610.029,441.52609,
607.119,444.68461,
604.208,436.47984,
601.297,422.03261,
598.387,425.61824,
595.476,460.06874,
592.566,439.60497,
589.655,434.05633,
586.745,439.50953,
583.834,434.82496,
580.923,388.02843,
578.013,392.73684,
575.102,385.39618,
572.192,376.49901,
569.281,376.92099,
566.371,404.31283,
563.460,430.28045,
560.549,444.87279,
557.639,443.82304,
554.728,429.7592,
551.818,473.45689,
548.907,461.67054,
545.996,451.11032,
543.086,451.63817,
540.175,431.39338,
537.265,440.13991,
534.354,446.50845,
531.444,445.93476,
528.533,437.61372,
525.622,432.18209,
522.712,438.88779,
519.801,451.6376,
516.891,465.25204,
513.980,471.44641,
511.070,462.84348,
508.159,458.52243,
505.248,466.76268,
502.338,493.36147,
499.427,505.71078,
496.517,511.26262,
493.606,504.25121,
490.695,483.04158,
487.785,454.55932,
484.874,479.08008,
481.964,502.05973,
479.053,502.07167,
476.143,460.60168,
473.232,488.21496,
470.321,489.7819,
467.411,478.24022,
464.500,475.65092,
461.590,461.8676,
458.679,506.97622,
455.769,526.20576,
452.858,481.47721,
449.947,486.0608,
447.037,515.51775,
444.126,522.90909,
441.216,504,
438.305,504,
435.395,517.76837,
432.484,506.66291,
429.573,480.28999,
426.663,477.24943,
423.752,446.31356,
420.842,403.7721,
417.931,377.83422,
415.020,408.9269,
412.110,464.13937,
409.199,489.37897,
406.289,494.26206,
403.378,492.00256,
400.468,492.75856,
397.557,493,
394.646,473.33777,
391.736,420.07243,
388.825,422.33513,
385.915,383.61767,
383.004,362.99162,
380.094,401.83891,
377.183,477.08654,
374.272,496.91444,
371.362,502.4752,
368.451,517.77204,
365.541,514.01936,
362.630,527.74849,
359.719,534.67258,
356.809,523.54051,
353.898,548.99965,
350.988,533.75804,
348.077,521.6794,
345.167,536.82692,
342.256,513.6678,
339.345,530.38303,
336.435,555.71907,
333.524,566.61421,
330.614,522.65002,
327.703,548.5322,
324.793,578.26626,
321.882,556.02704,
318.971,567.17868,
316.061,553.90901,
313.150,543.85236,
310.240,569.0843,
307.329,550.7048,
304.418,547.10358,
301.508,553.77231,
298.597,560.43606,
295.687,537.97383,
292.776,535.75005,
289.866,559.98817,
286.955,616.87003,
284.044,643.34248,
281.134,682.14188,
278.223,736.25129,
275.313,778.9889,
272.402,797.87535,
269.492,807.21797,
266.581,810.31838,
263.670,786.79261,
260.760,821.26828,
257.849,861.05302,
254.939,866.92408,
252.028,903.19224,
249.117,893.24497,
246.207,863.67412,
243.296,858.54987,
240.386,888.69061,
237.475,876.57016,
234.565,835.94647,
231.654,867.35296,
228.743,822.21687,
225.833,772.41394,
222.922,746,
220.012,746,
217.101,742.07427,
214.191,739.52992,
211.280,744.62216,
208.369,701.93995,
205.459,688.98501,
202.548,698.36768,
199.638,683.12905,
196.727,698.43891,
193.816,725.54602,
190.906,756.31434,
187.995,736.76568,
185.085,737.56569,
182.174,744.23705,
179.264,737.73215,
176.353,776.08751,
173.442,786.39815,
170.532,767.93216,
167.621,784.5146,
164.711,767.45172,
161.800,748.24576,
158.890,748.96549,
155.979,696.9619,
153.068,629.00686,
150.158,555.57183,
147.247,506.03312,
144.337,400.20132,
141.426,296.68969,
138.516,222.84989,
135.605,154.74547,
132.694,107.92832,
129.784,76.42521,
126.873,47.820017,
123.963,28.911387,
121.052,19.849868,
118.141,21.991574,
115.231,15.604867,
112.320,16.812723,
109.410,20.909158,
106.499,15.211916,
103.589,6.7166918,
100.678,0.7283783,
97.767,0.017440721,
94.857,-0.69298905,
91.946,-0.59688913,
89.036,0.67738745,
86.125,4.9326191,
83.215,4.9381593,
80.304,4.7182981,
77.393,6.8428079,
74.483,5.6897301,
71.572,4.2752958,
68.662,2.7921975,
65.751,0.67284427,
62.840,4.3353179,
59.930,7.6889966,
57.019,2.7534227,
54.109,-0.38864339,
51.198,-1.0951722,
48.288,1.0622869,
45.377,8.7994456,
42.466,11.587781,
39.556,10.539526,
36.645,7.7307648,
33.735,7,
30.824,8.5462088,
27.914,13.454436,
25.003,15.245275,
22.092,16,
19.182,16.732252,
16.271,39.115936,
13.361,167.27261,
10.450,418.85871,
7.539,929.32725,
4.629,1314.4829,
1.718,1409.2393,
-1.192,947.03246,
-4.103,550.13577,
-7.013,231.36859,
-9.924,1,
