,PL0506~1,
Wavenumbers [1/cm],Intensity,
3014.167,-1.375,
3011.256,3.1750107,
3008.346,70.052459,
3005.435,59.126769,
3002.525,73.172539,
2999.614,80.2393,
2996.704,79.76624,
2993.793,68.730416,
2990.882,84.754765,
2987.972,95.524101,
2985.061,84.935357,
2982.151,101.02837,
2979.240,107.15731,
2976.329,110.3709,
2973.419,115.51743,
2970.508,110.00834,
2967.598,106.72058,
2964.687,104.32677,
2961.777,108.68492,
2958.866,122.96081,
2955.955,125.69579,
2953.045,121.90912,
2950.134,130.65708,
2947.224,130.71041,
2944.313,135.42272,
2941.403,135.88686,
2938.492,143.32689,
2935.581,150.30227,
2932.671,141.35037,
2929.760,162.20961,
2926.850,158.52049,
2923.939,155.02688,
2921.028,153.24858,
2918.118,167.98015,
2915.207,148.63791,
2912.297,151.67154,
2909.386,166.6323,
2906.476,135.76549,
2903.565,154.52871,
2900.654,143.56636,
2897.744,151.66272,
2894.833,145.14064,
2891.923,147.84301,
2889.012,127.3302,
2886.102,134.60473,
2883.191,128.62878,
2880.280,55.122588,
2877.370,-104.46183,
2874.459,-172.45645,
2871.549,-58.571592,
2868.638,67.905347,
2865.727,113.07498,
2862.817,131.82553,
2859.906,123.58795,
2856.996,145.62953,
2854.085,185.11667,
2851.175,167.38408,
2848.264,153.90933,
2845.353,141.16418,
2842.443,165.2257,
2839.532,158.41608,
2836.622,160.625,
2833.711,170.61716,
2830.801,178.72574,
2827.890,169.89598,
2824.979,172.55099,
2822.069,173.81833,
2819.158,182.64386,
2816.248,168.13079,
2813.337,195.2433,
2810.427,176.14704,
2807.516,179.83359,
2804.605,177.91588,
2801.695,182.17761,
2798.784,170.77285,
2795.874,168.32419,
2792.963,174.26766,
2790.052,175.62371,
2787.142,176.76996,
2784.231,190.69023,
2781.321,162.87644,
2778.410,165.38008,
2775.500,167.45431,
2772.589,182.12576,
2769.678,195.48165,
2766.768,188.69683,
2763.857,182.88897,
2760.947,186.60609,
2758.036,190.40211,
2755.126,192.91346,
2752.215,195.19785,
2749.304,195.77429,
2746.394,186.31853,
2743.483,202.52496,
2740.573,200.86611,
2737.662,189.29512,
2734.751,189.39202,
2731.841,191.19277,
2728.930,194.76899,
2726.020,205.06887,
2723.109,202.85183,
2720.199,201.34996,
2717.288,214.69435,
2714.377,220.625,
2711.467,208.80522,
2708.556,205.28479,
2705.646,208.61094,
2702.735,205.64048,
2699.825,221.60319,
2696.914,226.67273,
2694.003,242.08354,
2691.093,232.96435,
2688.182,230.04278,
2685.272,240.3149,
2682.361,214.0191,
2679.450,219.57971,
2676.540,209.82824,
2673.629,221.28418,
2670.719,219.48636,
2667.808,227.09001,
2664.898,224.22227,
2661.987,233.89171,
2659.076,215.54958,
2656.166,235.49517,
2653.255,232.84439,
2650.345,239.05694,
2647.434,231.1683,
2644.524,241.44751,
2641.613,247.39684,
2638.702,238.8775,
2635.792,245.09459,
2632.881,242.6666,
2629.971,229.92021,
2627.060,236.12531,
2624.149,238.21874,
2621.239,239.11611,
2618.328,236.10855,
2615.418,265.64318,
2612.507,255.76335,
2609.597,251.90045,
2606.686,240.24752,
2603.775,258.02182,
2600.865,249.91852,
2597.954,272.39163,
2595.044,279.36547,
2592.133,255.89882,
2589.223,273.02291,
2586.312,262.30841,
2583.401,268.76735,
2580.491,269.72116,
2577.580,258.59364,
2574.670,243.22258,
2571.759,260.33219,
2568.848,265.80179,
2565.938,262.19639,
2563.027,262.50231,
2560.117,259.34464,
2557.206,270.76153,
2554.296,284.84926,
2551.385,268.37702,
2548.474,283.99563,
2545.564,295.43507,
2542.653,297.94043,
2539.743,289.82216,
2536.832,265.31845,
2533.922,316.12038,
2531.011,288.1997,
2528.100,289.62846,
2525.190,284.99672,
2522.279,299.20292,
2519.369,292.13434,
2516.458,286.72982,
2513.548,282.05224,
2510.637,297.0391,
2507.726,312.06736,
2504.816,292.56186,
2501.905,290.24817,
2498.995,290.64022,
2496.084,307.85149,
2493.173,290.72963,
2490.263,310.52336,
2487.352,300.29273,
2484.442,313.63143,
2481.531,312.83772,
2478.621,305.87615,
2475.710,324.50232,
2472.799,305.41876,
2469.889,301.44219,
2466.978,323.50114,
2464.068,299.93707,
2461.157,323.77997,
2458.247,317.96311,
2455.336,318.79332,
2452.425,315.03536,
2449.515,322.34226,
2446.604,332.15728,
2443.694,328.78783,
2440.783,339.34122,
2437.872,328.17197,
2434.962,340.78629,
2432.051,334.16201,
2429.141,341.16607,
2426.230,345.55981,
2423.320,355.52514,
2420.409,348.49041,
2417.498,349.01826,
2414.588,335.91024,
2411.677,358.66086,
2408.767,360.63681,
2405.856,378.1654,
2402.946,375.45789,
2400.035,350.44189,
2397.124,348.30948,
2394.214,361.625,
2391.303,358.40955,
2388.393,342.18776,
2385.482,329.02156,
2382.571,327.97968,
2379.661,320.74126,
2376.750,343.46231,
2373.840,382.94051,
2370.929,384.67915,
2368.019,370.28693,
2365.108,382.06741,
2362.197,389.76478,
2359.287,387.4484,
2356.376,407.5845,
2353.466,395.86819,
2350.555,382.25491,
2347.645,386.32168,
2344.734,371.92449,
2341.823,403.01142,
2338.913,396.44739,
2336.002,392.65852,
2333.092,397.76275,
2330.181,416.9421,
2327.270,380.93522,
2324.360,402.28068,
2321.449,396.53317,
2318.539,405.68923,
2315.628,401.65058,
2312.718,405.69108,
2309.807,433.39536,
2306.896,418.3887,
2303.986,427.54062,
2301.075,426.45481,
2298.165,425.81737,
2295.254,410.96969,
2292.344,423.9901,
2289.433,426.54772,
2286.522,416.89277,
2283.612,433.52552,
2280.701,434.02859,
2277.791,457.54298,
2274.880,432.69498,
2271.969,438.55916,
2269.059,456.14818,
2266.148,447.19762,
2263.238,422.53235,
2260.327,456.5214,
2257.417,444.70889,
2254.506,467.57093,
2251.595,466.6433,
2248.685,463.40957,
2245.774,461.31742,
2242.864,470.27337,
2239.953,480.99049,
2237.043,470.42895,
2234.132,446.07435,
2231.221,470.49592,
2228.311,483.23453,
2225.400,487.23096,
2222.490,476.03873,
2219.579,489.36023,
2216.669,490.64408,
2213.758,494.45246,
2210.847,484.92225,
2207.937,499.85136,
2205.026,509.29147,
2202.116,510.69189,
2199.205,506.22453,
2196.294,526.86497,
2193.384,537.046,
2190.473,516.17547,
2187.563,565.57666,
2184.652,552.91398,
2181.742,535.85205,
2178.831,537.78067,
2175.920,546.20788,
2173.010,552.42545,
2170.099,569.35665,
2167.189,592.53172,
2164.278,584.46721,
2161.368,610.05388,
2158.457,604.04863,
2155.546,614.7154,
2152.636,606.59845,
2149.725,620.43035,
2146.815,643.95762,
2143.904,648.23465,
2140.993,672.55621,
2138.083,669.05968,
2135.172,667.04523,
2132.262,662.85563,
2129.351,677.28031,
2126.441,656.35307,
2123.530,653.82703,
2120.619,666.9463,
2117.709,636.04287,
2114.798,623.85568,
2111.888,592.66333,
2108.977,595.60515,
2106.067,587.90718,
2103.156,571.94681,
2100.245,582.61183,
2097.335,561.625,
2094.424,569.04483,
2091.514,575.82109,
2088.603,564.13644,
2085.692,582.2607,
2082.782,586.27958,
2079.871,583.69618,
2076.961,600.39802,
2074.050,568.21894,
2071.140,545.93492,
2068.229,573.35287,
2065.318,581.04551,
2062.408,573.94272,
2059.497,580.2798,
2056.587,580.89273,
2053.676,568.7253,
2050.766,576.85519,
2047.855,564.73892,
2044.944,570.35416,
2042.034,585.17996,
2039.123,588.80345,
2036.213,567.43386,
2033.302,585.16809,
2030.391,586.01539,
2027.481,591.7346,
2024.570,579.92547,
2021.660,598.26503,
2018.749,608.11888,
2015.839,617.26214,
2012.928,596.08473,
2010.017,596.32641,
2007.107,589.43808,
2004.196,582.08928,
2001.286,589.68859,
1998.375,603.9754,
1995.465,586.38661,
1992.554,583.25439,
1989.643,594.2448,
1986.733,573.625,
1983.822,578.2801,
1980.912,599.33728,
1978.001,568.04058,
1975.090,558.40668,
1972.180,557.4189,
1969.269,561.07906,
1966.359,560.24649,
1963.448,573.6184,
1960.538,591.17463,
1957.627,557.0677,
1954.716,539.99845,
1951.806,562.02886,
1948.895,548.07443,
1945.985,540.02043,
1943.074,576.34456,
1940.164,564.59591,
1937.253,544.19457,
1934.342,531.52233,
1931.432,528.86159,
1928.521,540.17077,
1925.611,539.74191,
1922.700,544.95649,
1919.790,550.07005,
1916.879,509.69398,
1913.968,543.57951,
1911.058,590.98235,
1908.147,552.03083,
1905.237,539.83822,
1902.326,534.99833,
1899.415,524.23839,
1896.505,482.75144,
1893.594,494.52142,
1890.684,520.14134,
1887.773,523.51286,
1884.863,561.34254,
1881.952,568.37263,
1879.041,542.19976,
1876.131,560.05636,
1873.220,554.2931,
1870.310,563.76399,
1867.399,593.16119,
1864.489,547.8976,
1861.578,556.02599,
1858.667,566.54418,
1855.757,548.625,
1852.846,554.65575,
1849.936,565.97436,
1847.025,549.56661,
1844.114,551.64854,
1841.204,577.9222,
1838.293,599.62999,
1835.383,599.904,
1832.472,602.625,
1829.562,593.68177,
1826.651,586.57367,
1823.740,625.66339,
1820.830,612.84523,
1817.919,582.63683,
1815.009,588.75604,
1812.098,596.01082,
1809.188,610.69473,
1806.277,615.53647,
1803.366,613.62683,
1800.456,557.09807,
1797.545,598.1499,
1794.635,588.39808,
1791.724,617.81921,
1788.813,609.83297,
1785.903,621.02432,
1782.992,580.11234,
1780.082,546.84573,
1777.171,409.93814,
1774.261,362.00055,
1771.350,470.17478,
1768.439,586.88371,
1765.529,640.0834,
1762.618,654.96248,
1759.708,633.89663,
1756.797,649.98106,
1753.887,675.4457,
1750.976,674.6767,
1748.065,687.37154,
1745.155,688.32183,
1742.244,660.45022,
1739.334,667.79676,
1736.423,698.52777,
1733.512,688.70625,
1730.602,714.53775,
1727.691,711.03945,
1724.781,723.14311,
1721.870,706.70107,
1718.960,711.49179,
1716.049,730.40449,
1713.138,715.67009,
1710.228,722.19827,
1707.317,728.04786,
1704.407,718.74263,
1701.496,744.05989,
1698.586,741.08109,
1695.675,787.41043,
1692.764,740.44874,
1689.854,732.84153,
1686.943,761.61323,
1684.033,729.46943,
1681.122,782.69042,
1678.211,783.625,
1675.301,845.43383,
1672.390,834.44555,
1669.480,775.09027,
1666.569,833.2471,
1663.659,881.73933,
1660.748,888.66356,
1657.837,891.08426,
1654.927,910.99241,
1652.016,886.54463,
1649.106,962.62128,
1646.195,922.96067,
1643.285,937.69597,
1640.374,983.18598,
1637.463,963.30955,
1634.553,1001.556,
1631.642,1064.1245,
1628.732,1109.8798,
1625.821,1152.6381,
1622.911,1172.5123,
1620.000,1255.5667,
1617.089,1325.232,
1614.179,1404.3689,
1611.268,1480.7623,
1608.358,1528.4243,
1605.447,1637.1687,
1602.536,1638.9656,
1599.626,1705.7801,
1596.715,1697.1034,
1593.805,1622.2898,
1590.894,1652.3745,
1587.984,1609.1238,
1585.073,1537.8137,
1582.162,1529.1297,
1579.252,1491.1648,
1576.341,1490.6356,
1573.431,1475.3952,
1570.520,1442.343,
1567.610,1423.9386,
1564.699,1402.4993,
1561.788,1368.1605,
1558.878,1362.0871,
1555.967,1325.6458,
1553.057,1292.8665,
1550.146,1275.7923,
1547.235,1254.2765,
1544.325,1256.6322,
1541.414,1280.6665,
1538.504,1300.332,
1535.593,1275.4886,
1532.683,1229.2214,
1529.772,1209.0188,
1526.861,1206.4529,
1523.951,1246.4244,
1521.040,1275.5896,
1518.130,1240.8928,
1515.219,1278.5447,
1512.309,1284.9088,
1509.398,1264.1727,
1506.487,1228.5384,
1503.577,1221.5677,
1500.666,1213.8781,
1497.756,1252.0493,
1494.845,1302.3032,
1491.934,1222.5022,
1489.024,1184.9649,
1486.113,1225.3497,
1483.203,1201.0918,
1480.292,1176.4122,
1477.382,1204.9549,
1474.471,1149.6999,
1471.560,1145.1383,
1468.650,1124.6606,
1465.739,1111.9845,
1462.829,1146.8372,
1459.918,1175.5974,
1457.008,1163.3786,
1454.097,1149.4736,
1451.186,1149.9616,
1448.276,1142.4594,
1445.365,1107.2632,
1442.455,1055.4515,
1439.544,1066.7467,
1436.633,1066.0808,
1433.723,1046.619,
1430.812,1058.9996,
1427.902,1039.7976,
1424.991,1089.0812,
1422.081,1046.5861,
1419.170,1052.9937,
1416.259,1060.2954,
1413.349,1041.9887,
1410.438,1026.5279,
1407.528,1018.1188,
1404.617,991.55274,
1401.707,972.50524,
1398.796,963.07257,
1395.885,959.58567,
1392.975,942.54066,
1390.064,906.86566,
1387.154,929.19527,
1384.243,919.69064,
1381.332,836.61296,
1378.422,861.20466,
1375.511,872.44603,
1372.601,943.58592,
1369.690,975.34167,
1366.780,990.71349,
1363.869,1040.1195,
1360.958,1029.8959,
1358.048,1054.7836,
1355.137,1108.9606,
1352.227,1156.0434,
1349.316,1211.3983,
1346.406,1244.8105,
1343.495,1220.3724,
1340.584,1233.16,
1337.674,1286.449,
1334.763,1326.4133,
1331.853,1320.8499,
1328.942,1321.5145,
1326.032,1332.2281,
1323.121,1330.1792,
1320.210,1350.6004,
1317.300,1400.5803,
1314.389,1440.9864,
1311.479,1457.1201,
1308.568,1479.5846,
1305.657,1510.2202,
1302.747,1528.0572,
1299.836,1611.8879,
1296.926,1609.4878,
1294.015,1671.0825,
1291.105,1718.5326,
1288.194,1748.5873,
1285.283,1751.045,
1282.373,1773.039,
1279.462,1789.37,
1276.552,1817.1763,
1273.641,1852.6987,
1270.731,1849.6877,
1267.820,1816.7553,
1264.909,1810.3503,
1261.999,1816.2575,
1259.088,1833.5878,
1256.178,1832.9121,
1253.267,1791.9636,
1250.356,1762.6937,
1247.446,1759.3188,
1244.535,1744.2902,
1241.625,1740.9657,
1238.714,1739.6501,
1235.804,1684.4405,
1232.893,1682.4909,
1229.982,1723.5023,
1227.072,1719.8811,
1224.161,1676.7593,
1221.251,1679.0481,
1218.340,1628.8566,
1215.430,1614.4895,
1212.519,1604.8925,
1209.608,1582.1688,
1206.698,1575.3481,
1203.787,1548.62,
1200.877,1615.4081,
1197.966,1644.1812,
1195.055,1646.4782,
1192.145,1712.7432,
1189.234,1820.2656,
1186.324,1861.7154,
1183.413,1878.823,
1180.503,1906.6368,
1177.592,1892.1297,
1174.681,1841.2997,
1171.771,1866.6456,
1168.860,1867.5387,
1165.950,1780.5457,
1163.039,1756.133,
1160.129,1785.8873,
1157.218,1806.1828,
1154.307,1813.5296,
1151.397,1826.8002,
1148.486,1831.8153,
1145.576,1887.8904,
1142.665,1847.9343,
1139.754,1835.6751,
1136.844,1800.0105,
1133.933,1817.2963,
1131.023,1814.6039,
1128.112,1791.9814,
1125.202,1802.8327,
1122.291,1807.1263,
1119.380,1810.9455,
1116.470,1843.599,
1113.559,1836.7995,
1110.649,1838.2089,
1107.738,1806.8685,
1104.828,1790.5241,
1101.917,1813.3589,
1099.006,1820.9447,
1096.096,1802.7112,
1093.185,1787.7851,
1090.275,1811.7124,
1087.364,1794.2968,
1084.453,1834.8092,
1081.543,1841.7584,
1078.632,1803.0723,
1075.722,1805.9235,
1072.811,1789.8446,
1069.901,1849.2263,
1066.990,1790.5752,
1064.079,1840.2738,
1061.169,1877.8049,
1058.258,1880.6606,
1055.348,1882.7981,
1052.437,1892.8693,
1049.527,1869.2292,
1046.616,1884.8681,
1043.705,1887.3958,
1040.795,1901.0336,
1037.884,1905.5906,
1034.974,1895.1765,
1032.063,1881.9096,
1029.153,1883.7795,
1026.242,1918.3777,
1023.331,1902.9594,
1020.421,1940.0569,
1017.510,1945.8592,
1014.600,1961.5779,
1011.689,1991.0639,
1008.778,1976.986,
1005.868,1961.5478,
1002.957,1952.9442,
1000.047,2011.321,
997.136,2068.8645,
994.226,2100.3172,
991.315,2103.1448,
988.404,2084.464,
985.494,2051.5317,
982.583,2002.708,
979.673,1997.0883,
976.762,2005.8444,
973.852,2005.4369,
970.941,1991.401,
968.030,1975.7233,
965.120,1970.7575,
962.209,2002.3015,
959.299,1998.4178,
956.388,2024.8631,
953.477,2044.1037,
950.567,2053.049,
947.656,2093.0599,
944.746,2065.8741,
941.835,2081.6311,
938.925,2071.1479,
936.014,2069.6949,
933.103,2075.625,
930.193,2066.0367,
927.282,2027.5333,
924.372,2025.8421,
921.461,2041.0894,
918.551,2016.4165,
915.640,2000.9992,
912.729,2003.1844,
909.819,1990.9628,
906.908,2031.3992,
903.998,1996.2429,
901.087,2029.9074,
898.176,2039.832,
895.266,2037.2732,
892.355,2068.3527,
889.445,2077.5846,
886.534,2088.4783,
883.624,2089.9522,
880.713,2069.7211,
877.802,2027.6972,
874.892,1954.8418,
871.981,1818.8372,
869.071,1658.4379,
866.160,1681.682,
863.250,1833.5789,
860.339,1983.9166,
857.428,2049.5556,
854.518,2071.7364,
851.607,1971.8881,
848.697,1891.3458,
845.786,1841.3474,
842.875,1882.796,
839.965,2012.9701,
837.054,2088.1832,
834.144,2137.9084,
831.233,2176.2896,
828.323,2177.2716,
825.412,2168.4544,
822.501,2179.0718,
819.591,2181.551,
816.680,2179.2211,
813.770,2154.8179,
810.859,2115.3555,
807.949,2092.0665,
805.038,2109.3352,
802.127,2090.4032,
799.217,2101.2966,
796.306,2080.0843,
793.396,2086.3199,
790.485,2113.7796,
787.574,2066.6214,
784.664,2092.865,
781.753,2111.0447,
778.843,2141.639,
775.932,2166.9336,
773.022,2162.2995,
770.111,2127.9612,
767.200,2153.7936,
764.290,2123.9072,
761.379,2107.441,
758.469,2133.3679,
755.558,2162.3576,
752.648,2153.3969,
749.737,2171.8615,
746.826,2162.5775,
743.916,2128.456,
741.005,2097.5158,
738.095,2078.8426,
735.184,1959.3552,
732.274,1917.3581,
729.363,1950.877,
726.452,2016.3724,
723.542,2059.2703,
720.631,2126.6108,
717.721,2140.3237,
714.810,2147.0454,
711.899,2162.9913,
708.989,2151.6944,
706.078,2175.6641,
703.168,2167.0517,
700.257,2149.3736,
697.347,2141.9724,
694.436,2157.7778,
691.525,2163.4044,
688.615,2163.3672,
685.704,2153.5594,
682.794,2158.2418,
679.883,2212.7331,
676.973,2215.1372,
674.062,2209.2442,
671.151,2213.9533,
668.241,2218.1923,
665.330,2196.4527,
662.420,2171.692,
659.509,2169.7997,
656.598,2180.7127,
653.688,2200.9065,
650.777,2227.8689,
647.867,2205.5718,
644.956,2165.9526,
642.046,2102.7506,
639.135,2049.7037,
636.224,2073.1184,
633.314,2171.5667,
630.403,2213.7701,
627.493,2233.6906,
624.582,2238.8559,
621.672,2204.0081,
618.761,2224.6632,
615.850,2255.3175,
612.940,2296.8248,
610.029,2339.625,
607.119,2339.625,
604.208,2331.8149,
601.297,2370.002,
598.387,2388.9811,
595.476,2334.4077,
592.566,2353.2973,
589.655,2378.6533,
586.745,2402.3422,
583.834,2406.6458,
580.923,2367.644,
578.013,2370.7829,
575.102,2350.4022,
572.192,2355.3475,
569.281,2382.6424,
566.371,2327.0761,
563.460,2338.5562,
560.549,2376.3236,
557.639,2411.0421,
554.728,2415.999,
551.818,2390.2486,
548.907,2384.625,
545.996,2381.1259,
543.086,2369.0823,
540.175,2338.7151,
537.265,2372.1147,
534.354,2384.1199,
531.444,2389.0341,
528.533,2406.7838,
525.622,2423.0787,
522.712,2382.9388,
519.801,2337.8223,
516.891,2315.9462,
513.980,2342.2722,
511.070,2360.1206,
508.159,2363.282,
505.248,2363.6308,
502.338,2376.4835,
499.427,2405.8131,
496.517,2415.322,
493.606,2418.3075,
490.695,2419.2713,
487.785,2402.3359,
484.874,2410.6108,
481.964,2401.2597,
479.053,2382.3829,
476.143,2393.9023,
473.232,2385.9922,
470.321,2377.2727,
467.411,2379.2228,
464.500,2401.0238,
461.590,2377.2859,
458.679,2404.7433,
455.769,2431.3647,
452.858,2426.9548,
449.947,2410.9122,
447.037,2380.9275,
444.126,2397.6371,
441.216,2456.6833,
438.305,2462.7788,
435.395,2464.2806,
432.484,2437.9529,
429.573,2389.4424,
426.663,2341.5535,
423.752,2118.6354,
420.842,1865.155,
417.931,1651.4152,
415.020,1562.6873,
412.110,1932.7477,
409.199,2218.7691,
406.289,2362.08,
403.378,2323.397,
400.468,2256.1135,
397.557,2271.6438,
394.646,2321.9777,
391.736,2364.2286,
388.825,2383.0844,
385.915,2395.5435,
383.004,2405.3371,
380.094,2413.5501,
377.183,2392.4808,
374.272,2443.0742,
371.362,2505.6357,
368.451,2539.4822,
365.541,2504.207,
362.630,2490.2551,
359.719,2500.2395,
356.809,2530.2236,
353.898,2490.5373,
350.988,2484.5074,
348.077,2498.7893,
345.167,2521.5059,
342.256,2479.6701,
339.345,2471.345,
336.435,2490.1702,
333.524,2529.6385,
330.614,2498.342,
327.703,2516.3489,
324.793,2547.0075,
321.882,2559.5475,
318.971,2527.5794,
316.061,2562.0382,
313.150,2616.5536,
310.240,2638.817,
307.329,2656.7763,
304.418,2668.6405,
301.508,2689.5912,
298.597,2745.8629,
295.687,2676.8058,
292.776,2697.042,
289.866,2792.6851,
286.955,2878.3773,
284.044,2979.1749,
281.134,3061.3589,
278.223,3125.5887,
275.313,3207.3796,
272.402,3224.625,
269.492,3223.3576,
266.581,3215.6327,
263.670,3145.7906,
260.760,3199.8034,
257.849,3291.4913,
254.939,3359.7424,
252.028,3354.8342,
249.117,3332.9814,
246.207,3314.3603,
243.296,3332.6612,
240.386,3387.5173,
237.475,3381.0482,
234.565,3320.3334,
231.654,3286.7358,
228.743,3296.886,
225.833,3277.6109,
222.922,3201.3296,
220.012,3130.6597,
217.101,3119.4022,
214.191,3108.8947,
211.280,3033.2386,
208.369,3018.8784,
205.459,2963.521,
202.548,2896.2769,
199.638,2952.1518,
196.727,2920.985,
193.816,2889.926,
190.906,2889.2537,
187.995,2850.1564,
185.085,2812.0365,
182.174,2775.0267,
179.264,2739.6112,
176.353,2745.8775,
173.442,2755.9757,
170.532,2757.1565,
167.621,2701.6413,
164.711,2660.3466,
161.800,2557.7346,
158.890,2326.702,
155.979,2161.5648,
153.068,1973.9827,
150.158,1763.7593,
147.247,1541.1941,
144.337,1273.0304,
141.426,1003.15,
138.516,751.52122,
135.605,527.03903,
132.694,353.82867,
129.784,228.68803,
126.873,157.17504,
123.963,112.46428,
121.052,76.027117,
118.141,41.759821,
115.231,48.020133,
112.320,42.575917,
109.410,31.079579,
106.499,28.230958,
103.589,23.142964,
100.678,20.168243,
97.767,21.590119,
94.857,17.467066,
91.946,16.834333,
89.036,17.044429,
86.125,7.1155555,
83.215,5.6868407,
80.304,6.3855673,
77.393,5.6773974,
74.483,8.9006748,
71.572,8.4508873,
68.662,4.34793,
65.751,1.5221257,
62.840,4.4786159,
59.930,7.5012828,
57.019,3.2707909,
54.109,0.23635661,
51.198,-0.1685629,
48.288,2.6533122,
45.377,6.1702025,
42.466,6.8005613,
39.556,4.81917,
36.645,-0.096161551,
33.735,1.2212423,
30.824,3.1832261,
27.914,1.7808756,
25.003,-0.8655499,
22.092,-0.76047721,
19.182,2.3732885,
16.271,-5.3211029,
13.361,-2.0531303,
10.450,-11.764033,
7.539,-118.60628,
4.629,-456.68631,
1.718,-844.66176,
-1.192,-1161.8625,
-4.103,-885.17153,
-7.013,-474.55185,
-9.924,-3.375,
