,PLC4B4~1,
Raman shift [1/cm],Intensity,
3014.167,3.75,
3011.256,-2.1499785,
3008.346,156.77784,
3005.435,198.09629,
3002.525,197.95749,
2999.614,180.78122,
2996.704,207.02423,
2993.793,201.5023,
2990.882,206.52859,
2987.972,231.71469,
2985.061,224.75,
2982.151,232.67606,
2979.240,229.76424,
2976.329,267.54505,
2973.419,260.9346,
2970.508,272.23328,
2967.598,270.89699,
2964.687,292.79484,
2961.777,270.91218,
2958.866,296.43201,
2955.955,288.65043,
2953.045,294.25338,
2950.134,307.22811,
2947.224,319.49019,
2944.313,333.51424,
2941.403,338.00045,
2938.492,343.77169,
2935.581,346.00278,
2932.671,354.59121,
2929.760,355.93845,
2926.850,352.69774,
2923.939,353.26868,
2921.028,360.83238,
2918.118,374.1102,
2915.207,390.46537,
2912.297,371.87271,
2909.386,392.13687,
2906.476,388.36236,
2903.565,390.33074,
2900.654,401.59629,
2897.744,383.83801,
2894.833,387.03873,
2891.923,376.0737,
2889.012,374.03902,
2886.102,377.91757,
2883.191,375.74906,
2880.280,377.23324,
2877.370,368.09298,
2874.459,343.56149,
2871.549,372.44739,
2868.638,405.25307,
2865.727,403.19998,
2862.817,405.19252,
2859.906,395.14315,
2856.996,418.72736,
2854.085,418.46848,
2851.175,410.8675,
2848.264,395.044,
2845.353,401.83627,
2842.443,408.14582,
2839.532,402.43662,
2836.622,395.23307,
2833.711,390.95723,
2830.801,401.94412,
2827.890,393.3951,
2824.979,396.81195,
2822.069,411.5453,
2819.158,401.35109,
2816.248,418.23263,
2813.337,414.88414,
2810.427,423.27204,
2807.516,414.33281,
2804.605,414.22357,
2801.695,434.53949,
2798.784,408.26338,
2795.874,404.18008,
2792.963,406.60723,
2790.052,408.75,
2787.142,405.03946,
2784.231,394.52486,
2781.321,395.31574,
2778.410,408.72969,
2775.500,418.04759,
2772.589,422.98089,
2769.678,414.07428,
2766.768,415.54808,
2763.857,426.48989,
2760.947,442.19011,
2758.036,425.97289,
2755.126,425.69445,
2752.215,447.28182,
2749.304,418.96406,
2746.394,443.96169,
2743.483,437.05003,
2740.573,428.08848,
2737.662,425.73965,
2734.751,440.52152,
2731.841,447.93864,
2728.930,443.52543,
2726.020,441.63773,
2723.109,440.75,
2720.199,443.61248,
2717.288,463.60768,
2714.377,459.46278,
2711.467,470.15989,
2708.556,468.27126,
2705.646,471.28522,
2702.735,476.24742,
2699.825,469.83726,
2696.914,477.08365,
2694.003,486.69472,
2691.093,473.6429,
2688.182,485.44185,
2685.272,465.50249,
2682.361,479.44432,
2679.450,489.56885,
2676.540,498.03866,
2673.629,471.38225,
2670.719,485.46534,
2667.808,499.97183,
2664.898,472.86673,
2661.987,490.25017,
2659.076,493.25862,
2656.166,496.15263,
2653.255,484.41837,
2650.345,486.80626,
2647.434,492.43591,
2644.524,510.17451,
2641.613,512.34962,
2638.702,498.86047,
2635.792,512.90653,
2632.881,513.63686,
2629.971,514.87751,
2627.060,527.415,
2624.149,533.40001,
2621.239,516.4837,
2618.328,515.55536,
2615.418,530.43181,
2612.507,524.37055,
2609.597,540.18912,
2606.686,537.30824,
2603.775,541.82936,
2600.865,543.57254,
2597.954,504.61865,
2595.044,548.02724,
2592.133,542.40587,
2589.223,547.69002,
2586.312,559.89574,
2583.401,549.0164,
2580.491,555.26919,
2577.580,555.77476,
2574.670,569.08958,
2571.759,561.44692,
2568.848,547.22508,
2565.938,571.17861,
2563.027,566.84772,
2560.117,564.93691,
2557.206,577.21494,
2554.296,579.75,
2551.385,571.86592,
2548.474,580.75038,
2545.564,586.81331,
2542.653,581.1292,
2539.743,576.73768,
2536.832,596.62851,
2533.922,596.62385,
2531.011,590.67484,
2528.100,601.08103,
2525.190,596.26312,
2522.279,603.60931,
2519.369,601.95747,
2516.458,606.41785,
2513.548,602.08644,
2510.637,610.68852,
2507.726,610.68681,
2504.816,618.93828,
2501.905,616.44573,
2498.995,615.01815,
2496.084,585.91027,
2493.173,601.64537,
2490.263,627.3229,
2487.352,636.83347,
2484.442,638.75,
2481.531,642.43613,
2478.621,635.76892,
2475.710,668.68099,
2472.799,658.02356,
2469.889,651.2957,
2466.978,648.30671,
2464.068,628.59649,
2461.157,657.75,
2458.247,650.92639,
2455.336,656.91832,
2452.425,666.53302,
2449.515,656.9392,
2446.604,671.99429,
2443.694,668.7969,
2440.783,665.41441,
2437.872,672.29697,
2434.962,683.59793,
2432.051,677.67598,
2429.141,677.19122,
2426.230,684.16328,
2423.320,686.90712,
2420.409,691.91018,
2417.498,697.55337,
2414.588,686.12267,
2411.677,676.71817,
2408.767,703.25591,
2405.856,710.84759,
2402.946,719.80362,
2400.035,724.34625,
2397.124,708.34356,
2394.214,725.07161,
2391.303,710.39634,
2388.393,718.00349,
2385.482,712.97031,
2382.571,727.01502,
2379.661,749.65705,
2376.750,742.17119,
2373.840,738.61251,
2370.929,759.51175,
2368.019,759.02646,
2365.108,768.00654,
2362.197,766.72263,
2359.287,758.77507,
2356.376,759.74296,
2353.466,782.70734,
2350.555,751.62535,
2347.645,777.99899,
2344.734,784.96198,
2341.823,775.89925,
2338.913,771.92761,
2336.002,775.71648,
2333.092,779.62358,
2330.181,793.085,
2327.270,785.46507,
2324.360,779.82546,
2321.449,793.2126,
2318.539,811.85704,
2315.628,802.10371,
2312.718,806.34912,
2309.807,822.75,
2306.896,825.77348,
2303.986,827.7889,
2301.075,807.64366,
2298.165,815.11565,
2295.254,805.0516,
2292.344,812.16486,
2289.433,831.71909,
2286.522,838.12488,
2283.612,846.22958,
2280.701,854.13563,
2277.791,874.70805,
2274.880,846.96805,
2271.969,844.87346,
2269.059,861.66009,
2266.148,866.2091,
2263.238,864.95077,
2260.327,865.78462,
2257.417,883.78278,
2254.506,894.32264,
2251.595,898.17177,
2248.685,901.54039,
2245.774,892.64025,
2242.864,896.62033,
2239.953,894.75,
2237.043,894.75,
2234.132,889.79418,
2231.221,904.22554,
2228.311,928.27704,
2225.400,910.70694,
2222.490,942.26463,
2219.579,941.56237,
2216.669,960.21423,
2213.758,962.53169,
2210.847,981.51319,
2207.937,981.95359,
2205.026,996.08353,
2202.116,987.86572,
2199.205,980.98741,
2196.294,1005.7919,
2193.384,1024.4605,
2190.473,1033.3298,
2187.563,1035.808,
2184.652,1051.8165,
2181.742,1085.0922,
2178.831,1124.6995,
2175.920,1151.9103,
2173.010,1193.2778,
2170.099,1260.4772,
2167.189,1332.0155,
2164.278,1380.7822,
2161.368,1471.6046,
2158.457,1551.7094,
2155.546,1617.7789,
2152.636,1682.952,
2149.725,1745.8573,
2146.815,1807.9147,
2143.904,1868.1589,
2140.993,1888.586,
2138.083,1901.1633,
2135.172,1918.8424,
2132.262,1915.2606,
2129.351,1882.7463,
2126.441,1809.7886,
2123.530,1816.0541,
2120.619,1742.2276,
2117.709,1638.6997,
2114.798,1537.6727,
2111.888,1468.2509,
2108.977,1394.7102,
2106.067,1337.2068,
2103.156,1304.9945,
2100.245,1225.7406,
2097.335,1207.6191,
2094.424,1171.8251,
2091.514,1143.2636,
2088.603,1150.5611,
2085.692,1121.3374,
2082.782,1117.6978,
2079.871,1118.1071,
2076.961,1121.4917,
2074.050,1096.1682,
2071.140,1088.129,
2068.229,1098.4024,
2065.318,1077.9845,
2062.408,1068.871,
2059.497,1085.3988,
2056.587,1091.8199,
2053.676,1053.4521,
2050.766,1090.0549,
2047.855,1063.4367,
2044.944,1057.6715,
2042.034,1080.2701,
2039.123,1052.1305,
2036.213,1062.0567,
2033.302,1058.4241,
2030.391,1062.631,
2027.481,1077.9329,
2024.570,1068.1075,
2021.660,1048.8143,
2018.749,1043.864,
2015.839,1048.0951,
2012.928,1057.6695,
2010.017,1059.7761,
2007.107,1060.2622,
2004.196,1073.4762,
2001.286,1058.5804,
1998.375,1033.0079,
1995.465,1034.2562,
1992.554,1041.8852,
1989.643,1055.3007,
1986.733,1071.2886,
1983.822,1028.3143,
1980.912,1034.9384,
1978.001,1035.403,
1975.090,1009.1637,
1972.180,1011.9561,
1969.269,1012.2586,
1966.359,1020.6691,
1963.448,1037.5162,
1960.538,1060.2262,
1957.627,1046.0255,
1954.716,996.15761,
1951.806,1023.3461,
1948.895,1028.8837,
1945.985,993.44771,
1943.074,1009.7869,
1940.164,1002.9711,
1937.253,1003.1934,
1934.342,990.60455,
1931.432,995.10962,
1928.521,1004.256,
1925.611,971.91913,
1922.700,979.74447,
1919.790,981.30495,
1916.879,1006.797,
1913.968,1004.7549,
1911.058,972.41066,
1908.147,981.21861,
1905.237,973.77939,
1902.326,956.43148,
1899.415,970.46466,
1896.505,1003.6174,
1893.594,1000.5671,
1890.684,985.19456,
1887.773,980.30143,
1884.863,995.12813,
1881.952,1000.8425,
1879.041,996.45457,
1876.131,984.16308,
1873.220,973.03315,
1870.310,1002.3822,
1867.399,959.48571,
1864.489,975.06155,
1861.578,983.3104,
1858.667,988.89671,
1855.757,1004.0984,
1852.846,1047.1757,
1849.936,1001.6339,
1847.025,1005.9227,
1844.114,1014.7029,
1841.204,1010.4178,
1838.293,1026.7384,
1835.383,1021.1805,
1832.472,1023.2039,
1829.562,1016.4187,
1826.651,1048.7766,
1823.740,1063.3822,
1820.830,1064.8366,
1817.919,1062.4925,
1815.009,1081.4434,
1812.098,1076.6713,
1809.188,1056.0524,
1806.277,1050.8385,
1803.366,1056.2325,
1800.456,1085.2996,
1797.545,1092.8139,
1794.635,1077.6201,
1791.724,1099.7889,
1788.813,1087.7603,
1785.903,1103.5699,
1782.992,1070.0645,
1780.082,1113.7121,
1777.171,1086.0798,
1774.261,1083.7002,
1771.350,1113.0395,
1768.439,1113.8543,
1765.529,1099.6602,
1762.618,1123.6594,
1759.708,1146.3479,
1756.797,1136.2273,
1753.887,1137.8535,
1750.976,1149.3397,
1748.065,1146.6778,
1745.155,1144.1113,
1742.244,1137.7908,
1739.334,1168.3006,
1736.423,1162.5538,
1733.512,1163.2094,
1730.602,1200.4108,
1727.691,1185.6495,
1724.781,1202.1339,
1721.870,1201.5071,
1718.960,1223.5947,
1716.049,1237.1397,
1713.138,1261.8349,
1710.228,1247.4738,
1707.317,1235.9043,
1704.407,1232.0548,
1701.496,1261.8311,
1698.586,1249.0423,
1695.675,1243.0715,
1692.764,1251.2705,
1689.854,1268.9705,
1686.943,1237.8629,
1684.033,1340.1174,
1681.122,1307.3617,
1678.211,1341.4169,
1675.301,1333.7747,
1672.390,1381.7859,
1669.480,1394.0548,
1666.569,1432.0293,
1663.659,1454.338,
1660.748,1490.4827,
1657.837,1528.1655,
1654.927,1547.078,
1652.016,1560.7986,
1649.106,1563.3865,
1646.195,1588.2225,
1643.285,1569.0514,
1640.374,1668.0218,
1637.463,1680.75,
1634.553,1682.2278,
1631.642,1781.1083,
1628.732,1814.1826,
1625.821,1886.8056,
1622.911,1971.271,
1620.000,2068.5153,
1617.089,2203.0435,
1614.179,2378.7302,
1611.268,2460.7758,
1608.358,2593.3821,
1605.447,2756.2656,
1602.536,2762.0225,
1599.626,2815.1061,
1596.715,2786.1688,
1593.805,2803.3196,
1590.894,2790.7786,
1587.984,2822.5276,
1585.073,2773.2977,
1582.162,2743.7127,
1579.252,2704.5631,
1576.341,2671.917,
1573.431,2620.3259,
1570.520,2622.2732,
1567.610,2552.239,
1564.699,2576.7771,
1561.788,2534.483,
1558.878,2504.6534,
1555.967,2478.3054,
1553.057,2411.5264,
1550.146,2393.6554,
1547.235,2341.5367,
1544.325,2305.4053,
1541.414,2307.5898,
1538.504,2292.9049,
1535.593,2232.0586,
1532.683,2181.2094,
1529.772,2155.4442,
1526.861,2115.9221,
1523.951,2096.4502,
1521.040,2060.3343,
1518.130,2041.344,
1515.219,2057.1906,
1512.309,2034.5293,
1509.398,2018.0904,
1506.487,1985.7819,
1503.577,1957.5385,
1500.666,2000.8473,
1497.756,1980.868,
1494.845,1921.1897,
1491.934,1907.624,
1489.024,1869.1243,
1486.113,1860.3323,
1483.203,1830.4405,
1480.292,1808.9313,
1477.382,1776.6531,
1474.471,1798.143,
1471.560,1784.98,
1468.650,1804.0809,
1465.739,1743.7341,
1462.829,1681.2646,
1459.918,1704.3194,
1457.008,1748.9656,
1454.097,1754.8933,
1451.186,1749.0769,
1448.276,1722.3876,
1445.365,1672.2863,
1442.455,1682.7565,
1439.544,1699.275,
1436.633,1721.0598,
1433.723,1676.6495,
1430.812,1623.3702,
1427.902,1667.9833,
1424.991,1635.7594,
1422.081,1600.8033,
1419.170,1627.9921,
1416.259,1557.4141,
1413.349,1558.631,
1410.438,1554.2533,
1407.528,1544.6001,
1404.617,1554.0797,
1401.707,1579.7081,
1398.796,1567.8445,
1395.885,1562.5534,
1392.975,1563.7486,
1390.064,1501.1614,
1387.154,1498.1144,
1384.243,1484.8175,
1381.332,1449.2953,
1378.422,1475.4017,
1375.511,1585.0051,
1372.601,1665.0835,
1369.690,1738.6134,
1366.780,1772.719,
1363.869,1821.6121,
1360.958,1891.2275,
1358.048,1886.7112,
1355.137,1933.0889,
1352.227,2054.2275,
1349.316,2137.9702,
1346.406,2165.1362,
1343.495,2199.926,
1340.584,2274.285,
1337.674,2322.4284,
1334.763,2322.5022,
1331.853,2394.8263,
1328.942,2458.2336,
1326.032,2483.6937,
1323.121,2515.1657,
1320.210,2507.4361,
1317.300,2560.1341,
1314.389,2612.5141,
1311.479,2639.6625,
1308.568,2665.2643,
1305.657,2667.7833,
1302.747,2694.0895,
1299.836,2820.0842,
1296.926,2840.0401,
1294.015,2910.828,
1291.105,2957.7771,
1288.194,3070.7816,
1285.283,3157.8943,
1282.373,3245.031,
1279.462,3303.1614,
1276.552,3334.6871,
1273.641,3365.175,
1270.731,3389.044,
1267.820,3392.4506,
1264.909,3403.2336,
1261.999,3406.1508,
1259.088,3389.7326,
1256.178,3347.6401,
1253.267,3335.3796,
1250.356,3267.3791,
1247.446,3133.6595,
1244.535,3056.7947,
1241.625,3028.739,
1238.714,2979.1819,
1235.804,2936.0122,
1232.893,2899.8825,
1229.982,2862.6836,
1227.072,2772.1524,
1224.161,2737.1729,
1221.251,2723.5604,
1218.340,2663.7425,
1215.430,2623.9414,
1212.519,2609.5058,
1209.608,2578.7787,
1206.698,2555.6015,
1203.787,2607.3982,
1200.877,2623.8117,
1197.966,2657.0806,
1195.055,2701.4124,
1192.145,2766.6034,
1189.234,2812.3505,
1186.324,2892.2108,
1183.413,2948.5165,
1180.503,2940.6323,
1177.592,2903.3254,
1174.681,2842.9623,
1171.771,2822.4106,
1168.860,2764.3598,
1165.950,2732.1424,
1163.039,2706.8931,
1160.129,2734.7312,
1157.218,2727.06,
1154.307,2691.379,
1151.397,2680.5835,
1148.486,2648.4532,
1145.576,2629.326,
1142.665,2619.5589,
1139.754,2614.6819,
1136.844,2578.7349,
1133.933,2546.7413,
1131.023,2556.4664,
1128.112,2563.2525,
1125.202,2532.4746,
1122.291,2537.6328,
1119.380,2557.9839,
1116.470,2581.8121,
1113.559,2569.285,
1110.649,2578.5018,
1107.738,2591.1082,
1104.828,2602.8237,
1101.917,2603.2821,
1099.006,2586.0076,
1096.096,2610.32,
1093.185,2603.296,
1090.275,2619.7447,
1087.364,2601.7941,
1084.453,2587.2503,
1081.543,2573.2327,
1078.632,2572.2858,
1075.722,2601.6306,
1072.811,2609.2536,
1069.901,2602.2675,
1066.990,2634.0833,
1064.079,2633.5838,
1061.169,2652.3944,
1058.258,2694.0417,
1055.348,2736.9204,
1052.437,2767.8497,
1049.527,2789.1864,
1046.616,2800.4811,
1043.705,2806.3746,
1040.795,2805.8345,
1037.884,2818.4049,
1034.974,2845.9021,
1032.063,2861.4041,
1029.153,2839.2161,
1026.242,2876.4092,
1023.331,2901.0818,
1020.421,2921.7833,
1017.510,2915.8637,
1014.600,2929.857,
1011.689,2969.5917,
1008.778,2996.5729,
1005.868,3054.6844,
1002.957,3158.7872,
1000.047,3305.0621,
997.136,3421.2925,
994.226,3462.5039,
991.315,3456.8812,
988.404,3442.6186,
985.494,3342.3499,
982.583,3279.8213,
979.673,3218.8031,
976.762,3247.3053,
973.852,3258.6495,
970.941,3243.4944,
968.030,3265.7846,
965.120,3220.7715,
962.209,3225.8867,
959.299,3227.4582,
956.388,3240.6292,
953.477,3244.9956,
950.567,3261.0624,
947.656,3327.4104,
944.746,3309.5697,
941.835,3297.4126,
938.925,3281.589,
936.014,3282.8432,
933.103,3284.3943,
930.193,3264.56,
927.282,3230.3293,
924.372,3204.1155,
921.461,3152.1476,
918.551,3110.9317,
915.640,3094.1749,
912.729,3082.9423,
909.819,3050.8612,
906.908,3051.7036,
903.998,3051.75,
901.087,3095.6689,
898.176,3115.978,
895.266,3126.6199,
892.355,3165.6189,
889.445,3191.6361,
886.534,3208.4474,
883.624,3274.9962,
880.713,3303.7086,
877.802,3306.9609,
874.892,3311.97,
871.981,3290.3949,
869.071,3275.3575,
866.160,3285.1693,
863.250,3278.1691,
860.339,3256.7267,
857.428,3245.8284,
854.518,3274.9556,
851.607,3247.4973,
848.697,3233.8084,
845.786,3236.4966,
842.875,3237.1572,
839.965,3238.2455,
837.054,3290.5453,
834.144,3272.3128,
831.233,3270.7499,
828.323,3265.8151,
825.412,3258.4621,
822.501,3250.9839,
819.591,3224.5391,
816.680,3134.0063,
813.770,3087.3164,
810.859,3058.7615,
807.949,3029.8987,
805.038,2997.5553,
802.127,2987.6778,
799.217,2956.189,
796.306,2946.8851,
793.396,2955.5363,
790.485,2969.6452,
787.574,2977.7775,
784.664,3004.8412,
781.753,3005.0531,
778.843,2991.9682,
775.932,3006.6755,
773.022,3059.2977,
770.111,3024.1418,
767.200,3052.2025,
764.290,3047.3031,
761.379,3015.4812,
758.469,2981.7037,
755.558,2976.7289,
752.648,2942.5155,
749.737,2944.889,
746.826,2904.0603,
743.916,2842.2564,
741.005,2801.7016,
738.095,2659.6232,
735.184,2505.4585,
732.274,2490.1923,
729.363,2594.341,
726.452,2757.8161,
723.542,2913.2196,
720.631,2937.8053,
717.721,2959.9354,
714.810,2962.8523,
711.899,2945.8094,
708.989,2941.7748,
706.078,2948.9617,
703.168,2913.1023,
700.257,2898.2392,
697.347,2914.1411,
694.436,2922.3136,
691.525,2906.2375,
688.615,2922.2462,
685.704,2918.6407,
682.794,2896.8777,
679.883,2891.5069,
676.973,2908.3357,
674.062,2934.721,
671.151,2928.0251,
668.241,2897.7468,
665.330,2883.6786,
662.420,2924.4139,
659.509,2941.0041,
656.598,2927.5745,
653.688,2908.1208,
650.777,2923.5061,
647.867,2945.8032,
644.956,2894.4073,
642.046,2890.0157,
639.135,2923.108,
636.224,2887.0922,
633.314,2955.3709,
630.403,2955.6049,
627.493,2947.9748,
624.582,2959.1643,
621.672,2978.9641,
618.761,3001.7882,
615.850,3026.9326,
612.940,3057.4606,
610.029,3085.9087,
607.119,3074.8539,
604.208,3089.3703,
601.297,3100.2367,
598.387,3091.5649,
595.476,3063.1325,
592.566,3109.5695,
589.655,3099.6091,
586.745,3091.4859,
583.834,3078.1595,
580.923,3022.5604,
578.013,2991.1711,
575.102,2973.5726,
572.192,3006.4086,
569.281,3067.6268,
566.371,3011.2779,
563.460,3075.5914,
560.549,3105.7246,
557.639,3103.7958,
554.728,3098.6077,
551.818,3143.8661,
548.907,3140.9523,
545.996,3158.0213,
543.086,3195.7368,
540.175,3186.3931,
537.265,3189.3714,
534.354,3201.2855,
531.444,3202.2756,
528.533,3179.0744,
525.622,3197.6971,
522.712,3245.4362,
519.801,3276.805,
516.891,3295.0529,
513.980,3360.8681,
511.070,3375.9065,
508.159,3422.2534,
505.248,3463.7428,
502.338,3451.7547,
499.427,3554.4084,
496.517,3599.2853,
493.606,3610.0581,
490.695,3605.6059,
487.785,3611.7642,
484.874,3592.7171,
481.964,3591.7167,
479.053,3606.3016,
476.143,3608.6055,
473.232,3639.6844,
470.321,3612.3373,
467.411,3571.2565,
464.500,3572.6142,
461.590,3567.2541,
458.679,3571.8032,
455.769,3601.6401,
452.858,3653.7616,
449.947,3634.6633,
447.037,3631.9635,
444.126,3624.6167,
441.216,3616.703,
438.305,3650.9899,
435.395,3653.7831,
432.484,3669.0033,
429.573,3705.7727,
426.663,3765.8238,
423.752,3698.2184,
420.842,3690.4977,
417.931,3736.203,
415.020,3797.63,
412.110,3833.4042,
409.199,3861.8869,
406.289,3871.6166,
403.378,3849.6475,
400.468,3819.4078,
397.557,3842.6556,
394.646,3857.3199,
391.736,3811.7118,
388.825,3779.2798,
385.915,3752.7198,
383.004,3758.0236,
380.094,3809.5946,
377.183,3826.149,
374.272,3892.0842,
371.362,3953.1685,
368.451,3977.984,
365.541,4014.7602,
362.630,4043.8684,
359.719,4046.7274,
356.809,4017.2452,
353.898,4041.9555,
350.988,4093.7764,
348.077,4117.52,
345.167,4083.2798,
342.256,4093.7387,
339.345,4073.367,
336.435,4073.2918,
333.524,4126.0219,
330.614,4102.922,
327.703,4103.9645,
324.793,4133.92,
321.882,4197.6635,
318.971,4161.9782,
316.061,4159.028,
313.150,4172.4452,
310.240,4184.3191,
307.329,4230.4868,
304.418,4272.9155,
301.508,4288.3592,
298.597,4238.0108,
295.687,4175.5073,
292.776,4211.917,
289.866,4325.1036,
286.955,4435.9124,
284.044,4579.5149,
281.134,4689.6679,
278.223,4763.8993,
275.313,4853.7956,
272.402,4963.3709,
269.492,5055.9993,
266.581,5121.0035,
263.670,5208.49,
260.760,5255.1677,
257.849,5306.3151,
254.939,5396.5827,
252.028,5423.8084,
249.117,5397.2038,
246.207,5366.2511,
243.296,5414.5655,
240.386,5479.8252,
237.475,5497.9193,
234.565,5464.7067,
231.654,5394.5899,
228.743,5336.022,
225.833,5310.7626,
222.922,5324.3718,
220.012,5273.373,
217.101,5282.7579,
214.191,5293.358,
211.280,5238.7983,
208.369,5203.1278,
205.459,5200.9253,
202.548,5220.6247,
199.638,5219.899,
196.727,5241.07,
193.816,5263.6735,
190.906,5281.7816,
187.995,5339.7036,
185.085,5303.4802,
182.174,5240.75,
179.264,5240.75,
176.353,5254.8471,
173.442,5264.9253,
170.532,5268.666,
167.621,5267.945,
164.711,5138.4603,
161.800,4967.436,
158.890,4808.3762,
155.979,4465.9259,
153.068,4086.5374,
150.158,3665.8038,
147.247,3148.8782,
144.337,2574.8129,
141.426,2013.9521,
138.516,1500.658,
135.605,1050.1622,
132.694,717.56705,
129.784,481.02252,
126.873,307.9611,
123.963,210.72136,
121.052,146.18607,
118.141,101.92414,
115.231,90.380874,
112.320,74.735466,
109.410,58.931868,
106.499,54.658937,
103.589,50.948728,
100.678,44.132431,
97.767,32.046492,
94.857,37.293912,
91.946,36.525113,
89.036,31.072613,
86.125,26.817381,
83.215,24.157239,
80.304,23.228865,
77.393,24.645205,
74.483,19.50892,
71.572,16.025296,
68.662,14.611465,
65.751,13.198563,
62.840,14.676808,
59.930,16.562714,
57.019,15.857632,
54.109,14.555678,
51.198,10.733907,
48.288,3.800962,
45.377,10.131365,
42.466,9.4522453,
39.556,4.2895257,
36.645,1.4807648,
33.735,0.75,
30.824,0.087339078,
27.914,-2.0161867,
25.003,2.1084623,
22.092,4.4270954,
19.182,3.0635141,
16.271,-17.92119,
13.361,-63.338302,
10.450,-180.71494,
7.539,-566.88333,
4.629,-971.36541,
1.718,-1288.3226,
-1.192,-1392.8942,
-4.103,-936.52149,
-7.013,-440.80384,
-9.924,-0.25,
