,PL4CC5~1,
Raman shift [1/cm],Intensity,
3014.167,2.625,
3011.256,1.0749893,
3008.346,42.081476,
3005.435,33.162101,
3002.525,31.380034,
2999.614,31.476963,
2996.704,39.943557,
2993.793,45.368088,
2990.882,50.625,
2987.972,39.63509,
2985.061,42.511701,
2982.151,43.625,
2979.240,53.941539,
2976.329,50.11681,
2973.419,48.363382,
2970.508,49.158347,
2967.598,68.478012,
2964.687,50.878396,
2961.777,57.530992,
2958.866,57.956354,
2955.955,43.171482,
2953.045,42.441554,
2950.134,61.636705,
2947.224,69.795813,
2944.313,64.838674,
2941.403,73.351731,
2938.492,67.348582,
2935.581,71.625,
2932.671,65.826732,
2929.760,63.932676,
2926.850,67.89342,
2923.939,61.821233,
2921.028,60.754272,
2918.118,69.885707,
2915.207,79.745304,
2912.297,84.616537,
2909.386,88.033756,
2906.476,73.889068,
2903.565,74.930922,
2900.654,84.848456,
2897.744,80.637572,
2894.833,81.212637,
2891.923,75.759598,
2889.012,69.041185,
2886.102,64.584466,
2883.191,76.609896,
2880.280,45.170449,
2877.370,50.892388,
2874.459,44.505528,
2871.549,59.375133,
2868.638,75.262107,
2865.727,85.228857,
2862.817,76.253346,
2859.906,86.662046,
2856.996,72.584242,
2854.085,74.582971,
2851.175,79.004541,
2848.264,79.330997,
2845.353,78.775969,
2842.443,78.836837,
2839.532,80.26672,
2836.622,74.776693,
2833.711,76.150903,
2830.801,89.21471,
2827.890,78.689705,
2824.979,87.699013,
2822.069,92.443046,
2819.158,75.104783,
2816.248,69.636579,
2813.337,89.449403,
2810.427,74.18422,
2807.516,76.207814,
2804.605,82.399035,
2801.695,86.11186,
2798.784,88.920692,
2795.874,73.920528,
2792.963,76.196705,
2790.052,76.626287,
2787.142,83.453807,
2784.231,75.011638,
2781.321,88.550612,
2778.410,69.244268,
2775.500,80.263968,
2772.589,79.547026,
2769.678,73.372393,
2766.768,83.001697,
2763.857,83.309007,
2760.947,76.090327,
2758.036,83.332083,
2755.126,93.195513,
2752.215,91.902227,
2749.304,85.135795,
2746.394,75.800367,
2743.483,87.075002,
2740.573,83.963484,
2737.662,89.752214,
2734.751,96.159047,
2731.841,61.40704,
2728.930,83.459872,
2726.020,73.41088,
2723.109,79.625,
2720.199,86.606326,
2717.288,75.081204,
2714.377,85.074842,
2711.467,94.264557,
2708.556,95.571525,
2705.646,103.93485,
2702.735,90.965211,
2699.825,96.157721,
2696.914,88.148628,
2694.003,90.982725,
2691.093,85.285652,
2688.182,89.73463,
2685.272,100.6691,
2682.361,93.171944,
2679.450,95.085919,
2676.540,97.52338,
2673.629,92.293163,
2670.719,92.909659,
2667.808,93.625,
2664.898,97.547181,
2661.987,99.558488,
2659.076,101.26078,
2656.166,91.222372,
2653.255,99.106293,
2650.345,101.19306,
2647.434,93.110567,
2644.524,95.732951,
2641.613,94.910353,
2638.702,101.41985,
2635.792,91.998883,
2632.881,98.892886,
2629.971,107.22237,
2627.060,99.290627,
2624.149,105.32813,
2621.239,103.37648,
2618.328,95.921711,
2615.418,96.984084,
2612.507,97.41547,
2609.597,91.910429,
2606.686,97.482421,
2603.775,93.42659,
2600.865,101.68303,
2597.954,102.57709,
2595.044,100.63386,
2592.133,108.40854,
2589.223,114.625,
2586.312,117.89136,
2583.401,105.07391,
2580.491,111.43268,
2577.580,96.667909,
2574.670,115.70657,
2571.759,106.98373,
2568.848,101.45366,
2565.938,107.91069,
2563.027,112.45453,
2560.117,111.17639,
2557.206,124.89806,
2554.296,118.76688,
2551.385,112.87298,
2548.474,119.77333,
2545.564,128.46672,
2542.653,101.09815,
2539.743,120.52642,
2536.832,115.78761,
2533.922,118.53038,
2531.011,113.44993,
2528.100,115.0919,
2525.190,116.20615,
2522.279,107.23467,
2519.369,114.49324,
2516.458,104.29285,
2513.548,113.7158,
2510.637,117.74797,
2507.726,115.87778,
2504.816,112.12557,
2501.905,105.07439,
2498.995,103.28191,
2496.084,116.07798,
2493.173,113.33526,
2490.263,121.78209,
2487.352,109.20927,
2484.442,123.19459,
2481.531,133.57704,
2478.621,132.4117,
2475.710,127.63267,
2472.799,129.11827,
2469.889,131.10977,
2466.978,112.14065,
2464.068,131.43991,
2461.157,112.74245,
2458.247,122.05148,
2455.336,117.34906,
2452.425,112.84198,
2449.515,113.36097,
2446.604,119.33006,
2443.694,132.83474,
2440.783,120.5732,
2437.872,114.13551,
2434.962,127.625,
2432.051,127.13734,
2429.141,130.89553,
2426.230,129.82057,
2423.320,133.52514,
2420.409,132.91977,
2417.498,137.43679,
2414.588,148.52228,
2411.677,123.30631,
2408.767,139.34843,
2405.856,139.66068,
2402.946,140.7796,
2400.035,124.13907,
2397.124,142.9619,
2394.214,144.3274,
2391.303,142.16091,
2388.393,139.63895,
2385.482,133.84531,
2382.571,153.81515,
2379.661,148.71795,
2376.750,148.67923,
2373.840,135.78129,
2370.929,146.48421,
2368.019,139.43227,
2365.108,138.22971,
2362.197,141.20858,
2359.287,145.22166,
2356.376,143.62852,
2353.466,138.82191,
2350.555,138.83497,
2347.645,143.54552,
2344.734,147.625,
2341.823,147.625,
2338.913,148.09216,
2336.002,146.36662,
2333.092,151.56746,
2330.181,159.15184,
2327.270,146.45008,
2324.360,136.7924,
2321.449,154.57736,
2318.539,141.75345,
2315.628,162.27129,
2312.718,159.7924,
2309.807,138.83573,
2306.896,177.33391,
2303.986,158.14445,
2301.075,148.68885,
2298.165,159.99065,
2295.254,179.28031,
2292.344,156.78688,
2289.433,144.31227,
2286.522,147.05806,
2283.612,158.42604,
2280.701,182.79985,
2277.791,164.1441,
2274.880,154.76496,
2271.969,166.88015,
2269.059,171.39066,
2266.148,155.76357,
2263.238,174.91456,
2260.327,174.21115,
2257.417,169.09944,
2254.506,173.45692,
2251.595,175.91228,
2248.685,159.89428,
2245.774,158.22933,
2242.864,184.1063,
2239.953,174.57676,
2237.043,173.07999,
2234.132,181.07435,
2231.221,177.07201,
2228.311,157.35827,
2225.400,199.94951,
2222.490,177.18202,
2219.579,175.18025,
2216.669,169.61069,
2213.758,171.32042,
2210.847,196.41842,
2207.937,188.23577,
2205.026,211.62559,
2202.116,196.67383,
2199.205,203.33724,
2196.294,201.88102,
2193.384,213.67703,
2190.473,213.76115,
2187.563,214.67817,
2184.652,226.52867,
2181.742,232.80696,
2178.831,232.98686,
2175.920,227.29349,
2173.010,238.67602,
2170.099,244.49157,
2167.189,252.55324,
2164.278,243.0652,
2161.368,257.33787,
2158.457,281.11785,
2155.546,261.29229,
2152.636,259.98668,
2149.725,287.75921,
2146.815,281.02543,
2143.904,289.72537,
2140.993,292.25461,
2138.083,293.24812,
2135.172,288.59981,
2132.262,301.0132,
2129.351,283.21452,
2126.441,284.45998,
2123.530,284.43419,
2120.619,266.93696,
2117.709,258.93337,
2114.798,240.46722,
2111.888,233.26225,
2108.977,219.55214,
2106.067,205.59149,
2103.156,218.70236,
2100.245,228.61873,
2097.335,215.49412,
2094.424,190.47085,
2091.514,185.41265,
2088.603,192.42222,
2085.692,199.58037,
2082.782,199.50453,
2079.871,201.08941,
2076.961,184.7874,
2074.050,201.72197,
2071.140,203.94681,
2068.229,200.99871,
2065.318,193.60076,
2062.408,194.23847,
2059.497,191.43453,
2056.587,201.71791,
2053.676,206.25823,
2050.766,193.70273,
2047.855,182.7674,
2044.944,191.61537,
2042.034,206.96012,
2039.123,190.64857,
2036.213,211.47383,
2033.302,191.45112,
2030.391,182.54045,
2027.481,205.40524,
2024.570,217.1535,
2021.660,211.97978,
2018.749,193.66299,
2015.839,193.54888,
2012.928,188.92366,
2010.017,204.74118,
2007.107,217.01938,
2004.196,193.73208,
2001.286,186.08435,
1998.375,196.49607,
1995.465,212.78393,
1992.554,197.34281,
1989.643,205.2448,
1986.733,202.78553,
1983.822,201.25203,
1980.912,181.00175,
1978.001,198.54893,
1975.090,195.20363,
1972.180,193.48805,
1969.269,202.43828,
1966.359,194.27335,
1963.448,188.19964,
1960.538,183.32141,
1957.627,181.625,
1954.716,191.33773,
1951.806,194.78047,
1948.895,183.08849,
1945.985,207.08905,
1943.074,180.22281,
1940.164,181.2501,
1937.253,205.12032,
1934.342,217.05228,
1931.432,193.03825,
1928.521,188.76835,
1925.611,200.55349,
1922.700,182.25622,
1919.790,197.29529,
1916.879,172.71748,
1913.968,187.6041,
1911.058,171.78718,
1908.147,227.43665,
1905.237,201.66173,
1902.326,190.3272,
1899.415,198.55059,
1896.505,169.93228,
1893.594,195.70434,
1890.684,189.19382,
1887.773,165.09043,
1884.863,188.67284,
1881.952,174.81776,
1879.041,193.12812,
1876.131,174.93612,
1873.220,167.75332,
1870.310,177.83574,
1867.399,212.08122,
1864.489,198.7293,
1861.578,176.2514,
1858.667,177.46629,
1855.757,205.625,
1852.846,200.85066,
1849.936,195.39176,
1847.025,208.56905,
1844.114,188.78498,
1841.204,193.05856,
1838.293,214.11918,
1835.383,207.24151,
1832.472,202.18326,
1829.562,230.81589,
1826.651,190.23903,
1823.740,189.376,
1820.830,233.34972,
1817.919,187.43302,
1815.009,203.73695,
1812.098,221.19192,
1809.188,187.91965,
1806.277,218.87252,
1803.366,214.442,
1800.456,203.18534,
1797.545,199.12837,
1794.635,228.20691,
1791.724,198.72199,
1788.813,226.81497,
1785.903,206.17725,
1782.992,223.99306,
1780.082,184.04772,
1777.171,194.95744,
1774.261,191.99001,
1771.350,196.5825,
1768.439,198.36909,
1765.529,204.90004,
1762.618,213.34436,
1759.708,201.00538,
1756.797,204.76894,
1753.887,212.06086,
1750.976,186.8593,
1748.065,192.35925,
1745.155,211.09594,
1742.244,211.63859,
1739.334,228.42735,
1736.423,235.21192,
1733.512,227.34856,
1730.602,217.14483,
1727.691,203.11009,
1724.781,218.50284,
1721.870,192.2391,
1718.960,219.98098,
1716.049,229.30295,
1713.138,239.88495,
1710.228,228.57055,
1707.317,209.81814,
1704.407,223.79615,
1701.496,230.18274,
1698.586,224.15711,
1695.675,212.3965,
1692.764,235.29305,
1689.854,272.97935,
1686.943,256.26579,
1684.033,247.82369,
1681.122,233.86289,
1678.211,258.38707,
1675.301,305.48008,
1672.390,242.73267,
1669.480,278.68918,
1666.569,286.40917,
1663.659,269.98431,
1660.748,291.27793,
1657.837,274.32483,
1654.927,305.625,
1652.016,306.32967,
1649.106,334.08642,
1646.195,313.29634,
1643.285,340.67057,
1640.374,342.89678,
1637.463,355.33677,
1634.553,340.157,
1631.642,376.21133,
1628.732,429.30503,
1625.821,375.6564,
1622.911,423.35451,
1620.000,450.28483,
1617.089,475.12749,
1614.179,518.38416,
1611.268,556.21224,
1608.358,551.90594,
1605.447,625.16845,
1602.536,570.91611,
1599.626,633.7801,
1596.715,612.39696,
1593.805,617.67399,
1590.894,573.71082,
1587.984,584.94684,
1585.073,528.91864,
1582.162,565.37862,
1579.252,563.98709,
1576.341,549.60905,
1573.431,561.50531,
1570.520,538.8718,
1567.610,540.31142,
1564.699,545.07506,
1561.788,560.41359,
1558.878,491.52105,
1555.967,490.97956,
1553.057,493.31481,
1550.146,458.81415,
1547.235,439.67337,
1544.325,442.14925,
1541.414,444.00483,
1538.504,440.56979,
1535.593,441.54649,
1532.683,430.38378,
1529.772,430.01224,
1526.861,435.53186,
1523.951,421.68846,
1521.040,436.56958,
1518.130,422.96581,
1515.219,394.9055,
1512.309,382.57997,
1509.398,396.7657,
1506.487,404.12838,
1503.577,448.24508,
1500.666,420.45449,
1497.756,360.65953,
1494.845,422.06524,
1491.934,432.48327,
1489.024,389.17109,
1486.113,374.64398,
1483.203,362.07882,
1480.292,396.26248,
1477.382,344.43113,
1474.471,321.41645,
1471.560,330.96132,
1468.650,362.27267,
1465.739,359.25324,
1462.829,324.96185,
1459.918,315.91236,
1457.008,324.1481,
1454.097,337.17895,
1451.186,355.19947,
1448.276,366.79057,
1445.365,357.30036,
1442.455,332.83762,
1439.544,365.68947,
1436.633,345.47902,
1433.723,335.73453,
1430.812,368.74358,
1427.902,332.5348,
1424.991,328.74375,
1422.081,332.29491,
1419.170,351.63433,
1416.259,337.61368,
1413.349,314.74397,
1410.438,310.02456,
1407.528,326.0748,
1404.617,311.727,
1401.707,330.60107,
1398.796,326.22299,
1395.885,311.01497,
1392.975,337.83301,
1390.064,323.91931,
1387.154,303.59553,
1384.243,239.10859,
1381.332,258.41169,
1378.422,243.28178,
1375.511,294.80473,
1372.601,312.21327,
1369.690,382.2028,
1366.780,401.54535,
1363.869,369.48058,
1360.958,371.80997,
1358.048,383.77818,
1355.137,403.44689,
1352.227,398.49416,
1349.316,389.4005,
1346.406,428.27129,
1343.495,455.64589,
1340.584,437.08932,
1337.674,436.01861,
1334.763,449.74211,
1331.853,505.37598,
1328.942,504.06714,
1326.032,470.18455,
1323.121,485.5949,
1320.210,484.30211,
1317.300,465.45943,
1314.389,479.77825,
1311.479,492.13964,
1308.568,484.01287,
1305.657,491.6583,
1302.747,484.6031,
1299.836,482.52186,
1296.926,526.03506,
1294.015,556.37274,
1291.105,527.68658,
1288.194,556.37346,
1285.283,600.42516,
1282.373,598.80475,
1279.462,597.86014,
1276.552,623.67233,
1273.641,641.06972,
1270.731,635.68321,
1267.820,640.41726,
1264.909,631.04172,
1261.999,571.18816,
1259.088,641.42149,
1256.178,656.75893,
1253.267,629.47157,
1250.356,615.88422,
1247.446,610.69136,
1244.535,609.61607,
1241.625,581.96212,
1238.714,534.33185,
1235.804,529.17835,
1232.893,552.00096,
1229.982,546.73575,
1227.072,520.4817,
1224.161,558.96918,
1221.251,533.12209,
1218.340,493.76909,
1215.430,490.73678,
1212.519,473.91219,
1209.608,450.83877,
1206.698,471.96553,
1203.787,484.625,
1200.877,485.34937,
1197.966,497.03844,
1195.055,510.42373,
1192.145,544.18142,
1189.234,568.24964,
1186.324,567.4424,
1183.413,555.76713,
1180.503,547.60147,
1177.592,550.82718,
1174.681,571.83733,
1171.771,552.00684,
1168.860,525.21415,
1165.950,533.10676,
1163.039,527.94257,
1160.129,516.36703,
1157.218,510.625,
1154.307,501.34937,
1151.397,483.53957,
1148.486,479.27342,
1145.576,488.7021,
1142.665,490.47792,
1139.754,489.81137,
1136.844,471.41713,
1133.933,456.58693,
1131.023,459.65063,
1128.112,473.62428,
1125.202,478.27719,
1122.291,469.88917,
1119.380,506.625,
1116.470,506.625,
1113.559,494.25302,
1110.649,475.56355,
1107.738,471.91154,
1104.828,471.464,
1101.917,469.76719,
1099.006,485.40836,
1096.096,510.58237,
1093.185,477.21827,
1090.275,514.27924,
1087.364,495.49396,
1084.453,485.99979,
1081.543,487.74856,
1078.632,496.34023,
1075.722,515.93246,
1072.811,507.81832,
1069.901,496.46593,
1066.990,482.6917,
1064.079,517.73378,
1061.169,537.8342,
1058.258,544.28334,
1055.348,548.27333,
1052.437,536.39344,
1049.527,505.3299,
1046.616,523.57531,
1043.705,549.51872,
1040.795,538.74687,
1037.884,528.625,
1034.974,536.07345,
1032.063,537.65615,
1029.153,508.85674,
1026.242,560.75412,
1023.331,563.45828,
1020.421,528.76993,
1017.510,534.91548,
1014.600,552.89379,
1011.689,560.89655,
1008.778,576.03856,
1005.868,572.57867,
1002.957,567.41654,
1000.047,613.94502,
997.136,647.48279,
994.226,658.625,
991.315,650.40471,
988.404,627.896,
985.494,608.56746,
982.583,605.99779,
979.673,582.21231,
976.762,565.40557,
973.852,584.81959,
970.941,609.80824,
968.030,591.67121,
965.120,580.5892,
962.209,572.06378,
959.299,579.83224,
956.388,600.98389,
953.477,608.04856,
950.567,598.625,
947.656,600.40757,
944.746,614.00046,
941.835,575.75396,
938.925,574.5216,
936.014,604.92796,
933.103,618.61979,
930.193,589.43375,
927.282,561.54157,
924.372,578.45371,
921.461,548.22339,
918.551,533.1394,
915.640,534.87444,
912.729,544.9187,
909.819,555.51295,
906.908,547.0887,
903.998,555.37401,
901.087,558.89801,
898.176,562.01098,
895.266,568.75119,
892.355,577.46794,
889.445,576.62867,
886.534,590.81782,
883.624,593.625,
880.713,600.25963,
877.802,582.30758,
874.892,539.01501,
871.981,549.38826,
869.071,539.36331,
866.160,558.32379,
863.250,576.53645,
860.339,601.80777,
857.428,623.63348,
854.518,585.7935,
851.607,591.61799,
848.697,569.23922,
845.786,551.87844,
842.875,559.25739,
839.965,580.3142,
837.054,560.91341,
834.144,586.60473,
831.233,584.95882,
828.323,573.71185,
825.412,558.86378,
822.501,547.75274,
819.591,565.10712,
816.680,521.55441,
813.770,531.29959,
810.859,544.97872,
807.949,543.86889,
805.038,538.11837,
802.127,550.46528,
799.217,560.56969,
796.306,550.57085,
793.396,547.63271,
790.485,554.83455,
787.574,541.34116,
784.664,560.20375,
781.753,566.30894,
778.843,560.76385,
775.932,557.32864,
773.022,563.97663,
770.111,553.34811,
767.200,556.43156,
764.290,551.26834,
761.379,552.53301,
758.469,561.625,
755.558,561.26031,
752.648,549.04125,
749.737,530.95806,
746.826,518.89523,
743.916,502.89755,
741.005,465.2886,
738.095,400.33846,
735.184,299.66724,
732.274,281.55731,
729.363,324.17851,
726.452,393.77426,
723.542,499.80479,
720.631,503.33138,
717.721,512.36337,
714.810,529.52266,
711.899,541.86261,
708.989,525.72411,
706.078,548.06148,
703.168,515.37008,
700.257,509.60331,
697.347,529.23447,
694.436,502.55953,
691.525,500.14812,
688.615,482.6444,
685.704,482.12226,
682.794,485.73148,
679.883,458.89573,
676.973,509.38209,
674.062,504.31103,
671.151,520.60981,
668.241,547.14529,
665.330,528.79305,
662.420,511.22095,
659.509,500.00583,
656.598,510.3385,
653.688,522.95377,
650.777,500.51699,
647.867,497.33168,
644.956,522.01015,
642.046,520.21188,
639.135,498.34992,
636.224,508.63694,
633.314,511.01875,
630.403,513.98984,
627.493,518.6976,
624.582,525.74386,
621.672,535.24779,
618.761,538.66476,
615.850,550.09377,
612.940,566.13876,
610.029,573.12821,
607.119,528.11927,
604.208,538.53528,
601.297,545.62204,
598.387,561.24324,
595.476,590.34564,
592.566,513.21295,
589.655,525.5406,
586.745,543.09675,
583.834,530.05828,
580.923,467.78138,
578.013,493.67761,
575.102,488.00606,
572.192,492.55909,
569.281,515.6566,
566.371,504.69987,
563.460,540.30935,
560.549,549.29038,
557.639,544.77351,
554.728,550.13229,
551.818,542.32913,
548.907,558.29798,
545.996,570.79137,
543.086,561.8882,
540.175,512.05486,
537.265,555.70315,
534.354,566.09964,
531.444,558.625,
528.533,556.96953,
525.622,533.69111,
522.712,546.22085,
519.801,559.91628,
516.891,562.84248,
513.980,558.971,
511.070,557.21631,
508.159,564.74363,
505.248,579.88406,
502.338,598.53463,
499.427,595.4473,
496.517,580.4836,
493.606,563.90464,
490.695,554.33675,
487.785,566.6534,
484.874,603.52109,
481.964,624.28611,
479.053,617.06438,
476.143,577.13032,
473.232,586.85486,
470.321,601.35653,
467.411,605.04023,
464.500,585.70257,
461.590,588.76553,
458.679,611.63678,
455.769,609.14583,
452.858,565.97709,
449.947,578.96393,
447.037,608.32246,
444.126,609.35834,
441.216,582.28644,
438.305,586.0961,
435.395,601.70464,
432.484,592.95491,
429.573,573.70755,
426.663,591.19078,
423.752,586.34823,
420.842,530.19274,
417.931,469.21063,
415.020,478.31092,
412.110,522.52179,
409.199,533.73503,
406.289,540.43201,
403.378,576.63012,
400.468,578.14211,
397.557,557.54487,
394.646,541.12649,
391.736,550.35941,
388.825,542.06286,
385.915,525.25577,
383.004,514.90935,
380.094,522.77479,
377.183,564.91346,
374.272,590.19451,
371.362,613.98675,
368.451,642.30286,
365.541,620.53731,
362.630,623.91109,
359.719,628.07339,
356.809,621.93576,
353.898,660.12447,
350.988,644.58564,
348.077,627.85236,
345.167,640.77637,
342.256,643.76464,
339.345,643.0307,
336.435,651.89592,
333.524,678.06129,
330.614,660.17755,
327.703,658.21884,
324.793,654.40685,
321.882,633.70072,
318.971,664.92531,
316.061,682.4614,
313.150,681.54169,
310.240,655.56763,
307.329,653.91036,
304.418,660.00835,
301.508,672.15424,
298.597,689.18383,
295.687,689.27052,
292.776,662.79153,
289.866,650.28996,
286.955,762.57623,
284.044,815.30996,
281.134,848.47421,
278.223,876.81634,
275.313,932.81735,
272.402,958.56668,
269.492,969.57556,
266.581,972.20306,
263.670,980.29004,
260.760,993.59505,
257.849,1016.4564,
254.939,1053.1505,
252.028,1101.3988,
249.117,1098.6109,
246.207,1055.8204,
243.296,987.00893,
240.386,1038.3943,
237.475,1044.6528,
234.565,996.68765,
231.654,946.29118,
228.743,890.17092,
225.833,852.35645,
222.922,842.69295,
220.012,844.15006,
217.101,806.83989,
214.191,771.55909,
211.280,784.65342,
208.369,751.98434,
205.459,730.834,
202.548,721.36872,
199.638,708.30704,
196.727,730.40228,
193.816,738.99227,
190.906,716.19329,
187.995,703.88487,
185.085,760.15054,
182.174,808.82018,
179.264,739.43465,
176.353,790.57666,
173.442,790.63224,
170.532,732.87702,
167.621,735.03995,
164.711,735.09943,
161.800,726.51477,
158.890,702.76376,
155.979,683.82249,
153.068,619.52366,
150.158,529.6626,
147.247,488.73932,
144.337,399.88258,
141.426,310.7884,
138.516,243.40063,
135.605,169.70693,
132.694,112.50083,
129.784,72.280126,
126.873,55.11701,
123.963,33.983826,
121.052,23.741181,
118.141,31.594103,
115.231,15.992452,
112.320,14.284995,
109.410,18.852382,
106.499,9.5943636,
103.589,5.9442366,
100.678,2.4520264,
97.767,-3.2354742,
94.857,2.1689124,
91.946,3.8187783,
89.036,3.6410812,
86.125,10.023929,
83.215,9.5013186,
80.304,6.4278366,
77.393,2.8869869,
74.483,1.3147301,
71.572,6.0602817,
68.662,14.585988,
65.751,3.9892213,
62.840,5.9237218,
59.930,11.250428,
57.019,9.8402636,
54.109,4.2505524,
51.198,2.1330464,
48.288,5.6646371,
45.377,10.588284,
42.466,10.976123,
39.556,8.3947628,
36.645,6.9903824,
33.735,10.778988,
30.824,14.183226,
27.914,12.780876,
25.003,9.5118126,
22.092,7.9479046,
19.182,9.2428373,
16.271,28.129071,
13.361,150.68303,
10.450,385.90701,
7.539,834.92379,
4.629,1184.4876,
1.718,1291.8678,
-1.192,930.74689,
-4.103,518.2003,
-7.013,196.19471,
-9.924,0.625,
