,PLE7B4~1,
Raman shift [1/cm],Intensity,
3014.167,3.125,
3011.256,-1.6250537,
3008.346,130.58572,
3005.435,138.66564,
3002.525,156.25755,
2999.614,142.92762,
2996.704,159.8951,
2993.793,163.51498,
2990.882,150.99524,
2987.972,174.10987,
2985.061,171.125,
2982.151,176.40904,
2979.240,182.7077,
2976.329,195.14138,
2973.419,198.17147,
2970.508,193.14162,
2967.598,223.88604,
2964.687,213.8716,
2961.777,219.9029,
2958.866,220.13688,
2955.955,217.78427,
2953.045,241.04223,
2950.134,240.88009,
2947.224,247.46663,
2944.313,251.03526,
2941.403,268.93522,
2938.492,270.99764,
2935.581,265.44773,
2932.671,274.72587,
2929.760,272.70961,
2926.850,272.81147,
2923.939,281.72782,
2921.028,287.53692,
2918.118,301.80258,
2915.207,302.72652,
2912.297,275.30271,
2909.386,309.50457,
2906.476,303.54354,
2903.565,303.86722,
2900.654,304.63055,
2897.744,294.22558,
2894.833,302.94973,
2891.923,288.71789,
2889.012,302.41402,
2886.102,369.11413,
2883.191,684.86256,
2880.280,292.39293,
2877.370,260.13666,
2874.459,247.1188,
2871.549,278.66469,
2868.638,315.03632,
2865.727,313.01733,
2862.817,310.22526,
2859.906,317.31587,
2856.996,330.67708,
2854.085,327.92754,
2851.175,320.81477,
2848.264,324.18883,
2845.353,325.82306,
2842.443,320.90968,
2839.532,320.93105,
2836.622,316.21484,
2833.711,314.28042,
2830.801,313.52794,
2827.890,312.125,
2824.979,320.47094,
2822.069,337.99991,
2819.158,327.125,
2816.248,317.41263,
2813.337,337.67134,
2810.427,332.21316,
2807.516,331.80844,
2804.605,339.59857,
2801.695,348.59867,
2798.784,324.75131,
2795.874,332.84532,
2792.963,332.91085,
2790.052,333.12564,
2787.142,332.57231,
2784.231,329.67313,
2781.321,322.4393,
2778.410,326.29505,
2775.500,331.25189,
2772.589,337.89411,
2769.678,344.01575,
2766.768,338.51527,
2763.857,334.12886,
2760.947,361.09348,
2758.036,355.27786,
2755.126,333.10578,
2752.215,376.14763,
2749.304,361.27429,
2746.394,361.08868,
2743.483,366.07503,
2740.573,366.44803,
2737.662,355.125,
2734.751,367.40637,
2731.841,352.15063,
2728.930,356.59528,
2726.020,375.13542,
2723.109,367.1665,
2720.199,377.38137,
2717.288,371.54472,
2714.377,373.28762,
2711.467,376.51841,
2708.556,368.74226,
2705.646,382.09689,
2702.735,381.64305,
2699.825,388.85405,
2696.914,381.36319,
2694.003,397.25345,
2691.093,395.89275,
2688.182,382.43315,
2685.272,395.0809,
2682.361,399.42522,
2679.450,395.49535,
2676.540,397.88111,
2673.629,387.45235,
2670.719,398.47528,
2667.808,396.46545,
2664.898,394.56664,
2661.987,402.02523,
2659.076,403.2694,
2656.166,408.07734,
2653.255,411.34949,
2650.345,403.55694,
2647.434,421.52483,
2644.524,411.65016,
2641.613,423.95404,
2638.702,423.26703,
2635.792,415.68731,
2632.881,419.43448,
2629.971,424.61495,
2627.060,427.79063,
2624.149,436.125,
2621.239,442.13686,
2618.328,427.63365,
2615.418,441.11591,
2612.507,433.95508,
2609.597,438.0232,
2606.686,437.0467,
2603.775,449.60516,
2600.865,439.42189,
2597.954,447.41248,
2595.044,458.74148,
2592.133,456.67263,
2589.223,440.99236,
2586.312,466.82858,
2583.401,454.5922,
2580.491,463.13945,
2577.580,463.13985,
2574.670,471.57153,
2571.759,464.61987,
2568.848,465.06425,
2565.938,449.26778,
2563.027,468.90676,
2560.117,473.95675,
2557.206,483.494,
2554.296,479.69937,
2551.385,485.99294,
2548.474,488.68076,
2545.564,469.88473,
2542.653,482.97735,
2539.743,491.59419,
2536.832,500.92126,
2533.922,486.17231,
2531.011,486.92519,
2528.100,488.05533,
2525.190,495.70615,
2522.279,492.0781,
2519.369,489.91753,
2516.458,499.91183,
2513.548,505.27052,
2510.637,497.37093,
2507.726,503.93542,
2504.816,510.125,
2501.905,501.19756,
2498.995,498.96107,
2496.084,507.52567,
2493.173,506.52003,
2490.263,502.15888,
2487.352,528.20847,
2484.442,524.42909,
2481.531,528.02908,
2478.621,534.9117,
2475.710,525.27836,
2472.799,543.6452,
2469.889,540.5793,
2466.978,534.18693,
2464.068,534.9557,
2461.157,548.62256,
2458.247,533.43377,
2455.336,537.67687,
2452.425,543.125,
2449.515,558.16241,
2446.604,547.29779,
2443.694,543.24093,
2440.783,556.36712,
2437.872,553.8543,
2434.962,569.18491,
2432.051,567.87827,
2429.141,580.26027,
2426.230,568.97249,
2423.320,574.85335,
2420.409,580.34302,
2417.498,580.70647,
2414.588,588.39495,
2411.677,583.30429,
2408.767,594.19586,
2405.856,598.99174,
2402.946,595.76217,
2400.035,609.21656,
2397.124,589.94316,
2394.214,616.881,
2391.303,609.58909,
2388.393,593.44822,
2385.482,608.1997,
2382.571,603.92204,
2379.661,617.00874,
2376.750,623.80721,
2373.840,616.00631,
2370.929,623.99504,
2368.019,624.17239,
2365.108,641.52029,
2362.197,634.95785,
2359.287,627.73001,
2356.376,614.14789,
2353.466,640.64224,
2350.555,628.29565,
2347.645,646.65217,
2344.734,656.67343,
2341.823,638.50641,
2338.913,654.86229,
2336.002,642.5412,
2333.092,652.30896,
2330.181,651.63395,
2327.270,654.01499,
2324.360,641.81365,
2321.449,665.26447,
2318.539,673.01796,
2315.628,683.46873,
2312.718,688.35848,
2309.807,689.6221,
2306.896,676.17978,
2303.986,688.85869,
2301.075,681.82711,
2298.165,706.47157,
2295.254,687.66358,
2292.344,688.80965,
2289.433,688.46864,
2286.522,701.90616,
2283.612,710.05484,
2280.701,698.73937,
2277.791,727.96283,
2274.880,703.76293,
2271.969,718.67233,
2269.059,732.85526,
2266.148,737.01816,
2263.238,717.13274,
2260.327,727.74577,
2257.417,742.53,
2254.506,753.41556,
2251.595,748.25949,
2248.685,738.92121,
2245.774,749.3445,
2242.864,754.28212,
2239.953,746.22148,
2237.043,762.07321,
2234.132,760.71983,
2231.221,776.31114,
2228.311,765.85827,
2225.400,756.25081,
2222.490,797.53873,
2219.579,799.9193,
2216.669,790.594,
2213.758,776.90406,
2210.847,796.75468,
2207.937,832.90346,
2205.026,822.90226,
2202.116,829.78319,
2199.205,825.62383,
2196.294,860.36497,
2193.384,843.54696,
2190.473,858.00646,
2187.563,864.067,
2184.652,855.28785,
2181.742,883.46719,
2178.831,911.20283,
2175.920,914.54212,
2173.010,952.553,
2170.099,985.32292,
2167.189,1016.4264,
2164.278,1065.6084,
2161.368,1119.4095,
2158.457,1167.5772,
2155.546,1225.0327,
2152.636,1276.7845,
2149.725,1284.2995,
2146.815,1334.3564,
2143.904,1399.928,
2140.993,1402.9346,
2138.083,1398.973,
2135.172,1420.5872,
2132.262,1457.0449,
2129.351,1429.304,
2126.441,1399.1055,
2123.530,1360.7322,
2120.619,1320.0702,
2117.709,1266.8311,
2114.798,1200.0401,
2111.888,1149.3131,
2108.977,1089.4429,
2106.067,1056.058,
2103.156,1041.8073,
2100.245,979.13755,
2097.335,994.42867,
2094.424,963.71524,
2091.514,962.61145,
2088.603,940.59965,
2085.692,921.02846,
2082.782,918.43417,
2079.871,940.37587,
2076.961,938.51247,
2074.050,900.14318,
2071.140,912.72329,
2068.229,885.8268,
2065.318,919.4215,
2062.408,926.07961,
2059.497,920.70832,
2056.587,904.48564,
2053.676,899.30838,
2050.766,899.125,
2047.855,874.86546,
2044.944,899.45994,
2042.034,894.17701,
2039.123,893.50547,
2036.213,916.25619,
2033.302,921.73396,
2030.391,893.59994,
2027.481,908.44187,
2024.570,895.89696,
2021.660,888.36152,
2018.749,914.17524,
2015.839,891.0666,
2012.928,903.79111,
2010.017,917.35952,
2007.107,903.31192,
2004.196,908.61309,
2001.286,909.93772,
1998.375,899.99114,
1995.465,892.76518,
1992.554,904.39548,
1989.643,894.53976,
1986.733,863.7136,
1983.822,879.76754,
1980.912,898.86634,
1978.001,853.70942,
1975.090,876.89142,
1972.180,885.78059,
1969.269,862.4439,
1966.359,860.44948,
1963.448,866.39448,
1960.538,860.44443,
1957.627,904.59872,
1954.716,886.81444,
1951.806,891.62822,
1948.895,880.21207,
1945.985,867.32925,
1943.074,865.60105,
1940.164,854.14412,
1937.253,865.78543,
1934.342,865.38972,
1931.432,830.62027,
1928.521,821.87802,
1925.611,796.33953,
1922.700,824.32251,
1919.790,836.70879,
1916.879,825.96199,
1913.968,840.10656,
1911.058,829.20908,
1908.147,807.70461,
1905.237,838.56614,
1902.326,825.09091,
1899.415,857.67013,
1896.505,856.28745,
1893.594,846.93299,
1890.684,848.53689,
1887.773,813.22028,
1884.863,827.55097,
1881.952,837.54506,
1879.041,814.69976,
1876.131,834.9995,
1873.220,838.50995,
1870.310,849.26399,
1867.399,841.26894,
1864.489,863.57979,
1861.578,848.63061,
1858.667,833.09806,
1855.757,834.69779,
1852.846,871.15575,
1849.936,876.12602,
1847.025,855.65053,
1844.114,862.66379,
1841.204,845.77185,
1838.293,864.59091,
1835.383,881.2995,
1832.472,880.49717,
1829.562,882.7638,
1826.651,896.80055,
1823.740,922.05224,
1820.830,884.3687,
1817.919,866.23874,
1815.009,889.09955,
1812.098,919.15648,
1809.188,911.80719,
1806.277,951.21759,
1803.366,877.05663,
1800.456,930.91594,
1797.545,910.95475,
1794.635,919.383,
1791.724,922.94051,
1788.813,938.13271,
1785.903,954.15219,
1782.992,941.53786,
1780.082,959.74799,
1777.171,920.12661,
1774.261,912.98473,
1771.350,914.66151,
1768.439,947.44349,
1765.529,950.21762,
1762.618,973.68627,
1759.708,995.80987,
1756.797,983.14773,
1753.887,980.92092,
1750.976,977.79385,
1748.065,980.64266,
1745.155,973.15737,
1742.244,980.67842,
1739.334,978.85441,
1736.423,1007.3324,
1733.512,1022.5803,
1730.602,1039.5814,
1727.691,1003.6713,
1724.781,1020.2283,
1721.870,1023.2964,
1718.960,1050.0809,
1716.049,1044.3794,
1713.138,1083.1648,
1710.228,1069.2379,
1707.317,1043.1261,
1704.407,1061.6865,
1701.496,1092.383,
1698.586,1068.3295,
1695.675,1051.1537,
1692.764,1065.2725,
1689.854,1088.1289,
1686.943,1034.0474,
1684.033,1090.6348,
1681.122,1109.8191,
1678.211,1118.0489,
1675.301,1153.0171,
1672.390,1159.2476,
1669.480,1199.9485,
1666.569,1178.1885,
1663.659,1184.4969,
1660.748,1265.8524,
1657.837,1202.9183,
1654.927,1282.3284,
1652.016,1250.1213,
1649.106,1291.0553,
1646.195,1327.7414,
1643.285,1313.0137,
1640.374,1350.6233,
1637.463,1328.2059,
1634.553,1387.9378,
1631.642,1442.2879,
1628.732,1457.6464,
1625.821,1545.1629,
1622.911,1602.7982,
1620.000,1690.0163,
1617.089,1764.6325,
1614.179,1871.0793,
1611.268,1960.779,
1608.358,2073.7403,
1605.447,2178.1258,
1602.536,2228.8556,
1599.626,2237.6446,
1596.715,2213.6198,
1593.805,2220.9627,
1590.894,2253.8291,
1587.984,2238.2049,
1585.073,2229.1693,
1582.162,2206.418,
1579.252,2156.3001,
1576.341,2153.3346,
1573.431,2130.8466,
1570.520,2092.0212,
1567.610,2059.0266,
1564.699,2057.6503,
1561.788,2015.7592,
1558.878,1980.0559,
1555.967,1976.7497,
1553.057,1903.8499,
1550.146,1861.125,
1547.235,1833.3797,
1544.325,1801.1178,
1541.414,1809.4869,
1538.504,1817.9318,
1535.593,1768.7634,
1532.683,1727.3408,
1529.772,1705.2504,
1526.861,1682.3902,
1523.951,1675.6436,
1521.040,1625.1627,
1518.130,1624.3781,
1515.219,1647.0067,
1512.309,1603.0079,
1509.398,1636.5395,
1506.487,1614.6763,
1503.577,1606.0677,
1500.666,1592.1104,
1497.756,1573.7603,
1494.845,1545.6853,
1491.934,1558.9329,
1489.024,1500.2208,
1486.113,1499.0522,
1483.203,1477.809,
1480.292,1428.4569,
1477.382,1433.057,
1474.471,1488.3068,
1471.560,1459.1337,
1468.650,1455.7905,
1465.739,1403.1999,
1462.829,1367.7377,
1459.918,1382.6997,
1457.008,1396.6327,
1454.097,1403.1331,
1451.186,1395.154,
1448.276,1360.4731,
1445.365,1342.5902,
1442.455,1336.0859,
1439.544,1308.9888,
1436.633,1372.7357,
1433.723,1335.7421,
1430.812,1349.7659,
1427.902,1295.6662,
1424.991,1318.4125,
1422.081,1370.5037,
1419.170,1316.3689,
1416.259,1265.0017,
1413.349,1281.5584,
1410.438,1299.9219,
1407.528,1257.7756,
1404.617,1262.6557,
1401.707,1269.2867,
1398.796,1258.9572,
1395.885,1262.9518,
1392.975,1242.5199,
1390.064,1197.5331,
1387.154,1191.1348,
1384.243,1195.5009,
1381.332,1113.3182,
1378.422,1176.9699,
1375.511,1290.3204,
1372.601,1364.9291,
1369.690,1431.9878,
1366.780,1418.3639,
1363.869,1434.6458,
1360.958,1501.224,
1358.048,1529.3451,
1355.137,1582.7961,
1352.227,1652.7134,
1349.316,1701.6212,
1346.406,1746.1919,
1343.495,1767.0971,
1340.584,1803.6241,
1337.674,1869.3795,
1334.763,1938.7601,
1331.853,1955.4503,
1328.942,1999.7087,
1326.032,2004.3094,
1323.121,2050.8058,
1320.210,2080.4434,
1317.300,2105.4222,
1314.389,2139.1949,
1311.479,2178.785,
1308.568,2199.8147,
1305.657,2203.0823,
1302.747,2240.6279,
1299.836,2285.4961,
1296.926,2339.9623,
1294.015,2379.4933,
1291.105,2501.7592,
1288.194,2606.7855,
1285.283,2609.7929,
1282.373,2653.3826,
1279.462,2690.8111,
1276.552,2738.0071,
1273.641,2810.9382,
1270.731,2851.0668,
1267.820,2845.0863,
1264.909,2838.949,
1261.999,2823.4246,
1259.088,2831.6337,
1256.178,2814.9959,
1253.267,2804.453,
1250.356,2729.6588,
1247.446,2676.9365,
1244.535,2619.5269,
1241.625,2565.2435,
1238.714,2550.8796,
1235.804,2522.13,
1232.893,2429.125,
1229.982,2428.6344,
1227.072,2414.1494,
1224.161,2381.1859,
1221.251,2361.7238,
1218.340,2302.061,
1215.430,2247.9014,
1212.519,2234.9164,
1209.608,2236.7462,
1206.698,2224.1037,
1203.787,2225.6426,
1200.877,2252.521,
1197.966,2291.1848,
1195.055,2375.0369,
1192.145,2397.3898,
1189.234,2414.3984,
1186.324,2468.4931,
1183.413,2502.2671,
1180.503,2506.9172,
1177.592,2523.4784,
1174.681,2503.9435,
1171.771,2474.4038,
1168.860,2443.1457,
1165.950,2393.3602,
1163.039,2368.8553,
1160.129,2380.8207,
1157.218,2399.3746,
1154.307,2390.1709,
1151.397,2348.0056,
1148.486,2308.5717,
1145.576,2329.2043,
1142.665,2354.0659,
1139.754,2291.0347,
1136.844,2266.3208,
1133.933,2277.9607,
1131.023,2287.7087,
1128.112,2284.3395,
1125.202,2270.0139,
1122.291,2237.1304,
1119.380,2251.4974,
1116.470,2289.4462,
1113.559,2284.0728,
1110.649,2346.6096,
1107.738,2354.8699,
1104.828,2339.6148,
1101.917,2354.8589,
1099.006,2364.3725,
1096.096,2353.2223,
1093.185,2305.8102,
1090.275,2333.6865,
1087.364,2350.7307,
1084.453,2340.5009,
1081.543,2316.8548,
1078.632,2314.601,
1075.722,2344.125,
1072.811,2345.1799,
1069.901,2360.0253,
1066.990,2386.9916,
1064.079,2397.2081,
1061.169,2432.8154,
1058.258,2449.1144,
1055.348,2437.3585,
1052.437,2447.7488,
1049.527,2462.4677,
1046.616,2497.2208,
1043.705,2514.228,
1040.795,2505.9934,
1037.884,2501.6537,
1034.974,2535.0361,
1032.063,2576.8715,
1029.153,2548.3834,
1026.242,2583.8466,
1023.331,2582.6252,
1020.421,2601.6438,
1017.510,2640.3799,
1014.600,2654.8205,
1011.689,2630.7222,
1008.778,2621.7709,
1005.868,2736.7042,
1002.957,2801.2307,
1000.047,2925.421,
997.136,3001.0152,
994.226,3044.2016,
991.315,3036.5483,
988.404,2957.2611,
985.494,2932.2976,
982.583,2940.0066,
979.673,2892.1047,
976.762,2888.2155,
973.852,2898.567,
970.941,2897.6431,
968.030,2889.6163,
965.120,2864.2503,
962.209,2894.0893,
959.299,2909.7487,
956.388,2895.0862,
953.477,2879.3029,
950.567,2891.719,
947.656,2930.125,
944.746,2930.125,
941.835,2939.8428,
938.925,2920.4093,
936.014,2910.6425,
933.103,2904.0038,
930.193,2887.5269,
927.282,2878.9252,
924.372,2838.3361,
921.461,2807.351,
918.551,2801.6106,
915.640,2780.3282,
912.729,2762.0795,
909.819,2792.6743,
906.908,2736.2318,
903.998,2773.6886,
901.087,2778.3964,
898.176,2802.3251,
895.266,2822.2856,
892.355,2812.7474,
889.445,2874.8532,
886.534,2918.5383,
883.624,2921.0695,
880.713,2926.8011,
877.802,2947.9785,
874.892,2965.6904,
871.981,2936.4937,
869.071,2909.7605,
866.160,2934.7933,
863.250,2935.5441,
860.339,2931.2845,
857.428,2943.7424,
854.518,2941.7399,
851.607,2928.4267,
848.697,2891.0463,
845.786,2873.0491,
842.875,2880.2133,
839.965,2905.7466,
837.054,2945.0785,
834.144,2940.9347,
831.233,2942.1249,
828.323,2921.8584,
825.412,2900.125,
822.501,2898.7845,
819.591,2891.3469,
816.680,2850.2595,
813.770,2825.0889,
810.859,2818.8324,
807.949,2804.4859,
805.038,2757.3285,
802.127,2750.7435,
799.217,2753.852,
796.306,2731.8546,
793.396,2705.9493,
790.485,2702.3905,
787.574,2736.7513,
784.664,2726.91,
781.753,2731.1639,
778.843,2739.0258,
775.932,2752.7668,
773.022,2773.9002,
770.111,2785.3463,
767.200,2766.3309,
764.290,2756.6577,
761.379,2750.5802,
758.469,2747.4269,
755.558,2755.0066,
752.648,2717.5348,
749.737,2698.3748,
746.826,2675.341,
743.916,2642.1638,
741.005,2587.5089,
738.095,2422.6979,
735.184,2262.2582,
732.274,2250.8263,
729.363,2347.2755,
726.452,2486.1911,
723.542,2641.5946,
720.631,2721.2271,
717.721,2745.9892,
714.810,2745.4602,
711.899,2741.125,
708.989,2741.125,
706.078,2757.1511,
703.168,2711.3329,
700.257,2685.7262,
697.347,2701.2113,
694.436,2721.3792,
691.525,2657.0748,
688.615,2684.0042,
685.704,2699.0594,
682.794,2687.5931,
679.883,2687.3228,
676.973,2647.2543,
674.062,2676.7718,
671.151,2700.755,
668.241,2694.1186,
665.330,2662.957,
662.420,2680.5291,
659.509,2717.7763,
656.598,2738.4232,
653.688,2740.8151,
650.777,2743.233,
647.867,2746.4183,
644.956,2714.9292,
642.046,2703.8316,
639.135,2712.7713,
636.224,2700.4075,
633.314,2756.7771,
630.403,2769.9426,
627.493,2755.2983,
624.582,2735.597,
621.672,2746.6849,
618.761,2803.3605,
615.850,2839.3076,
612.940,2840.8051,
610.029,2821.5696,
607.119,2860.2615,
604.208,2884.7154,
601.297,2877.1724,
598.387,2848.2266,
595.476,2819.2447,
592.566,2852.3016,
589.655,2858.125,
586.745,2839.0304,
583.834,2815.8817,
580.923,2821.8691,
578.013,2779.4935,
575.102,2741.1663,
572.192,2755.4243,
569.281,2815.5784,
566.371,2806.9695,
563.460,2815.2961,
560.549,2837.1543,
557.639,2843.7711,
554.728,2812.6871,
551.818,2853.2635,
548.907,2875.5321,
545.996,2888.4017,
543.086,2898.648,
540.175,2914.9996,
537.265,2872.6682,
534.354,2880.2062,
531.444,2913.3207,
528.533,2937.125,
525.622,2937.125,
522.712,2963.8221,
519.801,2984.5619,
516.891,2997.4807,
513.980,3033.8726,
511.070,3077.2728,
508.159,3107.9744,
505.248,3127.8819,
502.338,3144.1809,
499.427,3214.4176,
496.517,3247.2664,
493.606,3251.7317,
490.695,3238.0552,
487.785,3230.3572,
484.874,3232.3561,
481.964,3219.175,
479.053,3202.1699,
476.143,3219.0651,
473.232,3244.5847,
470.321,3250.2324,
467.411,3244.0989,
464.500,3237.8147,
461.590,3225.5629,
458.679,3216.6221,
455.769,3228.1933,
452.858,3264.318,
449.947,3275.777,
447.037,3271.4506,
444.126,3271.9311,
441.216,3287.2686,
438.305,3328.4129,
435.395,3327.5686,
432.484,3310.7889,
429.573,3305.7927,
426.663,3364.3235,
423.752,3298.6857,
420.842,3297.3529,
417.931,3344.6222,
415.020,3388.607,
412.110,3411.3418,
409.199,3430.3719,
406.289,3441.1411,
403.378,3437.9892,
400.468,3397.9215,
397.557,3427.7994,
394.646,3441.9985,
391.736,3370.5938,
388.825,3354.0007,
385.915,3278.3432,
383.004,3246.9637,
380.094,3330.4976,
377.183,3455.4087,
374.272,3491.7533,
371.362,3499.6002,
368.451,3517.7237,
365.541,3560.5042,
362.630,3602.1682,
359.719,3620.3177,
356.809,3606.2998,
353.898,3642.2421,
350.988,3627.1706,
348.077,3619.7742,
345.167,3651.687,
342.256,3623.2984,
339.345,3602.3706,
336.435,3602.2287,
333.524,3631.9706,
330.614,3658.7962,
327.703,3623.4856,
324.793,3605.0684,
321.882,3671.134,
318.971,3674.8512,
316.061,3711.2836,
313.150,3727.5703,
310.240,3661.522,
307.329,3696.2861,
304.418,3697.4464,
301.508,3676.5958,
298.597,3659.5662,
295.687,3636.4533,
292.776,3662.7919,
289.866,3739.1912,
286.955,3858.126,
284.044,3954.8199,
281.134,4060.3711,
278.223,4170.8253,
275.313,4237.1423,
272.402,4321.9952,
269.492,4375.9767,
266.581,4381.5995,
263.670,4374.2477,
260.760,4429.0648,
257.849,4492.9299,
254.939,4526.6885,
252.028,4535.0873,
249.117,4543.1501,
246.207,4540.9803,
243.296,4509.5028,
240.386,4569.4652,
237.475,4594.2887,
234.565,4570.3471,
231.654,4508.2645,
228.743,4465.2059,
225.833,4436.4173,
222.922,4419.1206,
220.012,4376.1358,
217.101,4354.7643,
214.191,4341.4424,
211.280,4322.5284,
208.369,4315.0697,
205.459,4332.886,
202.548,4354.5985,
199.638,4299.4492,
196.727,4318.0882,
193.816,4336.5127,
190.906,4328.9122,
187.995,4351.357,
185.085,4364.7993,
182.174,4372.888,
179.264,4379.3928,
176.353,4358.3385,
173.442,4365.3406,
170.532,4392.4044,
167.621,4334.7264,
164.711,4251.8523,
161.800,4124.7686,
158.890,3930.4421,
155.979,3639.7084,
153.068,3343.839,
150.158,3021.905,
147.247,2573.9028,
144.337,2097.7185,
141.426,1646.3043,
138.516,1247.7128,
135.605,850.9249,
132.694,575.11871,
129.784,394.3416,
126.873,262.04258,
123.963,183.33962,
121.052,125.99449,
118.141,80.304762,
115.231,72.308726,
112.320,60.228646,
109.410,48.534066,
106.499,50.670531,
103.589,47.203219,
100.678,40.593918,
97.767,31.351729,
94.857,26.967066,
91.946,23.512557,
89.036,21.915285,
86.125,26.879722,
83.215,23.877637,
80.304,21.322163,
77.393,24.863013,
74.483,20.539055,
71.572,18.125,
68.662,17.640128,
65.751,12.69497,
62.840,12.088404,
59.930,13.312286,
57.019,14.017368,
54.109,18.902287,
51.198,20.013735,
48.288,15.096688,
45.377,11.579797,
42.466,10.537219,
39.556,11.585474,
36.645,14.394235,
33.735,14.605752,
30.824,13.020565,
27.914,9.5146889,
25.003,11.61555,
22.092,15.708236,
19.182,21.651306,
16.271,37.739579,
13.361,157.4972,
10.450,392.20986,
7.539,851.70137,
4.629,1219.9936,
1.718,1328.042,
-1.192,920.21246,
-4.103,526.00708,
-7.013,212.7022,
-9.924,1.125,
