,PL92EE~1,
Raman shift [1/cm],Intensity,
3014.167,-1.25,
3011.256,0.54995705,
3008.346,39.610345,
3005.435,74.09629,
3002.525,76.335011,
2999.614,73.848691,
2996.704,75.927317,
2993.793,60.979264,
2990.882,85.78812,
2987.972,91.674326,
2985.061,81.183503,
2982.151,100.84077,
2979.240,85.980017,
2976.329,112.01502,
2973.419,100.82702,
2970.508,89.966703,
2967.598,116.32349,
2964.687,114.37772,
2961.777,112.43389,
2958.866,101.08284,
2955.955,120.72121,
2953.045,123.19966,
2950.134,134.69755,
2947.224,132.77847,
2944.313,132.85114,
2941.403,143.91697,
2938.492,133.70662,
2935.581,139.10455,
2932.671,124.67277,
2929.760,146.23463,
2926.850,148.95902,
2923.939,132.22661,
2921.028,149.14417,
2918.118,158.8495,
2915.207,154.75,
2912.297,164.70769,
2909.386,162.96168,
2906.476,163.71911,
2903.565,158.49222,
2900.654,169.0432,
2897.744,150.62428,
2894.833,154.358,
2891.923,144.55759,
2889.012,159.66907,
2886.102,146.91757,
2883.191,163.73112,
2880.280,141.33372,
2877.370,121.25583,
2874.459,129.9199,
2871.549,156.63173,
2868.638,148.56651,
2865.727,169.64233,
2862.817,166.12165,
2859.906,171.49644,
2856.996,159.26132,
2854.085,166.43279,
2851.175,173.48795,
2848.264,167.61267,
2845.353,151.8147,
2842.443,157.94443,
2839.532,148.77994,
2836.622,150.41862,
2833.711,157.64639,
2830.801,166.54118,
2827.890,154.27274,
2824.979,164.392,
2822.069,166.78412,
2819.158,169.75,
2816.248,167.50868,
2813.337,154.1317,
2810.427,167.01447,
2807.516,168.32547,
2804.605,155.65386,
2801.695,154.94733,
2798.784,155.49331,
2795.874,170.59431,
2792.963,169.24968,
2790.052,148.75279,
2787.142,163.06569,
2784.231,152.04037,
2781.321,141.68714,
2778.410,149.87943,
2775.500,166.57931,
2772.589,167.86544,
2769.678,170.60665,
2766.768,172.75,
2763.857,164.48603,
2760.947,161.77522,
2758.036,164.90286,
2755.126,169.51068,
2752.215,170.09088,
2749.304,177.34531,
2746.394,170.34875,
2743.483,179.35002,
2740.573,171.31414,
2737.662,163.44082,
2734.751,176.95878,
2731.841,167.61447,
2728.930,175.40258,
2726.020,177.97975,
2723.109,181.09025,
2720.199,181.12182,
2717.288,181.59306,
2714.377,183.4582,
2711.467,191.14341,
2708.556,183.88853,
2705.646,181.66551,
2702.735,188.74484,
2699.825,187.66274,
2696.914,184.46408,
2694.003,187.05245,
2691.093,178.57189,
2688.182,196.09593,
2685.272,187.47546,
2682.361,181.0262,
2679.450,181.71712,
2676.540,194.58741,
2673.629,190.73204,
2670.719,180.76478,
2667.808,192.63138,
2664.898,197.15273,
2661.987,188.04997,
2659.076,190.24138,
2656.166,191.75,
2653.255,195.11905,
2650.345,195.61388,
2647.434,208.03608,
2644.524,210.55331,
2641.613,203.72172,
2638.702,194.97093,
2635.792,198.18769,
2632.881,192.7084,
2629.971,196.72991,
2627.060,209.74938,
2624.149,213.37188,
2621.239,206.48962,
2618.328,209.58045,
2615.418,201.76818,
2612.507,220.4337,
2609.597,193.15718,
2606.686,215.55522,
2603.775,214.75,
2600.865,197.16633,
2597.954,200.99577,
2595.044,221.45505,
2592.133,215.19588,
2589.223,220.31632,
2586.312,225.57915,
2583.401,218.46531,
2580.491,223.81727,
2577.580,211.7599,
2574.670,224.66843,
2571.759,227.88614,
2568.848,220.68925,
2565.938,217.65477,
2563.027,220.40907,
2560.117,222.93691,
2557.206,227.07841,
2554.296,232.20538,
2551.385,225.188,
2548.474,227.86115,
2545.564,223.90828,
2542.653,225.60235,
2539.743,235.70071,
2536.832,229.17803,
2533.922,223.31769,
2531.011,249.95074,
2528.100,237.41205,
2525.190,235.68197,
2522.279,245.51551,
2519.369,243.16495,
2516.458,235.96317,
2513.548,237.88619,
2510.637,260.45886,
2507.726,241.68681,
2504.816,239.24943,
2501.905,243.86585,
2498.995,254.33197,
2496.084,248.36324,
2493.173,245.88146,
2490.263,237.16581,
2487.352,240.83347,
2484.442,240.75643,
2481.531,244.70204,
2478.621,251.21445,
2475.710,260.80367,
2472.799,268.98317,
2469.889,264.50899,
2466.978,257.19329,
2464.068,251.04627,
2461.157,264.86745,
2458.247,268.20582,
2455.336,266.68543,
2452.425,267.07547,
2449.515,270.48597,
2446.604,269.75695,
2443.694,266.30841,
2440.783,260.41441,
2437.872,269.49475,
2434.962,263.53802,
2432.051,260.87337,
2429.141,265.71458,
2426.230,252.92344,
2423.320,295.7074,
2420.409,276.42965,
2417.498,269.33147,
2414.588,288.46476,
2411.677,274.28787,
2408.767,287.99114,
2405.856,287.15714,
2402.946,290.11908,
2400.035,302.4378,
2397.124,265.33287,
2394.214,290.29159,
2391.303,292.24729,
2388.393,288.73605,
2385.482,280.19062,
2382.571,277.58547,
2379.661,287.91259,
2376.750,294.5949,
2373.840,285.75,
2370.929,279.81498,
2368.019,291.55727,
2365.108,297.86518,
2362.197,303.37463,
2359.287,285.38008,
2356.376,313.69365,
2353.466,317.40245,
2350.555,297.82479,
2347.645,296.44668,
2344.734,316.72239,
2341.823,304.03191,
2338.913,332.37535,
2336.002,321.57053,
2333.092,319.04904,
2330.181,314.52237,
2327.270,347.87982,
2324.360,316.54011,
2321.449,307.78061,
2318.539,316.9855,
2315.628,336.11931,
2312.718,320.31827,
2309.807,342.7253,
2306.896,323.96283,
2303.986,321.93193,
2301.075,329.72875,
2298.165,317.56717,
2295.254,307.92234,
2292.344,342.91188,
2289.433,328.42182,
2286.522,327.18306,
2283.612,345.45156,
2280.701,345.22984,
2277.791,350.70993,
2274.880,349.75,
2271.969,349.75,
2269.059,354.21867,
2266.148,364.31594,
2263.238,355.05503,
2260.327,351.16385,
2257.417,357.46167,
2254.506,352.87248,
2251.595,355.30993,
2248.685,361.06732,
2245.774,366.05758,
2242.864,337.30609,
2239.953,362.70857,
2237.043,366.51572,
2234.132,369.41488,
2231.221,374.77582,
2228.311,368.40078,
2225.400,378.58113,
2222.490,375.53508,
2219.579,386.04048,
2216.669,385.73569,
2213.758,399.8389,
2210.847,390.43516,
2207.937,394.42426,
2205.026,383.97128,
2202.116,412.63428,
2199.205,424.04977,
2196.294,424.81601,
2193.384,435.96002,
2190.473,420.30047,
2187.563,429.85634,
2184.652,454.15979,
2181.742,461.54469,
2178.831,461.69948,
2175.920,488.32742,
2173.010,504.62585,
2170.099,524.34822,
2167.189,539.72847,
2164.278,538.65754,
2161.368,560.89151,
2158.457,600.18793,
2155.546,625.27982,
2152.636,648.77655,
2149.725,645.76343,
2146.815,669.84904,
2143.904,705.25557,
2140.993,717.12039,
2138.083,716.49162,
2135.172,737.14504,
2132.262,725.96655,
2129.351,706.46376,
2126.441,695.91502,
2123.530,654.60409,
2120.619,639.96108,
2117.709,614.77456,
2114.798,570.31148,
2111.888,561.23752,
2108.977,532.14071,
2106.067,496.03218,
2103.156,485.35082,
2100.245,478.73181,
2097.335,450.23167,
2094.424,452.3139,
2091.514,448.82259,
2088.603,456.92048,
2085.692,446.01776,
2082.782,447.17964,
2079.871,442.89236,
2076.961,426.71867,
2074.050,431.62273,
2071.140,444.88824,
2068.229,422.02865,
2065.318,420.10851,
2062.408,437.61383,
2059.497,420.29758,
2056.587,419.06369,
2053.676,405.33458,
2050.766,416.44133,
2047.855,416.43673,
2044.944,408.9423,
2042.034,429.75,
2039.123,424.30892,
2036.213,412.86555,
2033.302,399.79366,
2030.391,400.0548,
2027.481,419.14012,
2024.570,430.49268,
2021.660,418.57781,
2018.749,447.99019,
2015.839,426.32874,
2012.928,415.34732,
2010.017,424.25705,
2007.107,417.44908,
2004.196,435.96432,
2001.286,430.8525,
1998.375,405.04921,
1995.465,405.61607,
1992.554,420.89695,
1989.643,415.99195,
1986.733,397.14474,
1983.822,375.09786,
1980.912,407.82873,
1978.001,388.69063,
1975.090,394.73474,
1972.180,395.44017,
1969.269,386.35344,
1966.359,386.34463,
1963.448,397.97722,
1960.538,391.20037,
1957.627,384.29179,
1954.716,399.29037,
1951.806,350.88616,
1948.895,392.6427,
1945.985,391.39706,
1943.074,364.99351,
1940.164,366.1249,
1937.253,353.44574,
1934.342,366.91256,
1931.432,375.93612,
1928.521,349.26813,
1925.611,322.17225,
1922.700,350.5732,
1919.790,345.96981,
1916.879,378.16927,
1913.968,360.77459,
1911.058,346.46773,
1908.147,366.89741,
1905.237,348.10298,
1902.326,367.15742,
1899.415,354.98294,
1896.505,379.8887,
1893.594,374.67369,
1890.684,357.1094,
1887.773,364.28457,
1884.863,371.95501,
1881.952,361.70766,
1879.041,355.50649,
1876.131,376.10947,
1873.220,335.42238,
1870.310,349.17149,
1867.399,351.73401,
1864.489,338.98366,
1861.578,344.75,
1858.667,346.95058,
1855.757,358.15573,
1852.846,355.51922,
1849.936,361.61087,
1847.025,371.62345,
1844.114,402.0935,
1841.204,380.98427,
1838.293,366.26081,
1835.383,384.88898,
1832.472,416.42478,
1829.562,392.44869,
1826.651,380.22022,
1823.740,408.22897,
1820.830,379.16698,
1817.919,406.0257,
1815.009,382.21311,
1812.098,374.05709,
1809.188,394.38561,
1806.277,402.59508,
1803.366,426.08455,
1800.456,389.93752,
1797.545,443.09051,
1794.635,426.36299,
1791.724,423.91505,
1788.813,417.54074,
1785.903,393.90888,
1782.992,410.21349,
1780.082,403.62854,
1777.171,388.41488,
1774.261,388.32013,
1771.350,401.72875,
1768.439,412.83624,
1765.529,413.29349,
1762.618,409.44627,
1759.708,414.663,
1756.797,417.74242,
1753.887,428.26312,
1750.976,427.03272,
1748.065,409.6179,
1745.155,423.74339,
1742.244,419.53445,
1739.334,423.0747,
1736.423,435.10887,
1733.512,430.47356,
1730.602,439.71827,
1727.691,423.79083,
1724.781,427.18892,
1721.870,459.52636,
1718.960,462.63884,
1716.049,466.78385,
1713.138,418.16024,
1710.228,429.76683,
1707.317,482.286,
1704.407,451.91571,
1701.496,490.59275,
1698.586,480.89023,
1695.675,492.84992,
1692.764,459.66801,
1689.854,434.78936,
1686.943,482.06372,
1684.033,509.10426,
1681.122,466.49767,
1678.211,475.65483,
1675.301,554.50641,
1672.390,562.68719,
1669.480,541.95055,
1666.569,566.49608,
1663.659,546.96232,
1660.748,560.07779,
1657.837,577.55918,
1654.927,613.00027,
1652.016,582.74626,
1649.106,623.19066,
1646.195,640.75,
1643.285,640.29427,
1640.374,620.83362,
1637.463,626.38932,
1634.553,716.03078,
1631.642,735.28204,
1628.732,784.14108,
1625.821,849.73234,
1622.911,822.90215,
1620.000,871.13266,
1617.089,953.09825,
1614.179,1022.7759,
1611.268,1059.4116,
1608.358,1130.3319,
1605.447,1128.0928,
1602.536,1162.2298,
1599.626,1173.0294,
1596.715,1154.6904,
1593.805,1103.5617,
1590.894,1090.7046,
1587.984,1106.2057,
1585.073,1100.2418,
1582.162,1077.043,
1579.252,1085.8428,
1576.341,1063.116,
1573.431,1071.6303,
1570.520,1087.98,
1567.610,1061.9456,
1564.699,1012.5984,
1561.788,1010.4259,
1558.878,991.17053,
1555.967,971.16136,
1553.057,963.56038,
1550.146,942.08459,
1547.235,920.30478,
1544.325,906.39809,
1541.414,880.76788,
1538.504,853.47395,
1535.593,839.85468,
1532.683,822.88696,
1529.772,784.03162,
1526.861,759.99191,
1523.951,775.96809,
1521.040,782.352,
1518.130,769.33715,
1515.219,758.30943,
1512.309,775.02477,
1509.398,759.01629,
1506.487,731.47437,
1503.577,737.83602,
1500.666,753.28765,
1497.756,734.28396,
1494.845,739.90954,
1491.934,719.62401,
1489.024,681.1243,
1486.113,750.21838,
1483.203,693.57826,
1480.292,686.59851,
1477.382,632.59737,
1474.471,576.77678,
1471.560,625.43162,
1468.650,622.10233,
1465.739,607.18804,
1462.829,628.42906,
1459.918,630.49022,
1457.008,637.01176,
1454.097,607.53419,
1451.186,570.80029,
1448.276,606.92599,
1445.365,624.21367,
1442.455,614.56344,
1439.544,604.26315,
1436.633,587.35179,
1433.723,583.4917,
1430.812,597.94763,
1427.902,537.81765,
1424.991,540.66094,
1422.081,532.49271,
1419.170,563.72023,
1416.259,551.73868,
1413.349,554.54717,
1410.438,517.56234,
1407.528,509.11864,
1404.617,502.59456,
1401.707,521.24702,
1398.796,527.75704,
1395.885,501.30899,
1392.975,485.79146,
1390.064,483.51911,
1387.154,490.16991,
1384.243,451.33483,
1381.332,416.63532,
1378.422,429.01525,
1375.511,531.12437,
1372.601,527.22058,
1369.690,565.32501,
1366.780,601.84734,
1363.869,646.07385,
1360.958,667.01238,
1358.048,690.9226,
1355.137,727.35441,
1352.227,734.93946,
1349.316,736.08082,
1346.406,764.94312,
1343.495,781.96432,
1340.584,812.92856,
1337.674,820.39645,
1334.763,877.05555,
1331.853,911.3631,
1328.942,902.07643,
1326.032,911.35307,
1323.121,977.47294,
1320.210,998.41816,
1317.300,1002.4719,
1314.389,1059.1955,
1311.479,1094.4589,
1308.568,1094.1463,
1305.657,1128.1881,
1302.747,1129.985,
1299.836,1150.981,
1296.926,1211.5446,
1294.015,1250.1562,
1291.105,1296.6576,
1288.194,1333.1022,
1285.283,1350.058,
1282.373,1428.4216,
1279.462,1455.8287,
1276.552,1460.4036,
1273.641,1488.3421,
1270.731,1476.9336,
1267.820,1434.4995,
1264.909,1492.3216,
1261.999,1504.9151,
1259.088,1536.8393,
1256.178,1436.8317,
1253.267,1458.877,
1250.356,1433.501,
1247.446,1366.4649,
1244.535,1310.442,
1241.625,1268.1612,
1238.714,1241.4863,
1235.804,1236.8617,
1232.893,1189.7515,
1229.982,1183.3633,
1227.072,1201.4695,
1224.161,1168.2893,
1221.251,1139.4147,
1218.340,1134.9891,
1215.430,1101.5157,
1212.519,1079.0886,
1209.608,1104.4688,
1206.698,1128.8349,
1203.787,1111.9812,
1200.877,1143.0754,
1197.966,1099.9158,
1195.055,1133.5864,
1192.145,1187.836,
1189.234,1210.8867,
1186.324,1240.9343,
1183.413,1277.3236,
1180.503,1286.9814,
1177.592,1277.8815,
1174.681,1292.9658,
1171.771,1212.4918,
1168.860,1244.643,
1165.950,1200.1789,
1163.039,1214.5909,
1160.129,1216.3123,
1157.218,1215.5188,
1154.307,1205.0539,
1151.397,1176.4893,
1148.486,1179.946,
1145.576,1204.1355,
1142.665,1213.0146,
1139.754,1190.9684,
1136.844,1167.5421,
1133.933,1155.058,
1131.023,1151.75,
1128.112,1149.9645,
1125.202,1160.7596,
1122.291,1200.7392,
1119.380,1172.7154,
1116.470,1169.1852,
1113.559,1174.936,
1110.649,1197.0502,
1107.738,1196.4978,
1104.828,1176.7636,
1101.917,1170.1468,
1099.006,1191.0798,
1096.096,1206.6425,
1093.185,1204.8865,
1090.275,1191.8017,
1087.364,1182.5749,
1084.453,1195.499,
1081.543,1219.582,
1078.632,1206.8579,
1075.722,1159.8545,
1072.811,1220.8121,
1069.901,1221.6853,
1066.990,1208.8167,
1064.079,1214.5967,
1061.169,1222.0638,
1058.258,1235.3371,
1055.348,1262.3902,
1052.437,1288.1583,
1049.527,1264.0115,
1046.616,1244.8973,
1043.705,1268.956,
1040.795,1297.8207,
1037.884,1295.0836,
1034.974,1293.0399,
1032.063,1309.6963,
1029.153,1300.9045,
1026.242,1335.5027,
1023.331,1335.0834,
1020.421,1322.2022,
1017.510,1334.6788,
1014.600,1355.5169,
1011.689,1356.768,
1008.778,1340.5619,
1005.868,1363.3601,
1002.957,1431.328,
1000.047,1486.158,
997.136,1532.1163,
994.226,1542.9348,
991.315,1530.4455,
988.404,1527.6423,
985.494,1515.8102,
982.583,1473.8389,
979.673,1476.5298,
976.762,1489.1436,
973.852,1490.8879,
970.941,1488.8993,
968.030,1496.0448,
965.120,1480.7464,
962.209,1479.8939,
959.299,1489.6655,
956.388,1500.4696,
953.477,1502.0508,
950.567,1502.7627,
947.656,1520.9755,
944.746,1530.3206,
941.835,1537.2285,
938.925,1534.8017,
936.014,1512.0111,
933.103,1506.58,
930.193,1526.9583,
927.282,1498.6043,
924.372,1477.4641,
921.461,1472.5408,
918.551,1436.3131,
915.640,1421.3736,
912.729,1439.507,
909.819,1448.638,
906.908,1440.2137,
903.998,1458.8387,
901.087,1441.4723,
898.176,1439.7255,
895.266,1465.7156,
892.355,1498.263,
889.445,1511.6912,
886.534,1552.6587,
883.624,1547.9662,
880.713,1552.9778,
877.802,1564.0974,
874.892,1560.7054,
871.981,1542.4541,
869.071,1529.9229,
866.160,1540.8592,
863.250,1530.4997,
860.339,1526.4892,
857.428,1541.7325,
854.518,1523.8353,
851.607,1492.2166,
848.697,1497.0673,
845.786,1503.8259,
842.875,1499.1086,
839.965,1487.8277,
837.054,1492.8058,
834.144,1497.7783,
831.233,1507.416,
828.323,1504.3314,
825.412,1493.2084,
822.501,1488.8777,
819.591,1506.2321,
816.680,1441.0448,
813.770,1422.244,
810.859,1427.0674,
807.949,1441.6403,
805.038,1460.2478,
802.127,1464.3634,
799.217,1430.462,
796.306,1433.5069,
793.396,1456.4295,
790.485,1467.8008,
787.574,1441.1584,
784.664,1425.5763,
781.753,1438.8536,
778.843,1452.631,
775.932,1451.96,
773.022,1439.7931,
770.111,1459.415,
767.200,1488.1572,
764.290,1503.1067,
761.379,1484.9057,
758.469,1443.8905,
755.558,1422.4064,
752.648,1444.4007,
749.737,1436.9998,
746.826,1444.2704,
743.916,1423.73,
741.005,1329.0076,
738.095,1313.5819,
735.184,1190.1899,
732.274,1190.6585,
729.363,1262.9934,
726.452,1328.5439,
723.542,1382.7732,
720.631,1419.3897,
717.721,1440.6341,
714.810,1438.8523,
711.899,1429.1461,
708.989,1456.5815,
706.078,1427.9031,
703.168,1446.2533,
700.257,1437.5831,
697.347,1400.6632,
694.436,1397.4483,
691.525,1423.1701,
688.615,1449.5041,
685.704,1447.9358,
682.794,1427.8777,
679.883,1422.2546,
676.973,1433.4738,
674.062,1423.6264,
671.151,1419.38,
668.241,1432.9947,
665.330,1465.8256,
662.420,1467.4231,
659.509,1451.8767,
656.598,1446.6447,
653.688,1457.271,
650.777,1474.8589,
647.867,1448.5801,
644.956,1472.4692,
642.046,1468.3617,
639.135,1440.7326,
636.224,1455.7818,
633.314,1462.1333,
630.403,1473.2094,
627.493,1475.5252,
624.582,1472.6346,
621.672,1490.0584,
618.761,1489.2301,
615.850,1512.4425,
612.940,1530.3839,
610.029,1523.6728,
607.119,1499.1943,
604.208,1506.6902,
601.297,1525.207,
598.387,1540.0366,
595.476,1540.3043,
592.566,1535.5819,
589.655,1526.9753,
586.745,1509.297,
583.834,1483.845,
580.923,1455.7737,
578.013,1459.6974,
575.102,1453.2934,
572.192,1470.2589,
569.281,1508.2192,
566.371,1494.132,
563.460,1504.0375,
560.549,1527.2666,
557.639,1552.1213,
554.728,1564.1879,
551.818,1523.6115,
548.907,1542.783,
545.996,1557.6397,
543.086,1554.9309,
540.175,1565.0533,
537.265,1567.1986,
534.354,1553.7027,
531.444,1555.0762,
528.533,1597.2332,
525.622,1632.1508,
522.712,1623.3677,
519.801,1625.7339,
516.891,1648.4716,
513.980,1656.9888,
511.070,1654.2283,
508.159,1668.0321,
505.248,1687.0033,
502.338,1695.0152,
499.427,1738.2377,
496.517,1749.75,
493.606,1775.9964,
490.695,1824.2195,
487.785,1798.8164,
484.874,1834.1697,
481.964,1823.7736,
479.053,1779.1177,
476.143,1780.6536,
473.232,1763.4843,
470.321,1773.2936,
467.411,1785.1783,
464.500,1768.3621,
461.590,1753.0473,
458.679,1782.8683,
455.769,1787.1202,
452.858,1742.1128,
449.947,1803.2273,
447.037,1815.1432,
444.126,1806.247,
441.216,1790.6917,
438.305,1784.5962,
435.395,1799.4853,
432.484,1796.0809,
429.573,1784.01,
426.663,1802.2534,
423.752,1811.4216,
420.842,1777.7584,
417.931,1744.5234,
415.020,1782.4413,
412.110,1801.3087,
409.199,1847.8478,
406.289,1882.1246,
403.378,1858.7449,
400.468,1857.2329,
397.557,1840.2972,
394.646,1822.5952,
391.736,1815.591,
388.825,1779.3879,
385.915,1772.4754,
383.004,1783.4597,
380.094,1805.2453,
377.183,1854.1563,
374.272,1893.2607,
371.362,1930.055,
368.451,1965.9294,
365.541,1952.4197,
362.630,1954.2124,
359.719,1969.7008,
356.809,1995.9312,
353.898,1998.9264,
350.988,2013.3122,
348.077,2006.4542,
345.167,1963.415,
342.256,1996.286,
339.345,1991.4013,
336.435,1967.9239,
333.524,1941.1358,
330.614,1985.1,
327.703,2021.8532,
324.793,2037.563,
321.882,2019.7157,
318.971,2005.5903,
316.061,2007.5864,
313.150,2019.6,
310.240,2035.1844,
307.329,2038.6085,
304.418,2063.9155,
301.508,2073.8453,
298.597,2002.7653,
295.687,2017.7445,
292.776,2031.0834,
289.866,2056.6125,
286.955,2155.6017,
284.044,2248.8124,
281.134,2312.5238,
278.223,2344.1512,
275.313,2353.7303,
272.402,2387.6997,
269.492,2427.5432,
266.581,2467.4811,
263.670,2519.6789,
260.760,2538.9291,
257.849,2559.6874,
254.939,2608.1236,
252.028,2565.3193,
249.117,2544.6386,
246.207,2542.97,
243.296,2555.4146,
240.386,2550.8731,
237.475,2517.3992,
234.565,2473.1213,
231.654,2500.8759,
228.743,2477.4062,
225.833,2419.4673,
222.922,2338.4147,
220.012,2374.1139,
217.101,2354.3442,
214.191,2305.358,
211.280,2250.7983,
208.369,2252.1325,
205.459,2273.5148,
202.548,2292.9756,
199.638,2242.1802,
196.727,2251.3413,
193.816,2247.6886,
190.906,2208.7974,
187.995,2295.6803,
185.085,2327.1686,
182.174,2322.4817,
179.264,2299.3532,
176.353,2287.7791,
173.442,2287.4633,
170.532,2293.6498,
167.621,2275.6254,
164.711,2224.5,
161.800,2160.3854,
158.890,2094.8902,
155.979,1969.8713,
153.068,1830.607,
150.158,1665.8534,
147.247,1419.5958,
144.337,1156.7505,
141.426,914.78993,
138.516,714.06038,
135.605,484.50049,
132.694,317.00616,
129.784,205.04294,
126.873,144.97204,
123.963,102.02021,
121.052,72.234348,
118.141,55.814602,
115.231,40.117452,
112.320,25.277281,
109.410,14.022711,
106.499,15.447021,
103.589,20.79229,
100.678,22.577026,
97.767,16.889526,
94.857,14.671033,
91.946,12.943778,
89.036,11.75,
86.125,11.75,
83.215,6.4407965,
80.304,3.1865961,
77.393,7.4356157,
74.483,7.094865,
71.572,7.4747042,
68.662,8.611465,
65.751,7.1985628,
62.840,6.75,
59.930,6.3754276,
57.019,4.9652636,
54.109,5.9443217,
51.198,6.4483907,
48.288,5.7556624,
45.377,6.4590405,
42.466,6.3377807,
39.556,5.4046443,
36.645,3.2980736,
33.735,0.67300614,
30.824,1.1797567,
27.914,8.8926844,
25.003,15.353737,
22.092,18.104191,
19.182,17.436486,
16.271,38.42119,
13.361,137.36347,
10.450,351.29137,
7.539,871.53632,
4.629,1297.441,
1.718,1489.3548,
-1.192,1227.2284,
-4.103,725.23683,
-7.013,293.84451,
-9.924,-1.25,
