,PL12CC~1,
Raman shift [1/cm],Intensity,
3014.167,2.125,
3011.256,-0.97502147,
3008.346,127.78766,
3005.435,152.04726,
3002.525,160.01258,
2999.614,151.7393,
2996.704,163.53222,
2993.793,171.88652,
2990.882,169.90359,
2987.972,180.10482,
2985.061,176.125,
2982.151,191.09644,
2979.240,194.60693,
2976.329,211.89275,
2973.419,209.44772,
2970.508,217.3417,
2967.598,211.17641,
2964.687,231.16984,
2961.777,227.40702,
2958.866,245.7981,
2955.955,250.78427,
2953.045,267.37331,
2950.134,255.73142,
2947.224,269.23888,
2944.313,269.97899,
2941.403,269.60128,
2938.492,289.68868,
2935.581,279.08207,
2932.671,295.3224,
2929.760,275.17499,
2926.850,289.02763,
2923.939,306.96613,
2921.028,307.74858,
2918.118,309.62248,
2915.207,307.96068,
2912.297,309.17578,
2909.386,311.30019,
2906.476,299.51264,
2903.565,328.41686,
2900.654,309.85401,
2897.744,311.20043,
2894.833,313.82609,
2891.923,309.9359,
2889.012,322.38511,
2886.102,296.37364,
2883.191,296.12972,
2880.280,290.45514,
2877.370,266.78202,
2874.459,266.76658,
2871.549,288.17774,
2868.638,314.21777,
2865.727,320.38655,
2862.817,332.61162,
2859.906,319.4042,
2856.996,346.08424,
2854.085,343.6817,
2851.175,339.76659,
2848.264,324.77684,
2845.353,335.88776,
2842.443,329.51734,
2839.532,323.70717,
2836.622,330.36654,
2833.711,322.44368,
2830.801,330.81544,
2827.890,319.78932,
2824.979,326.74287,
2822.069,355.90893,
2819.158,343.58592,
2816.248,346.65395,
2813.337,359.10427,
2810.427,353.51481,
2807.516,349.39125,
2804.605,335.6202,
2801.695,355.38816,
2798.784,348.79031,
2795.874,336.83476,
2792.963,350.76809,
2790.052,338.12886,
2787.142,332.41446,
2784.231,336.80201,
2781.321,342.55926,
2778.410,346.98919,
2775.500,360.52983,
2772.589,340.97209,
2769.678,356.05332,
2766.768,358.7483,
2763.857,357.28493,
2760.947,363.05565,
2758.036,358.05497,
2755.126,348.78099,
2752.215,360.63843,
2749.304,374.91094,
2746.394,365.62897,
2743.483,378.42503,
2740.573,377.44803,
2737.662,374.25221,
2734.751,376.75134,
2731.841,374.58471,
2728.930,368.67586,
2726.020,377.69155,
2723.109,367.50675,
2720.199,364.79053,
2717.288,387.91333,
2714.377,376.09614,
2711.467,384.46896,
2708.556,404.38016,
2705.646,371.25166,
2702.735,394.63274,
2699.825,396.25589,
2696.914,398.22047,
2694.003,398.30873,
2691.093,405.08891,
2688.182,401.99833,
2685.272,400.96568,
2682.361,400.30731,
2679.450,395.04684,
2676.540,409.90144,
2673.629,398.79316,
2670.719,406.47528,
2667.808,418.73592,
2664.898,409.125,
2661.987,413.65842,
2659.076,420.61638,
2656.166,417.47997,
2653.255,426.34439,
2650.345,430.20485,
2647.434,450.15301,
2644.524,431.05546,
2641.613,440.98232,
2638.702,421.48796,
2635.792,426.0931,
2632.881,434.01186,
2629.971,436.99749,
2627.060,460.45937,
2624.149,443.39689,
2621.239,444.39723,
2618.328,438.71842,
2615.418,448.80681,
2612.507,448.33051,
2609.597,450.30863,
2606.686,454.37198,
2603.775,461.04961,
2600.865,456.2478,
2597.954,461.89163,
2595.044,480.09843,
2592.133,469.61528,
2589.223,457.34184,
2586.312,479.44159,
2583.401,477.92063,
2580.491,477.94712,
2577.580,467.16131,
2574.670,488.57153,
2571.759,486.02397,
2568.848,467.83762,
2565.938,491.36315,
2563.027,482.66137,
2560.117,482.66706,
2557.206,487.74124,
2554.296,498.52088,
2551.385,485.50504,
2548.474,503.0882,
2545.564,507.15666,
2542.653,506.56796,
2539.743,498.98945,
2536.832,507.10444,
2533.922,518.20385,
2531.011,522.30007,
2528.100,520.6581,
2525.190,532.98361,
2522.279,514.54708,
2519.369,522.82313,
2516.458,519.34526,
2513.548,514.69776,
2510.637,539.07979,
2507.726,527.80903,
2504.816,526.31102,
2501.905,519.55976,
2498.995,514.36388,
2496.084,516.59189,
2493.173,521.41474,
2490.263,527.32726,
2487.352,558.58247,
2484.442,543.27704,
2481.531,542.44409,
2478.621,543.51835,
2475.710,575.01765,
2472.799,553.97261,
2469.889,545.21367,
2466.978,559.125,
2464.068,551.4636,
2461.157,569.24245,
2458.247,575.13967,
2455.336,581.67687,
2452.425,570.1863,
2449.515,570.18112,
2446.604,562.87375,
2443.694,583.47367,
2440.783,597.93806,
2437.872,581.01561,
2434.962,576.28629,
2432.051,582.34126,
2429.141,588.43096,
2426.230,585.19019,
2423.320,605.0824,
2420.409,605.47094,
2417.498,615.74859,
2414.588,609.30751,
2411.677,599.26843,
2408.767,608.68996,
2405.856,619.9655,
2402.946,619.60132,
2400.035,618.52875,
2397.124,627.80948,
2394.214,638.5298,
2391.303,626.69411,
2388.393,617.39243,
2385.482,643.84721,
2382.571,629.60579,
2379.661,628.9391,
2376.750,643.48689,
2373.840,647.6532,
2370.929,643.125,
2368.019,649.75059,
2365.108,668.33442,
2362.197,656.97153,
2359.287,674.07487,
2356.376,652.17431,
2353.466,664.36819,
2350.555,659.05021,
2347.645,674.63757,
2344.734,651.54429,
2341.823,675.59434,
2338.913,674.92796,
2336.002,668.65363,
2333.092,690.44671,
2330.181,690.08921,
2327.270,678.67505,
2324.360,692.39386,
2321.449,691.86309,
2318.539,692.74275,
2315.628,698.82244,
2312.718,704.42456,
2309.807,711.78343,
2306.896,711.1563,
2303.986,720.07952,
2301.075,717.35904,
2298.165,718.92309,
2295.254,698.5774,
2292.344,699.33663,
2289.433,705.20228,
2286.522,733.33922,
2283.612,753.54594,
2280.701,750.47031,
2277.791,733.00665,
2274.880,754.339,
2271.969,758.60648,
2269.059,764.125,
2266.148,779.44553,
2263.238,752.73892,
2260.327,766.46987,
2257.417,772.78555,
2254.506,772.86572,
2251.595,781.68126,
2248.685,778.65775,
2245.774,770.42175,
2242.864,779.95794,
2239.953,765.17324,
2237.043,784.9832,
2234.132,788.6056,
2231.221,796.44294,
2228.311,784.24874,
2225.400,796.4346,
2222.490,809.53873,
2219.579,823.20214,
2216.669,830.61785,
2213.758,815.1655,
2210.847,839.17281,
2207.937,858.63639,
2205.026,846.6801,
2202.116,865.68019,
2199.205,872.98829,
2196.294,870.05096,
2193.384,872.30949,
2190.473,884.56866,
2187.563,893.22167,
2184.652,915.53479,
2181.742,930.60246,
2178.831,948.63479,
2175.920,977.03393,
2173.010,995.00085,
2170.099,1012.9901,
2167.189,1052.6273,
2164.278,1128.728,
2161.368,1179.1236,
2158.457,1227.341,
2155.546,1273.427,
2152.636,1324.2685,
2149.725,1363.2592,
2146.815,1387.4576,
2143.904,1469.7161,
2140.993,1459.5323,
2138.083,1503.6903,
2135.172,1511.1586,
2132.262,1495.8592,
2129.351,1477.0422,
2126.441,1441.3191,
2123.530,1419.6648,
2120.619,1372.6574,
2117.709,1321.0501,
2114.798,1273.421,
2111.888,1214.3264,
2108.977,1137.3501,
2106.067,1115.6753,
2103.156,1101.288,
2100.245,1036.1162,
2097.335,1019.5962,
2094.424,1001.843,
2091.514,1002.3373,
2088.603,994.85313,
2085.692,981.25888,
2082.782,975.83182,
2079.871,972.83912,
2076.961,968.38331,
2074.050,958.94924,
2071.140,969.49326,
2068.229,940.66927,
2065.318,943.656,
2062.408,942.67795,
2059.497,942.73215,
2056.587,935.19493,
2053.676,934.39147,
2050.766,948.04727,
2047.855,924.8085,
2044.944,946.66186,
2042.034,934.51803,
2039.123,933.60648,
2036.213,952.98947,
2033.302,964.5597,
2030.391,957.53209,
2027.481,968.97849,
2024.570,911.91238,
2021.660,922.7059,
2018.749,915.42892,
2015.839,925.54626,
2012.928,940.66527,
2010.017,934.90458,
2007.107,925.70631,
2004.196,930.24407,
2001.286,923.04022,
1998.375,919.99607,
1995.465,926.05804,
1992.554,938.51902,
1989.643,927.57433,
1986.733,908.60658,
1983.822,916.56075,
1980.912,914.03596,
1978.001,913.36247,
1975.090,912.696,
1972.180,919.78059,
1969.269,895.31172,
1966.359,914.50382,
1963.448,907.55696,
1960.538,920.84727,
1957.627,896.70083,
1954.716,898.95264,
1951.806,891.13144,
1948.895,871.86994,
1945.985,875.23121,
1943.074,891.19886,
1940.164,883.97122,
1937.253,892.56841,
1934.342,901.15922,
1931.432,893.57926,
1928.521,883.82621,
1925.611,883.84577,
1922.700,910.2424,
1919.790,879.22947,
1916.879,883.35776,
1913.968,896.11025,
1911.058,887.35021,
1908.147,853.30607,
1905.237,881.76467,
1902.326,859.59759,
1899.415,866.32623,
1896.505,875.68515,
1893.594,871.39332,
1890.684,887.87005,
1887.773,890.50443,
1884.863,880.74687,
1881.952,893.16734,
1879.041,900.125,
1876.131,879.76553,
1873.220,867.27984,
1870.310,879.12049,
1867.399,838.79673,
1864.489,880.04711,
1861.578,877.5646,
1858.667,877.4064,
1855.757,906.13216,
1852.846,899.13013,
1849.936,899.10198,
1847.025,884.71625,
1844.114,887.62153,
1841.204,914.83129,
1838.293,914.13165,
1835.383,900.83451,
1832.472,910.32326,
1829.562,926.59662,
1826.651,953.05721,
1823.740,948.83762,
1820.830,937.72338,
1817.919,942.64001,
1815.009,935.56266,
1812.098,943.99901,
1809.188,963.88465,
1806.277,952.41271,
1803.366,923.89027,
1800.456,966.21227,
1797.545,922.39418,
1794.635,982.31897,
1791.724,972.93079,
1788.813,981.71806,
1785.903,962.46995,
1782.992,984.61089,
1780.082,1005.1455,
1777.171,958.79042,
1774.261,953.39499,
1771.350,974.68276,
1768.439,1001.4644,
1765.529,996.12594,
1762.618,993.91186,
1759.708,1020.3754,
1756.797,1053.0492,
1753.887,1031.816,
1750.976,1011.9974,
1748.065,1024.486,
1745.155,1009.8542,
1742.244,1019.9619,
1739.334,999.25913,
1736.423,1006.7343,
1733.512,1044.5031,
1730.602,1093.2739,
1727.691,1062.3683,
1724.781,1034.9666,
1721.870,1033.5393,
1718.960,1094.9702,
1716.049,1091.3455,
1713.138,1084.705,
1710.228,1129.3804,
1707.317,1109.5879,
1704.407,1120.4994,
1701.496,1096.6017,
1698.586,1105.2128,
1695.675,1094.8965,
1692.764,1110.2193,
1689.854,1140.7825,
1686.943,1104.4403,
1684.033,1155.7838,
1681.122,1143.3629,
1678.211,1205.5254,
1675.301,1203.1343,
1672.390,1183.3463,
1669.480,1256.9325,
1666.569,1233.1631,
1663.659,1237.2519,
1660.748,1305.3371,
1657.837,1317.131,
1654.927,1360.4381,
1652.016,1291.0727,
1649.106,1330.2022,
1646.195,1372.8613,
1643.285,1363.9024,
1640.374,1439.7696,
1637.463,1423.9176,
1634.553,1467.9673,
1631.642,1524.3096,
1628.732,1541.3916,
1625.821,1586.1826,
1622.911,1673.6291,
1620.000,1789.6509,
1617.089,1835.2295,
1614.179,2012.9924,
1611.268,2091.2995,
1608.358,2196.1149,
1605.447,2272.7827,
1602.536,2360.063,
1599.626,2382.6838,
1596.715,2355.0818,
1593.805,2353.0193,
1590.894,2358.409,
1587.984,2333.1422,
1585.073,2319.766,
1582.162,2288.904,
1579.252,2262.6675,
1576.341,2257.3239,
1573.431,2243.811,
1570.520,2191.2049,
1567.610,2187.3016,
1564.699,2133.1226,
1561.788,2123.0967,
1558.878,2066.6763,
1555.967,2033.5003,
1553.057,1987.7461,
1550.146,1990.7795,
1547.235,1981.5603,
1544.325,1940.5037,
1541.414,1907.4633,
1538.504,1921.3565,
1535.593,1887.7214,
1532.683,1829.7189,
1529.772,1806.6629,
1526.861,1761.4808,
1523.951,1766.8974,
1521.040,1777.9965,
1518.130,1738.2701,
1515.219,1723.9649,
1512.309,1731.5755,
1509.398,1740.6061,
1506.487,1708.4166,
1503.577,1675.9566,
1500.666,1615.0424,
1497.756,1642.7686,
1494.845,1603.6859,
1491.934,1640.9864,
1489.024,1598.6367,
1486.113,1574.8718,
1483.203,1550.0326,
1480.292,1526.7607,
1477.382,1536.8652,
1474.471,1557.7747,
1471.560,1523.2134,
1468.650,1502.6588,
1465.739,1446.9643,
1462.829,1418.9155,
1459.918,1441.6721,
1457.008,1440.8478,
1454.097,1440.687,
1451.186,1440.7478,
1448.276,1416.1837,
1445.365,1435.0199,
1442.455,1447.5523,
1439.544,1423.323,
1436.633,1440.7933,
1433.723,1374.3712,
1430.812,1383.9377,
1427.902,1394.1701,
1424.991,1396.0656,
1422.081,1377.7755,
1419.170,1354.5235,
1416.259,1304.1413,
1413.349,1358.0757,
1410.438,1355.3325,
1407.528,1275.6009,
1404.617,1294.6636,
1401.707,1331.9454,
1398.796,1343.2858,
1395.885,1343.4162,
1392.975,1302.7076,
1390.064,1265.8876,
1387.154,1259.9943,
1384.243,1253.0191,
1381.332,1189.793,
1378.422,1192.7284,
1375.511,1301.395,
1372.601,1412.7919,
1369.690,1482.1306,
1366.780,1479.4524,
1363.869,1531.3373,
1360.958,1612.8649,
1358.048,1645.9049,
1355.137,1682.8715,
1352.227,1723.3603,
1349.316,1758.7877,
1346.406,1811.5782,
1343.495,1852.0763,
1340.584,1910.0167,
1337.674,1986.5554,
1334.763,2015.9718,
1331.853,2038.2254,
1328.942,2063.1405,
1326.032,2093.8561,
1323.121,2120.872,
1320.210,2099.4904,
1317.300,2144.1482,
1314.389,2178.9582,
1311.479,2239.0954,
1308.568,2326.2801,
1305.657,2312.9866,
1302.747,2290.355,
1299.836,2388.0072,
1296.926,2488.1505,
1294.015,2510.2143,
1291.105,2591.2543,
1288.194,2687.5905,
1285.283,2744.2092,
1282.373,2787.2343,
1279.462,2826.0854,
1276.552,2879.8968,
1273.641,2929.8559,
1270.731,2940.3026,
1267.820,2936.5262,
1264.909,2952.8938,
1261.999,2922.6909,
1259.088,2938.197,
1256.178,2891.1634,
1253.267,2893.8657,
1250.356,2825.3361,
1247.446,2742.4266,
1244.535,2709.1161,
1241.625,2674.1955,
1238.714,2621.125,
1235.804,2612.8241,
1232.893,2572.8908,
1229.982,2501.033,
1227.072,2498.3171,
1224.161,2454.4188,
1221.251,2450.5921,
1218.340,2396.4132,
1215.430,2351.2605,
1212.519,2315.5815,
1209.608,2285.3531,
1206.698,2284.1676,
1203.787,2296.3562,
1200.877,2328.5648,
1197.966,2303.3884,
1195.055,2407.9278,
1192.145,2456.9301,
1189.234,2524.8675,
1186.324,2581.7638,
1183.413,2602.2418,
1180.503,2602.8113,
1177.592,2599.6198,
1174.681,2575.3373,
1171.771,2555.548,
1168.860,2530.5415,
1165.950,2475.7162,
1163.039,2465.2202,
1160.129,2487.9496,
1157.218,2487.2607,
1154.307,2465.3017,
1151.397,2447.2192,
1148.486,2412.5313,
1145.576,2376.1272,
1142.665,2399.213,
1139.754,2358.0027,
1136.844,2341.8223,
1133.933,2354.9607,
1131.023,2373.2064,
1128.112,2362.5563,
1125.202,2320.6709,
1122.291,2301.8959,
1119.380,2356.3155,
1116.470,2375.7312,
1113.559,2345.6485,
1110.649,2391.7869,
1107.738,2416.8385,
1104.828,2393.1522,
1101.917,2375.4805,
1099.006,2404.6816,
1096.096,2423.6523,
1093.185,2383.2642,
1090.275,2389.8362,
1087.364,2407.9058,
1084.453,2401.6259,
1081.543,2390.6868,
1078.632,2405.1679,
1075.722,2434.928,
1072.811,2421.0009,
1069.901,2419.2544,
1066.990,2453.8833,
1064.079,2450.5563,
1061.169,2453.4095,
1058.258,2476.6409,
1055.348,2512.0592,
1052.437,2543.781,
1049.527,2547.7963,
1046.616,2565.1729,
1043.705,2580.228,
1040.795,2597.5336,
1037.884,2623.3316,
1034.974,2635.9111,
1032.063,2629.0326,
1029.153,2636.8907,
1026.242,2651.5949,
1023.331,2635.4594,
1020.421,2662.1004,
1017.510,2688.0113,
1014.600,2711.6588,
1011.689,2728.9847,
1008.778,2741.5192,
1005.868,2831.6347,
1002.957,2888.418,
1000.047,2990.309,
997.136,3081.5083,
994.226,3111.7559,
991.315,3087.9468,
988.404,3054.1262,
985.494,3021.6673,
982.583,2956.569,
979.673,2980.7807,
976.762,2993.7121,
973.852,2982.1907,
970.941,2979.8694,
968.030,3002.3098,
965.120,2958.1859,
962.209,2972.6791,
959.299,2973.7085,
956.388,2976.4848,
953.477,2982.4132,
950.567,3011.9602,
947.656,3076.6659,
944.746,3035.0376,
941.835,3054.99,
938.925,3054.2025,
936.014,3024.822,
933.103,3031.6097,
930.193,3071.9483,
927.282,2992.7877,
924.372,2949.6618,
921.461,2908.7778,
918.551,2883.3445,
915.640,2864.7762,
912.729,2847.0262,
909.819,2826.7863,
906.908,2778.7681,
903.998,2810.3257,
901.087,2850.9503,
898.176,2865.7846,
895.266,2870.6948,
892.355,2903.8886,
889.445,2982.7797,
886.534,3008.1712,
883.624,3008.4152,
880.713,3035.7256,
877.802,3062.388,
874.892,3054.8965,
871.981,3035.9672,
869.071,3029.2839,
866.160,2994.317,
863.250,3025.2548,
860.339,3054.2379,
857.428,3026.3423,
854.518,3005.7639,
851.607,2993.2829,
848.697,2991.8128,
845.786,3003.5423,
842.875,2998.7449,
839.965,2977.8485,
837.054,3013.2459,
834.144,3024.0197,
831.233,3016.7923,
828.323,3009.6521,
825.412,2995.5343,
822.501,2963.678,
819.591,2922.358,
816.680,2875.4518,
813.770,2862.2455,
810.859,2862.0275,
807.949,2842.7298,
805.038,2785.9391,
802.127,2759.5991,
799.217,2786.9406,
796.306,2786.3411,
793.396,2776.5677,
790.485,2776.8625,
787.574,2787.3118,
784.664,2792.2325,
781.753,2815.2675,
778.843,2828.0853,
775.932,2843.3964,
773.022,2865.01,
770.111,2812.6849,
767.200,2812.9316,
764.290,2811.2356,
761.379,2810.7005,
758.469,2806.0099,
755.558,2780.5838,
752.648,2829.46,
749.737,2777.11,
746.826,2745.5237,
743.916,2722.5532,
741.005,2642.343,
738.095,2493.7695,
735.184,2303.0806,
732.274,2291.4478,
729.363,2418.1044,
726.452,2585.859,
723.542,2695.1271,
720.631,2763.0527,
717.721,2782.6978,
714.810,2792.642,
711.899,2819.9765,
708.989,2870.8128,
706.078,2835.8677,
703.168,2800.4073,
700.257,2765.3844,
697.347,2741.8639,
694.436,2748.5833,
691.525,2765.4632,
688.615,2765.9804,
685.704,2757.6496,
682.794,2746.0825,
679.883,2737.8911,
676.973,2777.1583,
674.062,2758.3256,
671.151,2747.07,
668.241,2753.3162,
665.330,2759.5074,
662.420,2809.8275,
659.509,2773.1401,
656.598,2766.897,
653.688,2801.2563,
650.777,2824.855,
647.867,2816.8917,
644.956,2765.593,
642.046,2745.49,
639.135,2761.173,
636.224,2765.4154,
633.314,2823.373,
630.403,2820.3887,
627.493,2819.2632,
624.582,2834.653,
621.672,2823.5651,
618.761,2848.9629,
615.850,2883.5724,
612.940,2903.0758,
610.029,2898.862,
607.119,2897.2827,
604.208,2944.6959,
601.297,2941.1932,
598.387,2920.4181,
595.476,2925.0108,
592.566,2913.2048,
589.655,2931.2096,
586.745,2922.5964,
583.834,2890.9766,
580.923,2868.9449,
578.013,2839.125,
575.102,2821.9476,
572.192,2842.2786,
569.281,2889.8596,
566.371,2882.816,
563.460,2905.4055,
560.549,2899.5321,
557.639,2896.5532,
554.728,2935.9827,
551.818,2981.2411,
548.907,3004.5321,
545.996,3001.8501,
543.086,2986.1382,
540.175,2995.4819,
537.265,2981.6394,
534.354,2971.1081,
531.444,2990.3682,
528.533,3051.3592,
525.622,3026.5289,
522.712,3063.5977,
519.801,3084.2512,
516.891,3078.2897,
513.980,3103.8414,
511.070,3100.4902,
508.159,3173.1029,
505.248,3240.604,
502.338,3199.2486,
499.427,3271.8009,
496.517,3324.4987,
493.606,3340.7032,
490.695,3325.4415,
487.785,3349.305,
484.874,3351.8326,
481.964,3352.7861,
479.053,3348.5061,
476.143,3320.8595,
473.232,3316.2474,
470.321,3309.2861,
467.411,3297.5533,
464.500,3281.5904,
461.590,3299.9682,
458.679,3303.4741,
455.769,3307.4811,
452.858,3320.2385,
449.947,3330.9335,
447.037,3363.463,
444.126,3393.8462,
441.216,3414.9031,
438.305,3430.9036,
435.395,3399.6875,
432.484,3390.8768,
429.573,3405.255,
426.663,3414.3767,
423.752,3380.254,
420.842,3406.6834,
417.931,3459.1416,
415.020,3469.7586,
412.110,3494.9998,
409.199,3554.4917,
406.289,3593.3502,
403.378,3550.9995,
400.468,3513.9558,
397.557,3531.4315,
394.646,3542.1562,
391.736,3495.4248,
388.825,3473.5521,
385.915,3410.1803,
383.004,3392.9625,
380.094,3476.3535,
377.183,3500.4327,
374.272,3540.2346,
371.362,3592.5542,
368.451,3652.6295,
365.541,3677.3972,
362.630,3683.5788,
359.719,3686.0847,
356.809,3694.6655,
353.898,3720.1246,
350.988,3746.112,
348.077,3750.7991,
345.167,3723.3899,
342.256,3728.6194,
339.345,3695.5819,
336.435,3684.5565,
333.524,3735.6887,
330.614,3753.5724,
327.703,3755.5312,
324.793,3748.5159,
321.882,3738.1989,
318.971,3768.6801,
316.061,3791.8212,
313.150,3808.3583,
310.240,3818.7479,
307.329,3826.986,
304.418,3834.2286,
301.508,3827.7034,
298.597,3784.7593,
295.687,3737.7816,
292.776,3757.1252,
289.866,3852.0476,
286.955,4036.729,
284.044,4107.4,
281.134,4176.0784,
278.223,4262.0587,
275.313,4350.4813,
272.402,4442.8997,
269.492,4492.0059,
266.581,4491.0076,
263.670,4601.2846,
260.760,4626.334,
257.849,4636.0359,
254.939,4681.5366,
252.028,4761.0241,
249.117,4767.37,
246.207,4726.0557,
243.296,4675.5451,
240.386,4683.1848,
237.475,4699.3455,
234.565,4703.887,
231.654,4638.8828,
228.743,4596.932,
225.833,4551.4284,
222.922,4495.0571,
220.012,4493.5999,
217.101,4488.2178,
214.191,4465.203,
211.280,4405.5511,
208.369,4423.3278,
205.459,4416.1587,
202.548,4387.7462,
199.638,4379.764,
196.727,4421.9174,
193.816,4453.2219,
190.906,4451.0996,
187.995,4450.3756,
185.085,4469.9849,
182.174,4491.9291,
179.264,4491.2064,
176.353,4446.9113,
173.442,4432.2766,
170.532,4444.8326,
167.621,4399.4111,
164.711,4319.3268,
161.800,4195.2093,
158.890,4010.959,
155.979,3804.928,
153.068,3487.7016,
150.158,3077.76,
147.247,2634.7835,
144.337,2164.7372,
141.426,1705.7603,
138.516,1277.0593,
135.605,919.56968,
132.694,635.96125,
129.784,418.85735,
126.873,268.68009,
123.963,184.63241,
121.052,129.39396,
118.141,92.271057,
115.231,77.203023,
112.320,66.888641,
109.410,59.625092,
106.499,51.791385,
103.589,43.401946,
100.678,34.322296,
97.767,24.36917,
94.857,23.432011,
91.946,20.303224,
89.036,16.915285,
86.125,21.879722,
83.215,22.59408,
80.304,22.364433,
77.393,23.072603,
74.483,15.263381,
71.572,13.299113,
68.662,16.432325,
65.751,9.3678142,
62.840,8.088404,
59.930,10.061431,
57.019,13.586841,
54.109,11.736357,
51.198,10.125,
48.288,10.125,
45.377,10.125,
42.466,8.888342,
39.556,6.31917,
36.645,1.4038384,
33.735,4.7982362,
30.824,6.6952433,
27.914,-1.0176844,
25.003,1.2381874,
22.092,1.8333818,
19.182,-1.2868915,
16.271,-13.877714,
13.361,-34.468945,
10.450,-108.87868,
7.539,-416.83576,
4.629,-720.44371,
1.718,-988.03324,
-1.192,-1177.6566,
-4.103,-785.01373,
-7.013,-358.39141,
-9.924,2.125,
