,PL367B~1,
Raman shift [1/cm],Intensity,
3014.167,0.125,
3011.256,-1.2249678,
3008.346,81.634083,
3005.435,102.54903,
3002.525,93.652405,
2999.614,116.78865,
2996.704,114.62913,
2993.793,122.62961,
2990.882,129.85777,
2987.972,119.2259,
2985.061,136.02155,
2982.151,125.96029,
2979.240,141.5423,
2976.329,151.64957,
2973.419,141.57121,
2970.508,148.99161,
2967.598,145.17279,
2964.687,151.85598,
2961.777,167.18492,
2958.866,169.7981,
2955.955,153.53651,
2953.045,169.47399,
2950.134,185.16878,
2947.224,191.78337,
2944.313,189.1136,
2941.403,206.20848,
2938.492,201.25236,
2935.581,202.57652,
2932.671,212.44257,
2929.760,198.52115,
2926.850,203.75921,
2923.939,206.64368,
2921.028,211.125,
2918.118,202.90712,
2915.207,228.95422,
2912.297,225.16731,
2909.386,223.89143,
2906.476,212.54354,
2903.565,233.54426,
2900.654,232.06636,
2897.744,217.07471,
2894.833,211.06318,
2891.923,222.72121,
2889.012,217.29263,
2886.102,209.89663,
2883.191,217.11556,
2880.280,198.39293,
2877.370,186.54358,
2874.459,174.37015,
2871.549,177.58584,
2868.638,239.12909,
2865.727,225.80961,
2862.817,227.85361,
2859.906,222.2646,
2856.996,235.10689,
2854.085,235.60399,
2851.175,229.17318,
2848.264,228.91417,
2845.353,236.08187,
2842.443,230.13196,
2839.532,225.67723,
2836.622,215.03516,
2833.711,224.85813,
2830.801,204.84485,
2827.890,212.66696,
2824.979,223.75493,
2822.069,221.19323,
2819.158,224.08457,
2816.248,213.89526,
2813.337,226.21769,
2810.427,216.73519,
2807.516,223.38391,
2804.605,238.6298,
2801.695,226.21712,
2798.784,232.90323,
2795.874,231.40468,
2792.963,225.5533,
2790.052,235.12157,
2787.142,231.24327,
2784.231,217.25388,
2781.321,231.99352,
2778.410,215.53997,
2775.500,224.54948,
2772.589,239.81614,
2769.678,230.47991,
2766.768,234.44344,
2763.857,224.283,
2760.947,222.60924,
2758.036,237.91492,
2755.126,231.02671,
2752.215,238.59318,
2749.304,241.6142,
2746.394,251.35882,
2743.483,253.37506,
2740.573,227.93025,
2737.662,234.81582,
2734.751,241.07661,
2731.841,220.63782,
2728.930,251.75644,
2726.020,245.13021,
2723.109,242.03233,
2720.199,246.125,
2717.288,240.14324,
2714.377,247.31648,
2711.467,245.10852,
2708.556,261.11405,
2705.646,260.29398,
2702.735,244.13016,
2699.825,253.52684,
2696.914,248.41044,
2694.003,268.1429,
2691.093,249.16109,
2688.182,251.48796,
2685.272,271.05388,
2682.361,258.15994,
2679.450,268.04684,
2676.540,250.18597,
2673.629,252.79316,
2670.719,263.68693,
2667.808,276.78455,
2664.898,271.78745,
2661.987,271.35846,
2659.076,263.03234,
2656.166,273.06009,
2653.255,275.82568,
2650.345,284.90903,
2647.434,283.23961,
2644.524,285.47268,
2641.613,281.78245,
2638.702,291.06188,
2635.792,273.68731,
2632.881,279.1666,
2629.971,282.125,
2627.060,269.12438,
2624.149,279.17812,
2621.239,279.11314,
2618.328,266.09991,
2615.418,280.82499,
2612.507,288.46484,
2609.597,287.59406,
2606.686,281.56676,
2603.775,278.96627,
2600.865,291.53458,
2597.954,284.08328,
2595.044,299.49081,
2592.133,298.23971,
2589.223,309.25764,
2586.312,302.125,
2583.401,303.47172,
2580.491,305.85096,
2577.580,300.15966,
2574.670,317.25068,
2571.759,304.37243,
2568.848,286.48404,
2565.938,314.17255,
2563.027,323.02728,
2560.117,312.22778,
2557.206,308.93312,
2554.296,314.84125,
2551.385,323.563,
2548.474,312.1618,
2545.564,328.42858,
2542.653,319.90352,
2539.743,330.11268,
2536.832,329.61472,
2533.922,302.39308,
2531.011,319.39998,
2528.100,327.05533,
2525.190,325.21926,
2522.279,324.78157,
2519.369,334.80445,
2516.458,318.22982,
2513.548,331.35199,
2510.637,328.03096,
2507.726,349.00602,
2504.816,336.18814,
2501.905,333.63232,
2498.995,331.48331,
2496.084,340.19122,
2493.173,332.20347,
2490.263,338.47305,
2487.352,339.3754,
2484.442,348.54255,
2481.531,349.22614,
2478.621,340.58945,
2475.710,351.02532,
2472.799,341.82451,
2469.889,346.33828,
2466.978,334.79514,
2464.068,354.19386,
2461.157,347.62744,
2458.247,353.43377,
2455.336,359.65535,
2452.425,353.64385,
2449.515,342.96493,
2446.604,357.53513,
2443.694,356.6365,
2440.783,364.6509,
2437.872,354.56258,
2434.962,366.91302,
2432.051,364.24837,
2429.141,366.95431,
2426.230,366.38576,
2423.320,385.61104,
2420.409,373.63779,
2417.498,376.72332,
2414.588,387.75233,
2411.677,389.23257,
2408.767,395.66634,
2405.856,402.37264,
2402.946,385.11875,
2400.035,371.93251,
2397.124,379.48328,
2394.214,401.6934,
2391.303,390.90414,
2388.393,389.30875,
2385.482,389.34531,
2382.571,407.6314,
2379.661,412.93881,
2376.750,424.96737,
2373.840,399.80949,
2370.929,408.95172,
2368.019,408.19767,
2365.108,401.70615,
2362.197,404.72226,
2359.287,411.51163,
2356.376,412.12676,
2353.466,407.92809,
2350.555,411.47016,
2347.645,421.67731,
2344.734,415.45678,
2341.823,436.727,
2338.913,408.63101,
2336.002,430.4169,
2333.092,417.3665,
2330.181,441.54947,
2327.270,429.39012,
2324.360,432.06603,
2321.449,439.74065,
2318.539,446.18923,
2315.628,442.84802,
2312.718,440.125,
2309.807,456.85175,
2306.896,450.10152,
2303.986,443.73541,
2301.075,442.80587,
2298.165,450.50019,
2295.254,457.03883,
2292.344,449.91757,
2289.433,445.85091,
2286.522,463.17855,
2283.612,465.81505,
2280.701,451.41202,
2277.791,466.40552,
2274.880,476.54894,
2271.969,482.16203,
2269.059,474.4765,
2266.148,475.6659,
2263.238,486.81997,
2260.327,487.91808,
2257.417,482.27834,
2254.506,479.1934,
2251.595,478.4196,
2248.685,461.55003,
2245.774,452.7185,
2242.864,487.61625,
2239.953,504.34578,
2237.043,489.29393,
2234.132,488.92241,
2231.221,480.01902,
2228.311,511.04893,
2225.400,500.7442,
2222.490,523.05336,
2219.579,523.02215,
2216.669,521.09638,
2213.758,521.2544,
2210.847,530.21566,
2207.937,521.61361,
2205.026,553.34716,
2202.116,565.35109,
2199.205,585.46311,
2196.294,565.81902,
2193.384,591.38705,
2190.473,604.125,
2187.563,589.33768,
2184.652,634.93234,
2181.742,647.78442,
2178.831,661.16005,
2175.920,668.95924,
2173.010,692.05187,
2170.099,724.52233,
2167.189,726.16088,
2164.278,733.61947,
2161.368,754.12428,
2158.457,762.77059,
2155.546,747.39807,
2152.636,785.32701,
2149.725,818.27264,
2146.815,847.22404,
2143.904,861.62314,
2140.993,861.54823,
2138.083,877.9487,
2135.172,881.6208,
2132.262,884.62852,
2129.351,888.39053,
2126.441,858.20258,
2123.530,838.45156,
2120.619,774.58391,
2117.709,738.74175,
2114.798,721.23273,
2111.888,699.47617,
2108.977,677.30381,
2106.067,660.92393,
2103.156,636.64846,
2100.245,620.12124,
2097.335,611.59621,
2094.424,593.36435,
2091.514,596.62771,
2088.603,598.27709,
2085.692,600.44467,
2082.782,579.3862,
2079.871,583.91146,
2076.961,581.51247,
2074.050,586.83409,
2071.140,581.76863,
2068.229,588.93489,
2065.318,604.10076,
2062.408,595.87464,
2059.497,582.13096,
2056.587,589.09004,
2053.676,574.79266,
2050.766,579.43217,
2047.855,558.69781,
2044.944,544.92307,
2042.034,553.67996,
2039.123,574.64688,
2036.213,581.18495,
2033.302,563.40765,
2030.391,566.92145,
2027.481,580.53954,
2024.570,579.06799,
2021.660,591.29719,
2018.749,586.9228,
2015.839,604.56922,
2012.928,589.5042,
2010.017,596.39753,
2007.107,588.98292,
2004.196,568.54165,
2001.286,579.0225,
1998.375,597.86713,
1995.465,584.03304,
1992.554,558.08989,
1989.643,589.88071,
1986.733,576.84079,
1983.822,556.38202,
1980.912,568.98629,
1978.001,566.69272,
1975.090,576.10211,
1972.180,574.02262,
1969.269,584.20266,
1966.359,593.34112,
1963.448,572.32314,
1960.538,568.55953,
1957.627,561.10023,
1954.716,574.6941,
1951.806,561.51599,
1948.895,588.38006,
1945.985,582.9763,
1943.074,552.88149,
1940.164,563.49075,
1937.253,586.66862,
1934.342,563.50094,
1931.432,540.46569,
1928.521,558.15264,
1925.611,568.24191,
1922.700,549.7134,
1919.790,546.84752,
1916.879,532.24099,
1913.968,573.07336,
1911.058,540.85173,
1908.147,552.18778,
1905.237,560.11765,
1902.326,567.55314,
1899.415,565.64328,
1896.505,543.29971,
1893.594,546.94208,
1890.684,564.61509,
1887.773,583.74557,
1884.863,583.29812,
1881.952,546.94784,
1879.041,548.0113,
1876.131,550.68186,
1873.220,541.40815,
1870.310,562.40299,
1867.399,563.14099,
1864.489,593.2293,
1861.578,569.07021,
1858.667,552.05911,
1855.757,573.11068,
1852.846,577.0635,
1849.936,558.65851,
1847.025,583.60191,
1844.114,563.97679,
1841.204,578.47815,
1838.293,576.13165,
1835.383,575.9505,
1832.472,577.34587,
1829.562,605.5099,
1826.651,585.20102,
1823.740,605.97948,
1820.830,622.43998,
1817.919,590.54994,
1815.009,604.53085,
1812.098,596.45572,
1809.188,585.74518,
1806.277,604.68236,
1803.366,626.5261,
1800.456,590.7403,
1797.545,587.25959,
1794.635,612.83592,
1791.724,584.22199,
1788.813,617.3214,
1785.903,621.83613,
1782.992,650.05488,
1780.082,600.68181,
1777.171,622.78666,
1774.261,612.88518,
1771.350,630.4995,
1768.439,623.9108,
1765.529,628.76487,
1762.618,662.72002,
1759.708,639.36377,
1756.797,625.02652,
1753.887,656.79264,
1750.976,633.33509,
1748.065,626.94374,
1745.155,641.95723,
1742.244,636.8415,
1739.334,687.90145,
1736.423,661.5475,
1733.512,660.49904,
1730.602,696.54964,
1727.691,653.92408,
1724.781,668.80149,
1721.870,677.125,
1718.960,668.08045,
1716.049,687.09937,
1713.138,714.20989,
1710.228,691.14579,
1707.317,720.73871,
1704.407,703.56347,
1701.496,688.36333,
1698.586,714.84453,
1695.675,710.57504,
1692.764,743.26026,
1689.854,786.26282,
1686.943,747.54148,
1684.033,764.65311,
1681.122,754.31192,
1678.211,816.52541,
1675.301,803.16817,
1672.390,797.17584,
1669.480,814.42181,
1666.569,851.16309,
1663.659,855.13761,
1660.748,915.10307,
1657.837,863.97792,
1654.927,902.21872,
1652.016,906.99977,
1649.106,943.39801,
1646.195,994.50862,
1643.285,1010.5124,
1640.374,1026.7278,
1637.463,1008.6114,
1634.553,1035.7457,
1631.642,1078.0045,
1628.732,1158.1546,
1625.821,1163.176,
1622.911,1240.6855,
1620.000,1318.1423,
1617.089,1431.8364,
1614.179,1485.6303,
1611.268,1542.9687,
1608.358,1631.8641,
1605.447,1649.3251,
1602.536,1638.0105,
1599.626,1712.5595,
1596.715,1708.2338,
1593.805,1679.4007,
1590.894,1644.4209,
1587.984,1601.1509,
1585.073,1596.8266,
1582.162,1628.8507,
1579.252,1588.4818,
1576.341,1550.0878,
1573.431,1532.1606,
1570.520,1548.2344,
1567.610,1528.7913,
1564.699,1493.2989,
1561.788,1496.5052,
1558.878,1457.0626,
1555.967,1439.4283,
1553.057,1405.4012,
1550.146,1361.1578,
1547.235,1347.896,
1544.325,1338.9454,
1541.414,1324.6443,
1538.504,1301.6557,
1535.593,1295.3502,
1532.683,1293.7214,
1529.772,1270.5001,
1526.861,1266.7692,
1523.951,1263.9616,
1521.040,1245.6061,
1518.130,1246.1542,
1515.219,1218.2454,
1512.309,1198.17,
1509.398,1177.7544,
1506.487,1168.4473,
1503.577,1212.9207,
1500.666,1193.2976,
1497.756,1141.1083,
1494.845,1163.6842,
1491.934,1129.1281,
1489.024,1130.0906,
1486.113,1131.9794,
1483.203,1109.9208,
1480.292,1141.914,
1477.382,1085.0816,
1474.471,1045.5689,
1471.560,1075.134,
1468.650,1048.1286,
1465.739,1016.3152,
1462.829,1024.0454,
1459.918,1036.8875,
1457.008,1036.0788,
1454.097,1043.7546,
1451.186,1048.6395,
1448.276,1045.5044,
1445.365,1061.3398,
1442.455,1062.3853,
1439.544,1048.9197,
1436.633,1056.698,
1433.723,1063.2526,
1430.812,1052.692,
1427.902,996.62891,
1424.991,975.77813,
1422.081,973.29005,
1419.170,980.90154,
1416.259,1002.3766,
1413.349,950.48192,
1410.438,942.62169,
1407.528,973.51841,
1404.617,960.52997,
1401.707,978.75077,
1398.796,986.16353,
1395.885,969.94007,
1392.975,976.79119,
1390.064,953.77053,
1387.154,924.75892,
1384.243,842.95163,
1381.332,821.55563,
1378.422,852.55466,
1375.511,919.06611,
1372.601,989.24278,
1369.690,1066.2745,
1366.780,1104.2622,
1363.869,1142.3635,
1360.958,1150.8239,
1358.048,1156.2447,
1355.137,1182.1524,
1352.227,1192.4321,
1349.316,1215.9531,
1346.406,1265.2933,
1343.495,1288.0171,
1340.584,1377.9109,
1337.674,1360.6594,
1334.763,1341.7128,
1331.853,1383.4382,
1328.942,1400.2459,
1326.032,1422.5155,
1323.121,1441.2033,
1320.210,1444.1272,
1317.300,1446.6664,
1314.389,1453.7501,
1311.479,1439.3387,
1308.568,1425.5415,
1305.657,1462.6682,
1302.747,1505.879,
1299.836,1496.8646,
1296.926,1556.7825,
1294.015,1656.9887,
1291.105,1607.412,
1288.194,1697.5716,
1285.283,1755.7771,
1282.373,1783.0468,
1279.462,1806.4973,
1276.552,1812.1565,
1273.641,1826.9014,
1270.731,1862.9489,
1267.820,1850.1535,
1264.909,1810.6743,
1261.999,1800.3913,
1259.088,1807.6883,
1256.178,1780.7184,
1253.267,1779.961,
1250.356,1737.7808,
1247.446,1693.6559,
1244.535,1686.5402,
1241.625,1676.7473,
1238.714,1626.0183,
1235.804,1572.5377,
1232.893,1559.6196,
1229.982,1582.1625,
1227.072,1524.2225,
1224.161,1520.9655,
1221.251,1456.3527,
1218.340,1415.3385,
1215.430,1389.71,
1212.519,1377.125,
1209.608,1373.5812,
1206.698,1370.1889,
1203.787,1382.7079,
1200.877,1404.2424,
1197.966,1438.4104,
1195.055,1493.8797,
1192.145,1535.4328,
1189.234,1575.3207,
1186.324,1596.0346,
1183.413,1606.7494,
1180.503,1622.8819,
1177.592,1633.7108,
1174.681,1611.7757,
1171.771,1560.3626,
1168.860,1527.3183,
1165.950,1544.2822,
1163.039,1521.1889,
1160.129,1481.9917,
1157.218,1458.7984,
1154.307,1447.4465,
1151.397,1440.2959,
1148.486,1442.5342,
1145.576,1390.2066,
1142.665,1438.1539,
1139.754,1414.4616,
1136.844,1373.1099,
1133.933,1361.0575,
1131.023,1362.1808,
1128.112,1366.8385,
1125.202,1382.1974,
1122.291,1400.6317,
1119.380,1417.9431,
1116.470,1399.41,
1113.559,1379.3403,
1110.649,1380.6735,
1107.738,1392.6981,
1104.828,1393.4674,
1101.917,1391.2259,
1099.006,1410.0528,
1096.096,1418.9637,
1093.185,1416.3297,
1090.275,1425.8362,
1087.364,1423.3221,
1084.453,1404.8135,
1081.543,1407.0245,
1078.632,1428.0054,
1075.722,1427.9877,
1072.811,1411.0558,
1069.901,1424.1547,
1066.990,1420.275,
1064.079,1435.4573,
1061.169,1453.6187,
1058.258,1479.9114,
1055.348,1504.419,
1052.437,1504.3051,
1049.527,1500.6285,
1046.616,1513.6609,
1043.705,1515.125,
1040.795,1510.6555,
1037.884,1515.7111,
1034.974,1536.5322,
1032.063,1552.9252,
1029.153,1530.6323,
1026.242,1509.8734,
1023.331,1551.6223,
1020.421,1535.0293,
1017.510,1549.8977,
1014.600,1586.1963,
1011.689,1602.9937,
1008.778,1593.4971,
1005.868,1613.7196,
1002.957,1679.9669,
1000.047,1739.629,
997.136,1779.8561,
994.226,1808.5094,
991.315,1810.5112,
988.404,1770.8019,
985.494,1737.6455,
982.583,1716.2316,
979.673,1697.7604,
976.762,1683.9056,
973.852,1675.9149,
970.941,1662.1589,
968.030,1637.0267,
965.120,1642.372,
962.209,1701.1974,
959.299,1709.7085,
956.388,1710.8049,
953.477,1696.917,
950.567,1683.752,
947.656,1708.2364,
944.746,1709.086,
941.835,1739.8979,
938.925,1728.6996,
936.014,1738.8522,
933.103,1735.527,
930.193,1690.1299,
927.282,1672.8876,
924.372,1650.0562,
921.461,1642.7066,
918.551,1635.8966,
915.640,1609.178,
912.729,1596.6416,
909.819,1642.1208,
906.908,1604.2117,
903.998,1618.0323,
901.087,1608.7584,
898.176,1617.8268,
895.266,1633.9032,
892.355,1643.1033,
889.445,1717.7981,
886.534,1722.2994,
883.624,1708.9955,
880.713,1727.1324,
877.802,1735.4924,
874.892,1706.3088,
871.981,1707.0461,
869.071,1703.7044,
866.160,1691.3957,
863.250,1691.8912,
860.339,1713.5918,
857.428,1731.8378,
854.518,1684.1731,
851.607,1685.8373,
848.697,1670.3052,
845.786,1663.644,
842.875,1665.5232,
839.965,1672.0766,
837.054,1690.3669,
834.144,1711.9145,
831.233,1701.4594,
828.323,1673.353,
825.412,1640.2124,
822.501,1619.2953,
819.591,1642.4345,
816.680,1627.9006,
813.770,1616.607,
810.859,1593.1729,
807.949,1573.4323,
805.038,1586.9038,
802.127,1626.4139,
799.217,1611.4902,
796.306,1576.7464,
793.396,1563.3007,
790.485,1573.598,
787.574,1565.0591,
784.664,1589.6625,
781.753,1605.5317,
778.843,1606.2242,
775.932,1598.0386,
773.022,1597.3381,
770.111,1637.3994,
767.200,1615.0017,
764.290,1610.5923,
761.379,1593.8255,
758.469,1569.1474,
755.558,1587.1525,
752.648,1554.5683,
749.737,1540.2915,
746.826,1524.4695,
743.916,1481.5272,
741.005,1391.1858,
738.095,1267.7806,
735.184,1120.1239,
732.274,1048.7186,
729.363,1110.8029,
726.452,1295.0682,
723.542,1455.328,
720.631,1527.5817,
717.721,1558.0091,
714.810,1571.8352,
711.899,1581.125,
708.989,1581.125,
706.078,1586.7341,
703.168,1557.1567,
700.257,1541.6633,
697.347,1548.125,
694.436,1547.7977,
691.525,1535.7406,
688.615,1544.4454,
685.704,1531.6988,
682.794,1509.1675,
679.883,1519.2692,
676.973,1522.4747,
674.062,1525.6773,
671.151,1545.0965,
668.241,1563.8365,
665.330,1549.9737,
662.420,1546.7788,
659.509,1527.712,
656.598,1524.9145,
653.688,1538.5756,
650.777,1549.747,
647.867,1538.5984,
644.956,1539.8399,
642.046,1545.4418,
639.135,1561.0247,
636.224,1602.1608,
633.314,1609.3063,
630.403,1603.4393,
627.493,1592.748,
624.582,1595.9553,
621.672,1649.0189,
618.761,1610.8482,
615.850,1614.1036,
612.940,1632.5896,
610.029,1639.1793,
607.119,1615.4904,
604.208,1628.7453,
601.297,1638.1161,
598.387,1643.9913,
595.476,1647.4853,
592.566,1608.919,
589.655,1636.4632,
586.745,1632.9926,
583.834,1590.7304,
580.923,1543.1961,
578.013,1554.9671,
575.102,1540.9174,
572.192,1542.0591,
569.281,1569.7964,
566.371,1584.6662,
563.460,1607.289,
560.549,1617.0996,
557.639,1629.9418,
554.728,1662.1743,
551.818,1662.9546,
548.907,1672.8756,
545.996,1655.4088,
543.086,1627.0164,
540.175,1668.2846,
537.265,1662.4336,
534.354,1647.5861,
531.444,1658.4176,
528.533,1713.1452,
525.622,1671.244,
522.712,1665.7655,
519.801,1677.672,
516.891,1695.3161,
513.980,1706.1562,
511.070,1726.1424,
508.159,1738.9007,
505.248,1751.6359,
502.338,1774.3509,
499.427,1782.0692,
496.517,1804.4886,
493.606,1817.7696,
490.695,1812.1621,
487.785,1805.234,
484.874,1857.1154,
481.964,1879.8958,
479.053,1858.9904,
476.143,1808.3048,
473.232,1820.2325,
470.321,1829.0445,
467.411,1829.0859,
464.500,1819.4074,
461.590,1791.0751,
458.679,1817.7936,
455.769,1835.7279,
452.858,1812.2501,
449.947,1803.8469,
447.037,1837.9239,
444.126,1841.1614,
441.216,1812.8134,
438.305,1845.5765,
435.395,1820.6214,
432.484,1802.2077,
429.573,1806.6451,
426.663,1843.1318,
423.752,1814.7411,
420.842,1762.7634,
417.931,1732.6388,
415.020,1787.2405,
412.110,1832.2902,
409.199,1870.1299,
406.289,1892.879,
403.378,1892.1378,
400.468,1895.9178,
397.557,1849.3091,
394.646,1809.2426,
391.736,1821.7487,
388.825,1778.7576,
385.915,1752.288,
383.004,1742.9804,
380.094,1754.463,
377.183,1839.4928,
374.272,1894.6063,
371.362,1928.7775,
368.451,1947.8089,
365.541,1959.0669,
362.630,1982.3359,
359.719,2005.6363,
356.809,2021.3515,
353.898,2025.0955,
350.988,2023.4126,
348.077,2023.7387,
345.167,2029.5574,
342.256,2018.3514,
339.345,2020.4393,
336.435,2052.6066,
333.524,2122.6218,
330.614,2074.9318,
327.703,2063.2054,
324.793,2077.4678,
321.882,2110.0727,
318.971,2088.5129,
316.061,2104.0758,
313.150,2120.0417,
310.240,2094.0676,
307.329,2113.1348,
304.418,2143.4667,
301.508,2152.7957,
298.597,2087.639,
295.687,2086.1884,
292.776,2115.6251,
289.866,2192.1135,
286.955,2372.3625,
284.044,2470.2299,
281.134,2569.5196,
278.223,2684.4777,
275.313,2803.1114,
272.402,2908.8705,
269.492,2972.1946,
266.581,2983.3878,
263.670,2987.0637,
260.760,3039.3186,
257.849,3088.4346,
254.939,3095.0396,
252.028,3174.0241,
249.117,3179.4563,
246.207,3136.4874,
243.296,3083.7808,
240.386,3072.2481,
237.475,3061.4413,
234.565,3038.5419,
231.654,2971.3466,
228.743,2913.397,
225.833,2849.4158,
222.922,2776.8532,
220.012,2771.0248,
217.101,2716.1277,
214.191,2671.6159,
211.280,2706.5341,
208.369,2627.7146,
205.459,2586.528,
202.548,2581.1166,
199.638,2563.7011,
196.727,2567.0396,
193.816,2600.1201,
190.906,2661.5697,
187.995,2560.2063,
185.085,2584.232,
182.174,2630.3408,
179.264,2557.3414,
176.353,2624.7369,
173.442,2652.2601,
170.532,2627.5531,
167.621,2639.8097,
164.711,2596.875,
161.800,2511.1331,
158.890,2382.3019,
155.979,2267.9405,
153.068,2087.76,
150.158,1854.2056,
147.247,1613.6916,
144.337,1307.5144,
141.426,1008.4512,
138.516,751.08723,
135.605,537.15816,
132.694,370.44774,
129.784,244.42504,
126.873,153.60355,
123.963,108.3787,
121.052,79.343034,
118.141,57.212072,
115.231,42.913593,
112.320,35.00682,
109.410,31.579579,
106.499,28.730958,
103.589,23.08271,
100.678,17.223648,
97.767,12.247085,
94.857,11.432011,
91.946,9.1094456,
89.036,6.9152854,
86.125,11.879722,
83.215,14.186841,
80.304,14.167269,
77.393,11.33459,
74.483,11.125,
71.572,9.3132394,
68.662,5.9171975,
65.751,3.7978443,
62.840,7.9420198,
59.930,12.001283,
57.019,7.7707909,
54.109,4.1391958,
51.198,3.9346557,
48.288,8.175962,
45.377,14.506365,
42.466,16.712781,
39.556,15.664526,
36.645,12.855765,
33.735,13.682745,
30.824,14.462339,
27.914,12.358813,
25.003,17.728737,
22.092,16.604336,
19.182,7.9716659,
16.271,33.852801,
13.361,163.39761,
10.450,398.27734,
7.539,811.68003,
4.629,999.6717,
1.718,913.26548,
-1.192,385.52707,
-4.103,140.07784,
-7.013,18.74053,
-9.924,4.125,
