,PLEB66~1,
Raman shift [1/cm],Intensity,
3014.167,-2.375,
3011.256,-1.375,
3008.346,299.80099,
3005.435,367.27871,
3002.525,375.34256,
2999.614,396.72369,
2996.704,403.57242,
2993.793,411.11118,
2990.882,431.79288,
2987.972,441.69058,
2985.061,462.60531,
2982.151,485.8351,
2979.240,496.52423,
2976.329,516.40367,
2973.419,540.08713,
2970.508,529.80826,
2967.598,550.81978,
2964.687,567.46128,
2961.777,581.36881,
2958.866,593.61906,
2955.955,619.07852,
2953.045,633.0098,
2950.134,660.60463,
2947.224,653.96663,
2944.313,675.9619,
2941.403,731.20939,
2938.492,701.16699,
2935.581,722.83965,
2932.671,725.38898,
2929.760,741.88269,
2926.850,747.1547,
2923.939,771.86331,
2921.028,771.46023,
2918.118,781.9046,
2915.207,790.3973,
2912.297,808.58269,
2909.386,804.23084,
2906.476,799.36939,
2903.565,798.99611,
2900.654,795.40154,
2897.744,797.65014,
2894.833,800.86209,
2891.923,776.67619,
2889.012,788.41113,
2886.102,789.10745,
2883.191,799.60423,
2880.280,784.13217,
2877.370,756.78785,
2874.459,763.26658,
2871.549,789.20412,
2868.638,821.58168,
2865.727,816.85963,
2862.817,811.08222,
2859.906,820.51104,
2856.996,827.58877,
2854.085,826.82246,
2851.175,827.48045,
2848.264,828.2575,
2845.353,843.19366,
2842.443,824.0243,
2839.532,801.34156,
2836.622,792.77669,
2833.711,785.21055,
2830.801,821.68898,
2827.890,809.625,
2824.979,807.05702,
2822.069,814.53402,
2819.158,816.50641,
2816.248,806.47632,
2813.337,827.2128,
2810.427,821.94044,
2807.516,823.66797,
2804.605,819.76442,
2801.695,822.20398,
2798.784,816.88169,
2795.874,810.32947,
2792.963,822.83936,
2790.052,808.62843,
2787.142,810.75662,
2784.231,812.49612,
2781.321,780.32223,
2778.410,804.38008,
2775.500,797.26397,
2772.589,827.54854,
2769.678,827.66258,
2766.768,817.19005,
2763.857,827.72904,
2760.947,834.73217,
2758.036,832.14081,
2755.126,846.37928,
2752.215,866.625,
2749.304,850.92358,
2746.394,860.9536,
2743.483,863.02503,
2740.573,863.8352,
2737.662,865.17826,
2734.751,865.85798,
2731.841,870.30083,
2728.930,874.4427,
2726.020,893.18634,
2723.109,900.28475,
2720.199,888.66235,
2717.288,894.31112,
2714.377,888.46238,
2711.467,917.87115,
2708.556,902.4549,
2705.646,900.31515,
2702.735,904.14305,
2699.825,913.79951,
2696.914,935.57822,
2694.003,906.26727,
2691.093,911.96435,
2688.182,914.3887,
2685.272,912.35046,
2682.361,907.08352,
2679.450,948.52202,
2676.540,939.97463,
2673.629,912.2752,
2670.719,914.48636,
2667.808,932.55502,
2664.898,938.80691,
2661.987,935.32503,
2659.076,956.70042,
2656.166,945.3826,
2653.255,953.1012,
2650.345,966.05694,
2647.434,1002.2243,
2644.524,981.25811,
2641.613,980.39621,
2638.702,992.3725,
2635.792,1005.3468,
2632.881,979.89289,
2629.971,962.92021,
2627.060,989.29,
2624.149,986.08752,
2621.239,972.63686,
2618.328,991.11635,
2615.418,987.25683,
2612.507,1017.5182,
2609.597,1011.1859,
2606.686,1037.3137,
2603.775,1036.1091,
2600.865,1027.4543,
2597.954,1050.0438,
2595.044,1024.2415,
2592.133,1046.6315,
2589.223,1042.926,
2586.312,1081.7707,
2583.401,1075.3805,
2580.491,1072.625,
2577.580,1087.554,
2574.670,1054.8643,
2571.759,1070.6147,
2568.848,1049.2769,
2565.938,1064.7678,
2563.027,1082.5772,
2560.117,1085.0923,
2557.206,1101.3224,
2554.296,1086.5129,
2551.385,1087.3029,
2548.474,1092.1068,
2545.564,1096.6883,
2542.653,1116.8767,
2539.743,1127.7482,
2536.832,1097.9913,
2533.922,1134.6408,
2531.011,1130.4004,
2528.100,1140.6146,
2525.190,1133.1643,
2522.279,1158.2801,
2519.369,1116.0586,
2516.458,1123.6215,
2513.548,1151.1791,
2510.637,1153.502,
2507.726,1146.6287,
2504.816,1133.3747,
2501.905,1143.7988,
2498.995,1155.2222,
2496.084,1164.0118,
2493.173,1173.1253,
2490.263,1185.6137,
2487.352,1168.5014,
2484.442,1184.6379,
2481.531,1190.4227,
2478.621,1201.5539,
2475.710,1183.8704,
2472.799,1211.1856,
2469.889,1206.3508,
2466.978,1226.4496,
2464.068,1235.4134,
2461.157,1230.6201,
2458.247,1213.8898,
2455.336,1233.4743,
2452.425,1212.0967,
2449.515,1279.4732,
2446.604,1247.913,
2443.694,1260.5321,
2440.783,1257.7669,
2437.872,1257.9167,
2434.962,1265.3623,
2432.051,1278.7672,
2429.141,1282.9487,
2426.230,1260.8636,
2423.320,1305.6823,
2420.409,1294.5738,
2417.498,1312.7458,
2414.588,1314.4578,
2411.677,1303.5215,
2408.767,1331.4193,
2405.856,1333.7131,
2402.946,1333.2086,
2400.035,1338.5241,
2397.124,1317.6464,
2394.214,1342.3838,
2391.303,1354.73,
2388.393,1346.6389,
2385.482,1361.8759,
2382.571,1360.093,
2379.661,1358.1136,
2376.750,1361.9869,
2373.840,1384.1937,
2370.929,1396.495,
2368.019,1388.2032,
2365.108,1387.0674,
2362.197,1398.3484,
2359.287,1388.0701,
2356.376,1439.5246,
2353.466,1425.625,
2350.555,1435.8954,
2347.645,1420.8383,
2344.734,1421.6896,
2341.823,1445.3265,
2338.913,1439.1384,
2336.002,1445.4239,
2333.092,1458.7287,
2330.181,1453.1697,
2327.270,1495.3148,
2324.360,1476.1462,
2321.449,1466.625,
2318.539,1473.7749,
2315.628,1486.902,
2312.718,1459.5941,
2309.807,1505.3575,
2306.896,1522.9724,
2303.986,1498.9954,
2301.075,1529.4336,
2298.165,1515.0384,
2295.254,1494.0559,
2292.344,1522.3594,
2289.433,1531.9609,
2286.522,1523.8974,
2283.612,1503.8941,
2280.701,1545.3603,
2277.791,1571.104,
2274.880,1570.3948,
2271.969,1602.0201,
2269.059,1593.1209,
2266.148,1608.65,
2263.238,1627.818,
2260.327,1617.4527,
2257.417,1627.6761,
2254.506,1626.2432,
2251.595,1636.0468,
2248.685,1642.3615,
2245.774,1653.438,
2242.864,1646.5327,
2239.953,1655.0734,
2237.043,1648.1971,
2234.132,1674.8405,
2231.221,1706.2323,
2228.311,1690.2694,
2225.400,1703.7657,
2222.490,1715.8662,
2219.579,1742.1545,
2216.669,1746.0558,
2213.758,1798.4577,
2210.847,1804.1162,
2207.937,1851.467,
2205.026,1851.1807,
2202.116,1849.7227,
2199.205,1865.9368,
2196.294,1909.2869,
2193.384,1950.098,
2190.473,2012.5358,
2187.563,2049.8618,
2184.652,2113.0837,
2181.742,2220.3327,
2178.831,2315.4812,
2175.920,2419.2443,
2173.010,2565.583,
2170.099,2708.6131,
2167.189,2947.4645,
2164.278,3087.8361,
2161.368,3286.3323,
2158.457,3506.0306,
2155.546,3710.6502,
2152.636,3879.8162,
2149.725,4027.645,
2146.815,4139.5217,
2143.904,4243.2458,
2140.993,4288.0378,
2138.083,4271.084,
2135.172,4269.1628,
2132.262,4218.3099,
2129.351,4135.4971,
2126.441,4009.8383,
2123.530,3790.8965,
2120.619,3617.7085,
2117.709,3418.5936,
2114.798,3161.0319,
2111.888,2948.0297,
2108.977,2777.3269,
2106.067,2633.7272,
2103.156,2510.002,
2100.245,2371.5811,
2097.335,2292.8344,
2094.424,2213.0673,
2091.514,2142.5307,
2088.603,2114.118,
2085.692,2082.6587,
2082.782,2061.4001,
2079.871,2057.2318,
2076.961,2030.3686,
2074.050,2015.8311,
2071.140,1982.395,
2068.229,1988.9037,
2065.318,1961.3392,
2062.408,1955.7089,
2059.497,1967.3928,
2056.587,1934.637,
2053.676,1931.3413,
2050.766,1927.0869,
2047.855,1922.1978,
2044.944,1907.492,
2042.034,1905.203,
2039.123,1905.3859,
2036.213,1919.4895,
2033.302,1916.9295,
2030.391,1930.8787,
2027.481,1924.7715,
2024.570,1930.4247,
2021.660,1921.3346,
2018.749,1932.0049,
2015.839,1939.2037,
2012.928,1935.3482,
2010.017,1960.0159,
2007.107,1924.6007,
2004.196,1935.5417,
2001.286,1935.1021,
1998.375,1915.2746,
1995.465,1926.5705,
1992.554,1908.7134,
1989.643,1909.4867,
1986.733,1916.3575,
1983.822,1909.6501,
1980.912,1899.6747,
1978.001,1902.8625,
1975.090,1888.6479,
1972.180,1851.6277,
1969.269,1872.0074,
1966.359,1900.8951,
1963.448,1881.7452,
1960.538,1876.625,
1957.627,1912.2907,
1954.716,1852.521,
1951.806,1884.7676,
1948.895,1902.1615,
1945.985,1870.6038,
1943.074,1873.636,
1940.164,1893.7597,
1937.253,1870.5082,
1934.342,1857.3175,
1931.432,1866.3474,
1928.521,1794.9324,
1925.611,1792.6182,
1922.700,1814.9137,
1919.790,1784.0358,
1916.879,1860.487,
1913.968,1845.6508,
1911.058,1845.0214,
1908.147,1846.3739,
1905.237,1827.3604,
1902.326,1852.868,
1899.415,1821.3604,
1896.505,1826.7216,
1893.594,1828.6371,
1890.684,1810.821,
1887.773,1853.5896,
1884.863,1882.5384,
1881.952,1864.0952,
1879.041,1877.5632,
1876.131,1874.0381,
1873.220,1806.2486,
1870.310,1867.172,
1867.399,1848.0248,
1864.489,1848.3524,
1861.578,1842.092,
1858.667,1846.7717,
1855.757,1855.3971,
1852.846,1883.8609,
1849.936,1874.4158,
1847.025,1900.9072,
1844.114,1928.8743,
1841.204,1889.7229,
1838.293,1901.1042,
1835.383,1928.927,
1832.472,1949.9276,
1829.562,1956.2638,
1826.651,1956.625,
1823.740,1989.3837,
1820.830,1949.1521,
1817.919,1981.6732,
1815.009,1990.0563,
1812.098,1995.0108,
1809.188,1978.7413,
1806.277,1960.0234,
1803.366,1982.1075,
1800.456,2009.2511,
1797.545,1987.7455,
1794.635,2010.689,
1791.724,2023.1396,
1788.813,2007.815,
1785.903,1993.0396,
1782.992,2043.1377,
1780.082,2043.2654,
1777.171,2063.6239,
1774.261,2052.3249,
1771.350,2061.3913,
1768.439,2088.6667,
1765.529,2091.0815,
1762.618,2125.3657,
1759.708,2128.19,
1756.797,2096.2538,
1753.887,2096.9078,
1750.976,2138.6459,
1748.065,2119.8431,
1745.155,2117.2571,
1742.244,2151.8134,
1739.334,2163.3097,
1736.423,2208.1371,
1733.512,2177.8728,
1730.602,2191.7897,
1727.691,2191.8778,
1724.781,2227.9538,
1721.870,2280.4729,
1718.960,2275.0026,
1716.049,2294.2773,
1713.138,2272.9751,
1710.228,2297.3448,
1707.317,2338.777,
1704.407,2341.8282,
1701.496,2388.1139,
1698.586,2345.5018,
1695.675,2378.1176,
1692.764,2416.6004,
1689.854,2435.8455,
1686.943,2463.6807,
1684.033,2537.7623,
1681.122,2448.2053,
1678.211,2540.7209,
1675.301,2644.3074,
1672.390,2671.5562,
1669.480,2649.4994,
1666.569,2758.3487,
1663.659,2816.0949,
1660.748,2905.0106,
1657.837,2926.5277,
1654.927,3012.4216,
1652.016,3046.354,
1649.106,3077.3876,
1646.195,3148.2244,
1643.285,3175.4505,
1640.374,3297.064,
1637.463,3319.7327,
1634.553,3437.6101,
1631.642,3637.7759,
1628.732,3744.1064,
1625.821,3992.7303,
1622.911,4152.7177,
1620.000,4365.9163,
1617.089,4650.8936,
1614.179,4864.59,
1611.268,5168.137,
1608.358,5356.9159,
1605.447,5498.5689,
1602.536,5617.5196,
1599.626,5614.5858,
1596.715,5662.6355,
1593.805,5548.6789,
1590.894,5590.9879,
1587.984,5563.9813,
1585.073,5522.0399,
1582.162,5508.111,
1579.252,5453.4354,
1576.341,5421.5984,
1573.431,5373.5504,
1570.520,5312.7049,
1567.610,5344.5669,
1564.699,5264.196,
1561.788,5221.9913,
1558.878,5169.7833,
1555.967,5034.312,
1553.057,4924.9531,
1550.146,4879.6469,
1547.235,4807.0504,
1544.325,4714.9893,
1541.414,4664.1236,
1538.504,4619.2278,
1535.593,4564.2531,
1532.683,4493.2262,
1529.772,4411.8879,
1526.861,4356.5086,
1523.951,4296.8074,
1521.040,4225.043,
1518.130,4155.5822,
1515.219,4089.4253,
1512.309,4055.8321,
1509.398,3994.5735,
1506.487,4004.7914,
1503.577,3925.2092,
1500.666,3949.1187,
1497.756,3879.8705,
1494.845,3856.0636,
1491.934,3794.5589,
1489.024,3774.3465,
1486.113,3740.2452,
1483.203,3728.7433,
1480.292,3607.9849,
1477.382,3600.3652,
1474.471,3557.5823,
1471.560,3525.4833,
1468.650,3513.8421,
1465.739,3483.4434,
1462.829,3456.2855,
1459.918,3474.0396,
1457.008,3531.1793,
1454.097,3523.1821,
1451.186,3475.1202,
1448.276,3480.8388,
1445.365,3493.3051,
1442.455,3511.0784,
1439.544,3497.2862,
1436.633,3459.6935,
1433.723,3473.4059,
1430.812,3400.2951,
1427.902,3382.0916,
1424.991,3317.6438,
1422.081,3331.2221,
1419.170,3260.908,
1416.259,3273.1168,
1413.349,3260.4992,
1410.438,3234.3314,
1407.528,3227.5562,
1404.617,3208.6626,
1401.707,3229.0711,
1398.796,3287.4746,
1395.885,3306.2233,
1392.975,3294.6461,
1390.064,3306.8022,
1387.154,3314.0646,
1384.243,3330.0046,
1381.332,3339.8343,
1378.422,3373.4987,
1375.511,3526.194,
1372.601,3666.8606,
1369.690,3665.7667,
1366.780,3796.6869,
1363.869,3870.1283,
1360.958,3869.44,
1358.048,3967.2345,
1355.137,4040.1507,
1352.227,4096.8999,
1349.316,4215.3393,
1346.406,4343.5639,
1343.495,4437.1476,
1340.584,4435.838,
1337.674,4524.6634,
1334.763,4568.2128,
1331.853,4609.9382,
1328.942,4689.0084,
1326.032,4812.8119,
1323.121,4886.0467,
1320.210,4960.5601,
1317.300,5004.3808,
1314.389,5093.7654,
1311.479,5197.0228,
1308.568,5266.3114,
1305.657,5338.111,
1302.747,5390.2155,
1299.836,5483.3353,
1296.926,5660.188,
1294.015,5822.9083,
1291.105,5954.6619,
1288.194,6125.7824,
1285.283,6235.5093,
1282.373,6400.9448,
1279.462,6503.1344,
1276.552,6549.0346,
1273.641,6621.2429,
1270.731,6684.3907,
1267.820,6689.0893,
1264.909,6732.8774,
1261.999,6702.5292,
1259.088,6617.702,
1256.178,6521.8406,
1253.267,6369.297,
1250.356,6239.582,
1247.446,6048.5963,
1244.535,5852.4467,
1241.625,5668.7919,
1238.714,5481.3821,
1235.804,5327.5816,
1232.893,5180.4031,
1229.982,5050.8465,
1227.072,4998.3384,
1224.161,4919.8202,
1221.251,4875.1001,
1218.340,4804.3785,
1215.430,4745.7498,
1212.519,4663.0497,
1209.608,4607.7613,
1206.698,4633.4333,
1203.787,4607.2481,
1200.877,4615.7513,
1197.966,4698.474,
1195.055,4807.5746,
1192.145,4916.5376,
1189.234,5034.212,
1186.324,5118.174,
1183.413,5138.4676,
1180.503,5134.3936,
1177.592,5148.8371,
1174.681,5122.899,
1171.771,5006.0796,
1168.860,4939.0979,
1165.950,4898.7608,
1163.039,4835.4512,
1160.129,4763.8467,
1157.218,4742.6434,
1154.307,4745.6073,
1151.397,4699.429,
1148.486,4613.9276,
1145.576,4595.0401,
1142.665,4512.4642,
1139.754,4531.6611,
1136.844,4484.402,
1133.933,4406.4934,
1131.023,4361.0157,
1128.112,4352.5537,
1125.202,4347.4849,
1122.291,4340.1317,
1119.380,4357.6337,
1116.470,4358.5162,
1113.559,4336.974,
1110.649,4379.0836,
1107.738,4390.1579,
1104.828,4363.0615,
1101.917,4343.5126,
1099.006,4341.5942,
1096.096,4326.0652,
1093.185,4382.2574,
1090.275,4363.1562,
1087.364,4324.005,
1084.453,4335.0608,
1081.543,4360.0072,
1078.632,4362.1777,
1075.722,4361.0191,
1072.811,4385.4603,
1069.901,4340.924,
1066.990,4350.5583,
1064.079,4389.0117,
1061.169,4433.7924,
1058.258,4504.4789,
1055.348,4566.3915,
1052.437,4564.5286,
1049.527,4596.0684,
1046.616,4633.428,
1043.705,4666.1433,
1040.795,4695.6957,
1037.884,4709.648,
1034.974,4715.3492,
1032.063,4724.9633,
1029.153,4746.0112,
1026.242,4832.5069,
1023.331,4827.2922,
1020.421,4864.6627,
1017.510,4855.292,
1014.600,4871.4199,
1011.689,4950.132,
1008.778,5038.6319,
1005.868,5139.2312,
1002.957,5318.1849,
1000.047,5516.7051,
997.136,5683.9943,
994.226,5759.3019,
991.315,5737.0508,
988.404,5671.167,
985.494,5631.1865,
982.583,5566.9448,
979.673,5526.8958,
976.762,5522.0831,
973.852,5512.9227,
970.941,5498.2924,
968.030,5506.2782,
965.120,5515.582,
962.209,5505.3515,
959.299,5524.8725,
956.388,5505.6268,
953.477,5499.6551,
950.567,5525.2392,
947.656,5538.0841,
944.746,5579.7124,
941.835,5631.0236,
938.925,5603.142,
936.014,5597.7998,
933.103,5591.7924,
930.193,5543.0379,
927.282,5497.5545,
924.372,5440.8988,
921.461,5346.7298,
918.551,5277.8643,
915.640,5212.805,
912.729,5153.0376,
909.819,5128.7354,
906.908,5121.996,
903.998,5112.0806,
901.087,5166.2741,
898.176,5178.1056,
895.266,5186.0953,
892.355,5268.1163,
889.445,5356.2393,
886.534,5374.9922,
883.624,5414.2851,
880.713,5443.8735,
877.802,5483.0689,
874.892,5539.405,
871.981,5558.8495,
869.071,5483.6623,
866.160,5452.686,
863.250,5462.4479,
860.339,5471.4655,
857.428,5451.9292,
854.518,5421.964,
851.607,5364.5513,
848.697,5354.625,
845.786,5312.0698,
842.875,5279.9655,
839.965,5305.3001,
837.054,5358.411,
834.144,5339.3497,
831.233,5316.2931,
828.323,5302.1739,
825.412,5283.4586,
822.501,5248.8589,
819.591,5222.4141,
816.680,5138.2915,
813.770,5064.3723,
810.859,5033.5275,
807.949,5025.8054,
805.038,4996.7511,
802.127,4948.1866,
799.217,4906.3554,
796.306,4872.0573,
793.396,4864.19,
790.485,4879.5202,
787.574,4884.0094,
784.664,4815.12,
781.753,4842.2131,
778.843,4889.0696,
775.932,4914.5386,
773.022,4917.3884,
770.111,4980.3419,
767.200,4970.1601,
764.290,4947.1329,
761.379,4917.0826,
758.469,4888.2767,
755.558,4876.2571,
752.648,4897.4368,
749.737,4885.3053,
746.826,4860.3073,
743.916,4814.261,
741.005,4729.0439,
738.095,4599.9555,
735.184,4414.4408,
732.274,4392.904,
729.363,4506.9145,
726.452,4667.6048,
723.542,4767.1602,
720.631,4807.0293,
717.721,4825.6448,
714.810,4815.6365,
711.899,4794.7042,
708.989,4816.4912,
706.078,4777.3612,
703.168,4774.9117,
700.257,4750.745,
697.347,4701.365,
694.436,4670.643,
691.525,4634.4718,
688.615,4670.0199,
685.704,4683.1059,
682.794,4671.7739,
679.883,4690.1749,
676.973,4724.6338,
674.062,4692.0639,
671.151,4684.0899,
668.241,4706.437,
665.330,4719.4948,
662.420,4737.8656,
659.509,4705.4339,
656.598,4708.4262,
653.688,4735.0241,
650.777,4720.2461,
647.867,4738.5616,
644.956,4717.2398,
642.046,4698.3082,
639.135,4692.1577,
636.224,4686.7046,
633.314,4702.5833,
630.403,4745.6449,
627.493,4769.1683,
624.582,4772.6301,
621.672,4813.0218,
618.761,4829.8238,
615.850,4885.3159,
612.940,4930.0403,
610.029,4939.7815,
607.119,4958.7327,
604.208,4957.0749,
601.297,4980.5509,
598.387,4997.5993,
595.476,4972.6483,
592.566,4919.9147,
589.655,4939.7801,
586.745,4918.3037,
583.834,4882.1413,
580.923,4926.1938,
578.013,4854.783,
575.102,4829.8891,
572.192,4866.7127,
569.281,4941.7498,
566.371,4948.0108,
563.460,4959.207,
560.549,4986.0398,
557.639,5013.1163,
554.728,5026.6653,
551.818,5090.6512,
548.907,5107.0627,
545.996,5130.0084,
543.086,5172.5164,
540.175,5213.7846,
537.265,5236.9048,
534.354,5251.6487,
531.444,5276.4591,
528.533,5327.3707,
525.622,5394.1021,
522.712,5485.0759,
519.801,5559.4472,
516.891,5622.0052,
513.980,5732.7295,
511.070,5798.9728,
508.159,5877.0676,
505.248,5960.6598,
502.338,6035.0423,
499.427,6117.6284,
496.517,6225.6047,
493.606,6306.7671,
490.695,6336.946,
487.785,6339.2553,
484.874,6417.1719,
481.964,6435.9541,
479.053,6383.3199,
476.143,6302.6838,
473.232,6296.9056,
470.321,6320.9538,
467.411,6341.0533,
464.500,6324.1983,
461.590,6307.3521,
458.679,6311.98,
455.769,6332.2276,
452.858,6361.2952,
449.947,6377.3378,
447.037,6421.8847,
444.126,6444.5583,
441.216,6423.9993,
438.305,6345.5203,
435.395,6361.5061,
432.484,6403.9641,
429.573,6432.0874,
426.663,6382.6782,
423.752,6403.0347,
420.842,6399.9244,
417.931,6406.4647,
415.020,6486.8507,
412.110,6564.9812,
409.199,6604.3609,
406.289,6634.5815,
403.378,6689.6122,
400.468,6685.8322,
397.557,6697.4787,
394.646,6711.5104,
391.736,6714.0415,
388.825,6633.3388,
385.915,6652.7327,
383.004,6714.6106,
380.094,6776.4293,
377.183,6811.7957,
374.272,6879.1597,
371.362,6944.696,
368.451,6988.4972,
365.541,7035.781,
362.630,7113.0814,
359.719,7180.5355,
356.809,7213.3078,
353.898,7208.0662,
350.988,7222.8996,
348.077,7247.3701,
345.167,7273.4736,
342.256,7270.4854,
339.345,7296.7281,
336.435,7327.2872,
333.524,7346.3866,
330.614,7402.2733,
327.703,7432.4601,
324.793,7434.3134,
321.882,7404.8125,
318.971,7482.1305,
316.061,7545.2486,
313.150,7608.1059,
310.240,7686.7702,
307.329,7758.2301,
304.418,7772.4024,
301.508,7758.9881,
298.597,7767.8731,
295.687,7829.5766,
292.776,7924.042,
289.866,8077.1228,
286.955,8368.9193,
284.044,8633.8973,
281.134,8853.9752,
278.223,9035.7558,
275.313,9228.075,
272.402,9378.4157,
269.492,9533.9865,
266.581,9709.7132,
263.670,9864.8362,
260.760,10053.28,
257.849,10217.217,
254.939,10310.42,
252.028,10448.432,
249.117,10535.801,
246.207,10580.845,
243.296,10593.29,
240.386,10638.375,
237.475,10599.387,
234.565,10490.422,
231.654,10431.992,
228.743,10362.088,
225.833,10296.148,
222.922,10239.567,
220.012,10173.997,
217.101,10087.36,
214.191,10009.353,
211.280,9975.1619,
208.369,9946.3853,
205.459,9927.237,
202.548,9921.1348,
199.638,9941.4529,
196.727,9927.1861,
193.816,9921.7526,
190.906,9942.5296,
187.995,9996.8315,
185.085,10020.354,
182.174,10041.1,
179.264,10098.198,
176.353,10143.072,
173.442,10130.907,
170.532,10068.265,
167.621,10039.426,
164.711,9918.1024,
161.800,9696.9207,
158.890,9349.2923,
155.979,8771.1613,
153.068,8072.6936,
150.158,7255.8937,
147.247,6275.8889,
144.337,5212.2438,
141.426,4137.8595,
138.516,3084.7462,
135.605,2209.6432,
132.694,1507.7918,
129.784,975.04799,
126.873,653.95469,
123.963,452.61724,
121.052,317.61332,
118.141,236.94239,
115.231,172.67367,
112.320,130.52683,
109.410,106.17061,
106.499,93.351811,
103.589,90.625,
100.678,85.735809,
97.767,72.938933,
94.857,69.160055,
91.946,64.400113,
89.036,58.608919,
86.125,52.226071,
83.215,50.09408,
80.304,48.667269,
77.393,45.83459,
74.483,43.659595,
71.572,39.726183,
68.662,34.209395,
65.751,29.970689,
62.840,30.070106,
59.930,30.12671,
57.019,24.486055,
54.109,21.833517,
51.198,20.323391,
48.288,19.64765,
45.377,22.461162,
42.466,25.273877,
39.556,26.934289,
36.645,22.721147,
33.735,19.028758,
30.824,17.066774,
27.914,18.469124,
25.003,14.889175,
22.092,11.656286,
19.182,9.4419371,
16.271,3.846016,
13.361,-48.107041,
10.450,-162.52787,
7.539,-430.68097,
4.629,-724.46004,
1.718,-890.32869,
-1.192,-746.71691,
-4.103,-494.42225,
-7.013,-240.00739,
-9.924,-3.375,
