,PL9F45~1,
Wavenumbers [1/cm],Intensity,
3014.167,0,
3011.256,1.1000215,
3008.346,40.456476,
3005.435,27.424029,
3002.525,40.717562,
2999.614,44.802618,
2996.704,52.229899,
2993.793,50.495392,
2990.882,53.435118,
2987.972,58.878921,
2985.061,37.660102,
2982.151,53.329422,
2979.240,37.294642,
2976.329,64.49727,
2973.419,60.892427,
2970.508,55.383337,
2967.598,57.996385,
2964.687,49.939537,
2961.777,58.470039,
2958.866,72.671616,
2955.955,66,
2953.045,69.816554,
2950.134,69.606415,
2947.224,64.512439,
2944.313,80.651709,
2941.403,72.916515,
2938.492,86.701891,
2935.581,92.268689,
2932.671,78.442079,
2929.760,89.534616,
2926.850,88.104511,
2923.939,81.037363,
2921.028,103.10013,
2918.118,86.620908,
2915.207,88.113851,
2912.297,99.932299,
2909.386,81.627729,
2906.476,80.907319,
2903.565,83.257776,
2900.654,79.435807,
2897.744,79.823989,
2894.833,70.535998,
2891.923,68.080096,
2889.012,53.369943,
2886.102,71.81216,
2883.191,24.046257,
2880.280,12.497588,
2877.370,-98.424195,
2874.459,-194.30178,
2871.549,-113.065,
2868.638,-0.03922867,
2865.727,32,
2862.817,48.029398,
2859.906,67.22792,
2856.996,72.981885,
2854.085,91.084059,
2851.175,71.427725,
2848.264,77.916829,
2845.353,87.323505,
2842.443,102.79861,
2839.532,83.821018,
2836.622,81.876304,
2833.711,78.940357,
2830.801,98.690445,
2827.890,95.438823,
2824.979,104.56798,
2822.069,98.079605,
2819.158,102.71967,
2816.248,106.47105,
2813.337,123.95855,
2810.427,105.61019,
2807.516,97.10797,
2804.605,98.795673,
2801.695,100.82895,
2798.784,88.182769,
2795.874,100.13984,
2792.963,93.999785,
2790.052,125.99206,
2787.142,102.46065,
2784.231,99.678592,
2781.321,97.371397,
2778.410,89.659895,
2775.500,104.25379,
2772.589,104.42278,
2769.678,102.78497,
2766.768,100.31844,
2763.857,112.842,
2760.947,114.01261,
2758.036,123.62425,
2755.126,109.85897,
2752.215,115.63649,
2749.304,109.29858,
2746.394,109.90522,
2743.483,120.29999,
2740.573,121.22566,
2737.662,103.31953,
2734.751,105.72313,
2731.841,112.32417,
2728.930,114.32629,
2726.020,114.22454,
2723.109,94.722003,
2720.199,119.25637,
2717.288,107.98176,
2714.377,117.3541,
2711.467,109.21319,
2708.556,113.29768,
2705.646,125.07044,
2702.735,139.66495,
2699.825,131.1527,
2696.914,136.95274,
2694.003,133.48618,
2691.093,131.7858,
2688.182,135.52741,
2685.272,131,
2682.361,126.27074,
2679.450,133.86414,
2676.540,117.06097,
2673.629,113.03143,
2670.719,118.91221,
2667.808,130.95136,
2664.898,125.51945,
2661.987,127,
2659.076,117.39871,
2656.166,130.74034,
2653.255,125.43878,
2650.345,135.5118,
2647.434,124.02887,
2644.524,128.82251,
2641.613,143.68636,
2638.702,144.17359,
2635.792,143.84347,
2632.881,151.19634,
2629.971,135.80525,
2627.060,132.99813,
2624.149,143.86563,
2621.239,133.73962,
2618.328,133.63581,
2615.418,143.35454,
2612.507,143.30827,
2609.597,141.73453,
2606.686,135.23296,
2603.775,153.79761,
2600.865,139.88394,
2597.954,141.47914,
2595.044,151.33038,
2592.133,139.77058,
2589.223,137.34948,
2586.312,156.80403,
2583.401,147.85765,
2580.491,159.24515,
2577.580,154.96864,
2574.670,137.10695,
2571.759,149.35873,
2568.848,150.41433,
2565.938,152.95231,
2563.027,157.24321,
2560.117,145.82242,
2557.206,158.46494,
2554.296,157.3135,
2551.385,156.19002,
2548.474,175.18551,
2545.564,163.60146,
2542.653,178.15772,
2539.743,175.08626,
2536.832,162.71402,
2533.922,166.06308,
2531.011,173.5747,
2528.100,163.2752,
2525.190,168.13606,
2522.279,170.78065,
2519.369,149.32055,
2516.458,154.22026,
2513.548,172.22699,
2510.637,160.30741,
2507.726,173.11898,
2504.816,185.37429,
2501.905,168.82622,
2498.995,165.09016,
2496.084,189.7212,
2493.173,164.36821,
2490.263,170.16838,
2487.352,160.45907,
2484.442,176.12632,
2481.531,187.42023,
2478.621,161.43119,
2475.710,192.92332,
2472.799,180.04039,
2469.889,167.60664,
2466.978,168.32986,
2464.068,189.15351,
2461.157,180.96248,
2458.247,179.88229,
2455.336,183.55187,
2452.425,172.95281,
2449.515,200.26403,
2446.604,191.82721,
2443.694,191.81416,
2440.783,201.66779,
2437.872,180.47404,
2434.962,189.05991,
2432.051,183.3643,
2429.141,206.79389,
2426.230,188.76016,
2423.320,202.52863,
2420.409,203.02558,
2417.498,205.60674,
2414.588,195.00764,
2411.677,207.07172,
2408.767,211.27657,
2405.856,211.43337,
2402.946,192.36283,
2400.035,200.48593,
2397.124,199.87701,
2394.214,196.51479,
2391.303,211.75135,
2388.393,203.05579,
2385.482,185.61687,
2382.571,176.05124,
2379.661,161.58129,
2376.750,190.10087,
2373.840,209.4906,
2370.929,210.01083,
2368.019,208.50553,
2365.108,219.79058,
2362.197,215.02737,
2359.287,229.36156,
2356.376,231.00528,
2353.466,247.33575,
2350.555,212.39501,
2347.645,214.77616,
2344.734,224.66822,
2341.823,232.9005,
2338.913,222.44774,
2336.002,213.04539,
2333.092,221.05754,
2330.181,226.29921,
2327.270,222.38504,
2324.360,236.5967,
2321.449,233.03061,
2318.539,237.63916,
2315.628,246.09233,
2312.718,239.93392,
2309.807,231.68313,
2306.896,242.25978,
2303.986,246,
2301.075,247.85106,
2298.165,263.36565,
2295.254,243.51703,
2292.344,247.46882,
2289.433,253.57136,
2286.522,247.99538,
2283.612,257.02932,
2280.701,274.63673,
2277.791,261.95993,
2274.880,254.36613,
2271.969,242.76544,
2269.059,268.02725,
2266.148,245.00668,
2263.238,255.6911,
2260.327,271.03435,
2257.417,258.23722,
2254.506,258.59544,
2251.595,267.13449,
2248.685,262.95196,
2245.774,249.98917,
2242.864,270.5187,
2239.953,272.9932,
2237.043,253.2725,
2234.132,263.31682,
2231.221,268.60462,
2228.311,284.26673,
2225.400,291.08444,
2222.490,288.80119,
2219.579,271.47046,
2216.669,282.49762,
2213.758,286.26144,
2210.847,276.71538,
2207.937,297.02277,
2205.026,302.5551,
2202.116,310.28026,
2199.205,297.41247,
2196.294,295.19001,
2193.384,289.44749,
2190.473,288.85798,
2187.563,329.95166,
2184.652,319.69878,
2181.742,312.38567,
2178.831,301.19845,
2175.920,319.15484,
2173.010,346.6763,
2170.099,351.26686,
2167.189,348.95695,
2164.278,344.46734,
2161.368,353.57136,
2158.457,356.69451,
2155.546,370.21156,
2152.636,354.61177,
2149.725,365.63757,
2146.815,370.96663,
2143.904,386.7026,
2140.993,391.60319,
2138.083,392.83584,
2135.172,400.02519,
2132.262,383.23063,
2129.351,394.6346,
2126.441,419.55345,
2123.530,390.31427,
2120.619,412.08282,
2117.709,370.781,
2114.798,356.6692,
2111.888,338.13815,
2108.977,343.07286,
2106.067,334.28218,
2103.156,347.35637,
2100.245,316.01443,
2097.335,339.36126,
2094.424,336.97366,
2091.514,318.85482,
2088.603,323.06909,
2085.692,330.81785,
2082.782,335.65458,
2079.871,344.57176,
2076.961,353.48338,
2074.050,340.24242,
2071.140,342.42549,
2068.229,329.27213,
2065.318,339.18601,
2062.408,340.21181,
2059.497,333.81549,
2056.587,335.45355,
2053.676,324.2006,
2050.766,348.76756,
2047.855,329.80065,
2044.944,323.39904,
2042.034,328.84397,
2039.123,336.63973,
2036.213,334.88445,
2033.302,339.26082,
2030.391,331.05115,
2027.481,345.82907,
2024.570,347.10016,
2021.660,319.65562,
2018.749,363.21445,
2015.839,320.69029,
2012.928,337.77013,
2010.017,329.53311,
2007.107,318.60562,
2004.196,320.39284,
2001.286,321.43815,
1998.375,324.30413,
1995.465,319.28036,
1992.554,318.87646,
1989.643,320.93087,
1986.733,315.98333,
1983.822,305.05317,
1980.912,337.5239,
1978.001,306.38962,
1975.090,315.20305,
1972.180,317.8617,
1969.269,306.14937,
1966.359,268.05372,
1963.448,297.83093,
1960.538,300.20434,
1957.627,288.97523,
1954.716,284.11491,
1951.806,328.36062,
1948.895,295.72472,
1945.985,292.51471,
1943.074,307.54992,
1940.164,287.08645,
1937.253,267.94808,
1934.342,273.68395,
1931.432,291.53628,
1928.521,267.56995,
1925.611,279.0647,
1922.700,280.08564,
1919.790,285.75136,
1916.879,284.20925,
1913.968,269.01844,
1911.058,315.86787,
1908.147,313.46861,
1905.237,303.44849,
1902.326,273.83556,
1899.415,254.83047,
1896.505,220.68659,
1893.594,224.07631,
1890.684,241.6406,
1887.773,243.70658,
1884.863,289.35535,
1881.952,305.81504,
1879.041,294.16563,
1876.131,282.85621,
1873.220,281.87168,
1870.310,294.99549,
1867.399,294.03199,
1864.489,288.31155,
1861.578,297.30759,
1858.667,306.47907,
1855.757,279.02506,
1852.846,258.78972,
1849.936,279.88389,
1847.025,269.70804,
1844.114,283.7389,
1841.204,315.39161,
1838.293,294.02827,
1835.383,278.6395,
1832.472,316.7687,
1829.562,313.2539,
1826.651,301.78644,
1823.740,305.45594,
1820.830,287.48015,
1817.919,290.95814,
1815.009,268.16922,
1812.098,283.74802,
1809.188,311.32552,
1806.277,278.77461,
1803.366,311.98519,
1800.456,254.91273,
1797.545,306.5673,
1794.635,321.742,
1791.724,318.01944,
1788.813,308.20026,
1785.903,302.19966,
1782.992,274.90311,
1780.082,235.69395,
1777.171,150.98606,
1774.261,125.28053,
1771.350,207.01327,
1768.439,280.72602,
1765.529,316.00188,
1762.618,336.21314,
1759.708,315.88014,
1756.797,332.64394,
1753.887,358.58892,
1750.976,352.53796,
1748.065,357.45776,
1745.155,371.1354,
1742.244,362.10872,
1739.334,333.45883,
1736.423,362.85976,
1733.512,357.17067,
1730.602,382.66076,
1727.691,350.24335,
1724.781,388.12748,
1721.870,377.05224,
1718.960,404.71152,
1716.049,382.63589,
1713.138,359.90008,
1710.228,389.20099,
1707.317,381.616,
1704.407,407.85031,
1701.496,386.38821,
1698.586,360.90039,
1695.675,426.37102,
1692.764,400.7049,
1689.854,363.60234,
1686.943,402.58352,
1684.033,385.47189,
1681.122,409.57519,
1678.211,419.90483,
1675.301,477.82116,
1672.390,411.93719,
1669.480,391.28879,
1666.569,427.72367,
1663.659,483.54269,
1660.748,455.53724,
1657.837,432.91853,
1654.927,473.81257,
1652.016,466,
1649.106,466,
1646.195,466.57543,
1643.285,490.22787,
1640.374,500.50174,
1637.463,524.72058,
1634.553,564.19211,
1631.642,577.70576,
1628.732,642.01185,
1625.821,644.01178,
1622.911,661.89857,
1620.000,712.35747,
1617.089,737.50249,
1614.179,759.37958,
1611.268,840.87706,
1608.358,894.51838,
1605.447,958.28621,
1602.536,969.4551,
1599.626,933.20269,
1596.715,969.02685,
1593.805,944.38138,
1590.894,950.68737,
1587.984,934.67816,
1585.073,866.48711,
1582.162,870.02795,
1579.252,822.26533,
1576.341,819.8117,
1573.431,820.43365,
1570.520,810.0631,
1567.610,806.25489,
1564.699,806.72503,
1561.788,790.09875,
1558.878,773.44132,
1555.967,729.36012,
1553.057,722.39642,
1550.146,701.11643,
1547.235,704.25175,
1544.325,716.17234,
1541.414,694.55794,
1538.504,677.4862,
1535.593,662.39257,
1532.683,641.94666,
1529.772,645.05611,
1526.861,673.8978,
1523.951,679.24581,
1521.040,660.73054,
1518.130,702.08665,
1515.219,722.04067,
1512.309,692.06304,
1509.398,670.57035,
1506.487,668.27563,
1503.577,669.4086,
1500.666,689.96338,
1497.756,652.89867,
1494.845,686.67928,
1491.934,654.77952,
1489.024,587.40502,
1486.113,665.66775,
1483.203,628.47978,
1480.292,596.69614,
1477.382,639.68664,
1474.471,580.40113,
1471.560,579.31865,
1468.650,573.33453,
1465.739,584.29323,
1462.829,616.08224,
1459.918,591.77314,
1457.008,578.78485,
1454.097,609.94043,
1451.186,619.59381,
1448.276,597.24123,
1445.365,552.38942,
1442.455,503.89369,
1439.544,496.66581,
1436.633,533.50447,
1433.723,514.2583,
1430.812,494.77835,
1427.902,492.54119,
1424.991,515.28749,
1422.081,495.8155,
1419.170,519.05775,
1416.259,535.96101,
1413.349,531.44759,
1410.438,512.20529,
1407.528,517.23109,
1404.617,514.01882,
1401.707,476.79339,
1398.796,431.11893,
1395.885,426.12218,
1392.975,448.64582,
1390.064,445.05691,
1387.154,435.89705,
1384.243,419.86037,
1381.332,380.42661,
1378.422,412.32882,
1375.511,341.13346,
1372.601,422.94133,
1369.690,441.14389,
1366.780,448.54425,
1363.869,513.92998,
1360.958,521.49459,
1358.048,513,
1355.137,527.19347,
1352.227,549.6079,
1349.316,599.10524,
1346.406,646.86614,
1343.495,601.81701,
1340.584,559.53462,
1337.674,635.50244,
1334.763,673.7057,
1331.853,692.25033,
1328.942,686.77375,
1326.032,705.5749,
1323.121,727.04218,
1320.210,728.33855,
1317.300,764.95532,
1314.389,806.38917,
1311.479,822.62134,
1308.568,830.66948,
1305.657,834.22372,
1302.747,835.95112,
1299.836,895.91405,
1296.926,931.25637,
1294.015,936.77232,
1291.105,955.49138,
1288.194,1033.8806,
1285.283,1010.7558,
1282.373,1016.1484,
1279.462,1035.0391,
1276.552,1065.0867,
1273.641,1070.4644,
1270.731,1035.5284,
1267.820,1041.0917,
1264.909,1029.8791,
1261.999,1029.0666,
1259.088,1030.8908,
1256.178,1052.4114,
1253.267,1062.9048,
1250.356,1016.915,
1247.446,1015.1222,
1244.535,1026.0357,
1241.625,1004.2371,
1238.714,976.13183,
1235.804,977.67957,
1232.893,998,
1229.982,997.75469,
1227.072,990.51219,
1224.161,1007.6506,
1221.251,963.35141,
1218.340,919.14409,
1215.430,925.47088,
1212.519,928.96446,
1209.608,913.4175,
1206.698,915.23402,
1203.787,913.62312,
1200.877,917.61293,
1197.966,927.50368,
1195.055,920.32076,
1192.145,988.87494,
1189.234,1018.4879,
1186.324,1042.7293,
1183.413,1077.665,
1180.503,1102.3608,
1177.592,1096.3129,
1174.681,1058.339,
1171.771,1040.0618,
1168.860,1042.7411,
1165.950,1053.4818,
1163.039,1037.8415,
1160.129,1032.3594,
1157.218,1060.4405,
1154.307,1086.4028,
1151.397,1085.3888,
1148.486,1101.4438,
1145.576,1135.0318,
1142.665,1066.6625,
1139.754,1095.986,
1136.844,1081.5903,
1133.933,1067.308,
1131.023,1038.5068,
1128.112,1027.1404,
1125.202,1065.4879,
1122.291,1083.9865,
1119.380,1049.3811,
1116.470,1088.2123,
1113.559,1055.1108,
1110.649,1040.0709,
1107.738,1056.2178,
1104.828,1067.839,
1101.917,1060.2248,
1099.006,1059.3298,
1096.096,1074.8925,
1093.185,1073.1365,
1090.275,1071.3815,
1087.364,1071.6861,
1084.453,1072.5625,
1081.543,1078.6969,
1078.632,1091.6411,
1075.722,1095.7253,
1072.811,1061.9857,
1069.901,1089.93,
1066.990,1084.725,
1064.079,1092.5272,
1061.169,1097.5523,
1058.258,1083.6015,
1055.348,1076.6402,
1052.437,1102.0803,
1049.527,1079.9874,
1046.616,1157.3132,
1043.705,1112.0464,
1040.795,1119.6247,
1037.884,1133.5057,
1034.974,1134,
1032.063,1128.9925,
1029.153,1110.715,
1026.242,1091.686,
1023.331,1140.1635,
1020.421,1156.971,
1017.510,1158.3192,
1014.600,1167.5733,
1011.689,1172.8778,
1008.778,1150.7331,
1005.868,1154.9537,
1002.957,1149.7915,
1000.047,1185.4,
997.136,1225.4297,
994.226,1261.8459,
991.315,1273.953,
988.404,1247.4331,
985.494,1228.5589,
982.583,1208.8581,
979.673,1208.1949,
976.762,1177.2965,
973.852,1173.5644,
970.941,1189.8869,
968.030,1173.4509,
965.120,1176.1396,
962.209,1209.3888,
959.299,1195.8773,
956.388,1202.5591,
953.477,1218.5213,
950.567,1234.6727,
947.656,1262.4456,
944.746,1265.8439,
941.835,1266,
938.925,1275.8708,
936.014,1260.2611,
933.103,1241.4124,
930.193,1240.2046,
927.282,1223.9001,
924.372,1203.6056,
921.461,1207.6276,
918.551,1198.9623,
915.640,1204.5982,
912.729,1218.9747,
909.819,1208.1112,
906.908,1208.9536,
903.998,1202.6371,
901.087,1209.2746,
898.176,1218.2948,
895.266,1237.283,
892.355,1260.7752,
889.445,1222.169,
886.534,1265.4133,
883.624,1225.5561,
880.713,1229.5592,
877.802,1241.4096,
874.892,1190.0999,
871.981,1080.883,
869.071,948.88774,
866.160,939.10923,
863.250,1050.889,
860.339,1153.4435,
857.428,1170.548,
854.518,1193.9037,
851.607,1190.5754,
848.697,1122.5939,
845.786,1038.0275,
842.875,1027.499,
839.965,1124.889,
837.054,1234.4,
834.144,1270.0364,
831.233,1299.665,
828.323,1313.9674,
825.412,1304.1215,
822.501,1277.5958,
819.591,1280.9014,
816.680,1268.1795,
813.770,1258.735,
810.859,1253.195,
807.949,1258.4415,
805.038,1276.3075,
802.127,1262.3144,
799.217,1247.583,
796.306,1222.5674,
793.396,1222.5727,
790.485,1250.1587,
787.574,1261.7509,
784.664,1255.19,
781.753,1239.2384,
778.843,1261.895,
775.932,1286.8273,
773.022,1276.5503,
770.111,1299.4425,
767.200,1295.6708,
764.290,1291.6885,
761.379,1280.1533,
758.469,1268.139,
755.558,1279.7812,
752.648,1272.4498,
749.737,1282.0974,
746.826,1276.8107,
743.916,1269.3053,
741.005,1276.9475,
738.095,1223.3636,
735.184,1184.1073,
732.274,1154.1713,
729.363,1146.0608,
726.452,1170.3786,
723.542,1227.8455,
720.631,1246.2908,
717.721,1269.3311,
714.810,1297.4658,
711.899,1314.0396,
708.989,1284.1834,
706.078,1320.8599,
703.168,1307.5328,
700.257,1288.8743,
697.347,1288.8689,
694.436,1310.0655,
691.525,1312.4769,
688.615,1308.5976,
685.704,1296.071,
682.794,1289.5531,
679.883,1311.2883,
676.973,1317.6993,
674.062,1327.9331,
671.151,1323.3567,
668.241,1310.2853,
665.330,1307.8866,
662.420,1305.4904,
659.509,1296.7459,
656.598,1295.0292,
653.688,1310.7322,
650.777,1349.0819,
647.867,1322.0068,
644.956,1293.0914,
642.046,1249.9781,
639.135,1210.4673,
636.224,1216.3103,
633.314,1278.2375,
630.403,1316.466,
627.493,1317.7892,
624.582,1298.5314,
621.672,1314.3713,
618.761,1308.1605,
615.850,1339.0593,
612.940,1376.5876,
610.029,1389.6347,
607.119,1345.4154,
604.208,1396.381,
601.297,1414.5133,
598.387,1415.446,
595.476,1424.9889,
592.566,1382.4872,
589.655,1409.9861,
586.745,1424.6603,
583.834,1412.6321,
580.923,1390.1564,
578.013,1416.0526,
575.102,1390.3055,
572.192,1372.0738,
569.281,1384.2654,
566.371,1391.309,
563.460,1403.2875,
560.549,1421.6438,
557.639,1444.3255,
554.728,1464.635,
551.818,1427.1798,
548.907,1442.1577,
545.996,1446.8915,
543.086,1432.0066,
540.175,1436.6785,
537.265,1444.2428,
534.354,1433.956,
531.444,1418.7707,
528.533,1415.3177,
525.622,1447.9074,
522.712,1422.2353,
519.801,1388.398,
516.891,1372.5386,
513.980,1394.9932,
511.070,1419.5391,
508.159,1427.5673,
505.248,1426,
502.338,1426.0226,
499.427,1426.7944,
496.517,1428.1313,
493.606,1451.2085,
490.695,1489.5438,
487.785,1450.2845,
484.874,1454.3396,
481.964,1455.0167,
479.053,1445.7937,
476.143,1436.5782,
473.232,1440.3164,
470.321,1450.2718,
467.411,1464.0652,
464.500,1478.2631,
461.590,1449.1649,
458.679,1453.1065,
455.769,1465.5205,
452.858,1469.2502,
449.947,1452.4437,
447.037,1449.6068,
444.126,1454.4364,
441.216,1460.4125,
438.305,1451.2694,
435.395,1475.5698,
432.484,1486.0827,
429.573,1459.8122,
426.663,1364.7947,
423.752,1249.5975,
420.842,1079.2381,
417.931,890.84546,
415.020,745.99906,
412.110,1030.7188,
409.199,1259.7383,
406.289,1383.3264,
403.378,1368.8745,
400.468,1331.8308,
397.557,1339.0235,
394.646,1371.2753,
391.736,1410.8692,
388.825,1438.0215,
385.915,1443.8712,
383.004,1445.7121,
380.094,1453.8867,
377.183,1432.0649,
374.272,1446.6257,
371.362,1477.2447,
368.451,1508.5441,
365.541,1501.0387,
362.630,1484.2515,
359.719,1472.5919,
356.809,1472.8673,
353.898,1454.1473,
350.988,1472.8694,
348.077,1499.389,
345.167,1511.9727,
342.256,1452.2072,
339.345,1461.5716,
336.435,1484.1672,
333.524,1481.953,
330.614,1480.4627,
327.703,1491.8083,
324.793,1517.1785,
321.882,1557.9423,
318.971,1534.1521,
316.061,1534.3013,
313.150,1549.0047,
310.240,1568.2998,
307.329,1583.2927,
304.418,1618.181,
301.508,1651.8185,
298.597,1647.376,
295.687,1634.1324,
292.776,1650.0835,
289.866,1688.6288,
286.955,1724.8264,
284.044,1774.9075,
281.134,1827.6607,
278.223,1874.8323,
275.313,1887.3588,
272.402,1930.0823,
269.492,1968.8224,
266.581,1984.9026,
263.670,1913.5901,
260.760,1941.0593,
257.849,2000.141,
254.939,2043.4401,
252.028,2026.6277,
249.117,2035.5321,
246.207,2065.9329,
243.296,2112.0512,
240.386,2111.7761,
237.475,2102.853,
234.565,2087.3633,
231.654,2051.5745,
228.743,2033.6434,
225.833,1997.6446,
222.922,1933.7814,
220.012,1950.5382,
217.101,1954.0371,
214.191,1943.6947,
211.280,1916.0511,
208.369,1860.1749,
205.459,1808.0487,
202.548,1777.1477,
199.638,1824.3149,
196.727,1828.2378,
193.816,1830.9235,
190.906,1845.1716,
187.995,1793.0418,
185.085,1771.69,
182.174,1766.237,
179.264,1759.7322,
176.353,1757.0777,
173.442,1746.2109,
170.532,1725.8917,
167.621,1699.2156,
164.711,1634.7131,
161.800,1542.2031,
158.890,1422.7283,
155.979,1306.7614,
153.068,1206.3564,
150.158,1105.8833,
147.247,946.49787,
144.337,812.29784,
141.426,654.84107,
138.516,448.37639,
135.605,328.48156,
132.694,229.56599,
129.784,150.82601,
126.873,98.621531,
123.963,72.066036,
121.052,49.801588,
118.141,24.101116,
115.231,24,
112.320,20.610913,
109.410,16.681776,
106.499,20.242552,
103.589,14.276946,
100.678,8.1851349,
97.767,6.0523222,
94.857,6,
91.946,10.83733,
89.036,17.322613,
86.125,13.067381,
83.215,12.53092,
80.304,9.4085097,
77.393,-1.2140393,
74.483,5.8616195,
71.572,7.4635352,
68.662,2.861465,
65.751,1.4485628,
62.840,6.2987218,
59.930,9.3779932,
57.019,-0.49315457,
54.109,-1.4028392,
51.198,-0.095172175,
48.288,2.0283122,
45.377,5.5452025,
42.466,5.3511226,
39.556,3.6907115,
36.645,7.9038528,
33.735,7.9615031,
30.824,5.6746782,
27.914,1.4676267,
25.003,0.37736252,
22.092,0.96871367,
19.182,3.6407202,
16.271,23.226444,
13.361,95.904528,
10.450,209.03795,
7.539,348.70102,
4.629,308.06758,
1.718,104.71632,
-1.192,-323.33042,
-4.103,-382.25369,
-7.013,-267.95139,
-9.924,0,
