,PLD32A~1,
Wavenumbers [1/cm],Intensity,
3014.167,-0.125,
3011.256,-0.57498926,
3008.346,55.514066,
3005.435,48.263698,
3002.525,69.460011,
2999.614,61.628272,
2996.704,67.334797,
2993.793,57.865784,
2990.882,69.39406,
2987.972,85.753921,
2985.061,66.308503,
2982.151,65.710289,
2979.240,72.241922,
2976.329,84.399571,
2973.419,86.136618,
2970.508,92.741614,
2967.598,78.683835,
2964.687,83.471467,
2961.777,78.379126,
2958.866,99.213777,
2955.955,95.669243,
2953.045,96.543922,
2950.134,105.59802,
2947.224,87.846531,
2944.313,99.908477,
2941.403,107.18431,
2938.492,111.02405,
2935.581,115.28359,
2932.671,105.03812,
2929.760,120.875,
2926.850,123.71823,
2923.939,115.95444,
2921.028,133.28692,
2918.118,126.7755,
2915.207,120.86855,
2912.297,126.81999,
2909.386,133.10127,
2906.476,124.52671,
2903.565,131.13278,
2900.654,132.20463,
2897.744,145.875,
2894.833,142.98846,
2891.923,131.5769,
2889.012,166.95015,
2886.102,180.58582,
2883.191,214.83441,
2880.280,310.31044,
2877.370,437.89228,
2874.459,441.85559,
2871.549,296.29535,
2868.638,176.50393,
2865.727,152.82116,
2862.817,164.17579,
2859.906,140.1542,
2856.996,151.40444,
2854.085,177.44439,
2851.175,156.06181,
2848.264,134.30633,
2845.353,147.83187,
2842.443,145.4757,
2839.532,138.66608,
2836.622,130.39193,
2833.711,143.60813,
2830.801,137.08382,
2827.890,148.41696,
2824.979,153.08498,
2822.069,147.01147,
2819.158,155.83457,
2816.248,150.875,
2813.337,160.94696,
2810.427,149.22073,
2807.516,162.97562,
2804.605,164.64904,
2801.695,151.38814,
2798.784,148.57931,
2795.874,150.88028,
2792.963,154.23234,
2790.052,155.87564,
2787.142,149.36188,
2784.231,152.45575,
2781.321,152.62356,
2778.410,154.26966,
2775.500,160.34328,
2772.589,159.95146,
2769.678,164.01488,
2766.768,164.70023,
2763.857,166.82298,
2760.947,167.84978,
2758.036,165.56928,
2755.126,175.06517,
2752.215,178.53412,
2749.304,166.91818,
2746.394,184.60485,
2743.483,191.42495,
2740.573,198.21348,
2737.662,169.88535,
2734.751,173.52554,
2731.841,184.25413,
2728.930,176.20129,
2726.020,174.98727,
2723.109,176.76158,
2720.199,194.22814,
2717.288,193.50639,
2714.377,195.74582,
2711.467,185.84204,
2708.556,192.31121,
2705.646,186.64964,
2702.735,197.3879,
2699.825,204.49498,
2696.914,211.0182,
2694.003,200.21483,
2691.093,215.73181,
2688.182,202.29278,
2685.272,212.47671,
2682.361,208.66321,
2679.450,207.75155,
2676.540,198.9563,
2673.629,199.2248,
2670.719,194.44432,
2667.808,218.70775,
2664.898,208.27773,
2661.987,208.80849,
2659.076,207.0194,
2656.166,216.00483,
2653.255,218.65561,
2650.345,219.49932,
2647.434,204.64665,
2644.524,211.33063,
2641.613,221.90391,
2638.702,227.875,
2635.792,237.9069,
2632.881,232.875,
2629.971,226.76758,
2627.060,215.37344,
2624.149,223.28126,
2621.239,226.89279,
2618.328,218.62068,
2615.418,219.17955,
2612.507,231.25445,
2609.597,231.78318,
2606.686,231.21236,
2603.775,235.59325,
2600.865,242.10712,
2597.954,239.83328,
2595.044,252.59776,
2592.133,235.5947,
2589.223,258.73081,
2586.312,265.48307,
2583.401,250.73265,
2580.491,251.95672,
2577.580,252.82879,
2574.670,230.68648,
2571.759,262.3904,
2568.848,248.70911,
2565.938,276.63685,
2563.027,271.43417,
2560.117,250.51052,
2557.206,276.18865,
2554.296,282.44251,
2551.385,269.81704,
2548.474,285.43076,
2545.564,279.22321,
2542.653,286.80117,
2539.743,288.88732,
2536.832,284.85444,
2533.922,279.60692,
2531.011,274.14905,
2528.100,288.41502,
2525.190,290.68647,
2522.279,293.12463,
2519.369,281.49742,
2516.458,285.42741,
2513.548,299.67475,
2510.637,285.658,
2507.726,309.12778,
2504.816,299.18729,
2501.905,307.61402,
2498.995,302.71107,
2496.084,318.94122,
2493.173,307.63758,
2490.263,307.23434,
2487.352,322.41593,
2484.442,313.29898,
2481.531,312.13569,
2478.621,297.89392,
2475.710,335.73698,
2472.799,315.65529,
2469.889,309.35977,
2466.978,313.48321,
2464.068,312.00197,
2461.157,319.18494,
2458.247,332.2868,
2455.336,333.57754,
2452.425,330.09198,
2449.515,334.61097,
2446.604,341.28513,
2443.694,338.06084,
2440.783,355.73649,
2437.872,349.98439,
2434.962,350.51095,
2432.051,347.28864,
2429.141,350.875,
2426.230,328.43959,
2423.320,358.56075,
2420.409,352.33663,
2417.498,360.4312,
2414.588,351.25531,
2411.677,341.41287,
2408.767,360.93405,
2405.856,385.72495,
2402.946,366.07071,
2400.035,370.7553,
2397.124,371.2119,
2394.214,373.2262,
2391.303,372.94682,
2388.393,394.77738,
2385.482,385.62405,
2382.571,407.73609,
2379.661,386.45658,
2376.750,378.71484,
2373.840,381.95314,
2370.929,373.95081,
2368.019,389.875,
2365.108,393.43259,
2362.197,391.11058,
2359.287,385.07667,
2356.376,409.83097,
2353.466,413.16447,
2350.555,395.4052,
2347.645,396.17832,
2344.734,397.96718,
2341.823,407.74233,
2338.913,409.27648,
2336.002,410.40363,
2333.092,423.18537,
2330.181,423.38395,
2327.270,408.75508,
2324.360,435.14386,
2321.449,435.90561,
2318.539,433.875,
2315.628,428.9929,
2312.718,429.52478,
2309.807,437.46512,
2306.896,429.10348,
2303.986,429.14131,
2301.075,444.19413,
2298.165,452.46164,
2295.254,436.26277,
2292.344,465.875,
2289.433,458.82091,
2286.522,450.52228,
2283.612,460.70536,
2280.701,456.81672,
2277.791,476.35403,
2274.880,462.16303,
2271.969,462.0643,
2269.059,485.8396,
2266.148,468.42258,
2263.238,481.26494,
2260.327,473.94397,
2257.417,478.90778,
2254.506,498.75252,
2251.595,485.46787,
2248.685,481.86918,
2245.774,491.38042,
2242.864,495.78272,
2239.953,508.64742,
2237.043,506.31643,
2234.132,503.875,
2231.221,510.98098,
2228.311,533.01157,
2225.400,527.73427,
2222.490,522.31798,
2219.579,525.00356,
2216.669,544.32969,
2213.758,538.22008,
2210.847,540.35358,
2207.937,548.63069,
2205.026,551.76334,
2202.116,566.35058,
2199.205,574.7743,
2196.294,572.57705,
2193.384,557.7435,
2190.473,551.72711,
2187.563,611.79283,
2184.652,595.02561,
2181.742,588.48772,
2178.831,594.61829,
2175.920,615.54895,
2173.010,617.57568,
2170.099,610.47619,
2167.189,618.91805,
2164.278,621.94033,
2161.368,613.15971,
2158.457,639.80578,
2155.546,664.69234,
2152.636,660.45484,
2149.725,656.20386,
2146.815,683.94067,
2143.904,680.77834,
2140.993,696.32464,
2138.083,723.79292,
2135.172,714.49675,
2132.262,697.99736,
2129.351,703.67159,
2126.441,701.45751,
2123.530,700.06581,
2120.619,714.26043,
2117.709,695.7655,
2114.798,677.83256,
2111.888,661.94986,
2108.977,680.76905,
2106.067,661.81502,
2103.156,655.51451,
2100.245,651.88441,
2097.335,670.1263,
2094.424,693.15695,
2091.514,680.86416,
2088.603,678.06388,
2085.692,688.96425,
2082.782,694.0637,
2079.871,676.51678,
2076.961,686.84175,
2074.050,656.49318,
2071.140,704.49596,
2068.229,689.05208,
2065.318,707.50577,
2062.408,705.71541,
2059.497,706.32146,
2056.587,711.23564,
2053.676,701.9753,
2050.766,707.33614,
2047.855,722.07435,
2044.944,726.87981,
2042.034,713.638,
2039.123,723.41709,
2036.213,735.91497,
2033.302,742.1791,
2030.391,754.5869,
2027.481,759.82616,
2024.570,751.76098,
2021.660,743.2889,
2018.749,793.89949,
2015.839,742.52985,
2012.928,734.10487,
2010.017,748.18554,
2007.107,781.73669,
2004.196,782.1964,
2001.286,789.37674,
1998.375,795.39567,
1995.465,767.13036,
1992.554,758.12207,
1989.643,809.04312,
1986.733,792.2864,
1983.822,788.92817,
1980.912,825.04276,
1978.001,799.36665,
1975.090,797.85974,
1972.180,796.63432,
1969.269,793.96984,
1966.359,784.90186,
1963.448,796.13789,
1960.538,778.52971,
1957.627,795.16604,
1954.716,809.53028,
1951.806,804.71309,
1948.895,837.83455,
1945.985,826.73448,
1943.074,830.30316,
1940.164,815.85588,
1937.253,830.47053,
1934.342,821.23383,
1931.432,831.43021,
1928.521,826.19797,
1925.611,851.79667,
1922.700,861.33495,
1919.790,835.75967,
1916.879,821.64224,
1913.968,858.82828,
1911.058,851.99813,
1908.147,866.01513,
1905.237,858.83827,
1902.326,885.20388,
1899.415,888.76888,
1896.505,864.96542,
1893.594,866.96949,
1890.684,864.00569,
1887.773,868.45257,
1884.863,872.70188,
1881.952,894.40481,
1879.041,908.92692,
1876.131,886.44364,
1873.220,855.59614,
1870.310,897.35922,
1867.399,895.95497,
1864.489,890.57598,
1861.578,910.30338,
1858.667,926.24631,
1855.757,890.64349,
1852.846,921.60322,
1849.936,899.50364,
1847.025,876.11101,
1844.114,888.96917,
1841.204,924.15122,
1838.293,923.89828,
1835.383,921.35149,
1832.472,951.03848,
1829.562,957.84818,
1826.651,944.98589,
1823.740,948.88268,
1820.830,956.50496,
1817.919,947.28811,
1815.009,942.3063,
1812.098,935.59154,
1809.188,1008.9756,
1806.277,958.13652,
1803.366,995.15964,
1800.456,953.80927,
1797.545,970.70475,
1794.635,985.4541,
1791.724,1031.3604,
1788.813,1036.8724,
1785.903,1032.6269,
1782.992,1057.2148,
1780.082,1111.3608,
1777.171,1150.5372,
1774.261,1129.8599,
1771.350,1089.632,
1768.439,1050.366,
1765.529,1065.4204,
1762.618,1072.605,
1759.708,1067.5923,
1756.797,1068.322,
1753.887,1078.1826,
1750.976,1077.4647,
1748.065,1076.6461,
1745.155,1083.5395,
1742.244,1083.9022,
1739.334,1079.1362,
1736.423,1102.6039,
1733.512,1091.0457,
1730.602,1120.2758,
1727.691,1115.9865,
1724.781,1153.3501,
1721.870,1140.732,
1718.960,1169.4087,
1716.049,1168.4853,
1713.138,1165.165,
1710.228,1157.9126,
1707.317,1159.5287,
1704.407,1176.0461,
1701.496,1202.4868,
1698.586,1236.2905,
1695.675,1218.2894,
1692.764,1172.3791,
1689.854,1145.001,
1686.943,1238.5699,
1684.033,1197.9926,
1681.122,1206.7051,
1678.211,1196.9702,
1675.301,1241.7362,
1672.390,1219.7763,
1669.480,1187.3884,
1666.569,1251.9034,
1663.659,1330.4867,
1660.748,1248.244,
1657.837,1317.2845,
1654.927,1292.0699,
1652.016,1341.3404,
1649.106,1320.2177,
1646.195,1333.9469,
1643.285,1337.3307,
1640.374,1356.6868,
1637.463,1348.0011,
1634.553,1355.7617,
1631.642,1415.1464,
1628.732,1439.8217,
1625.821,1430.9077,
1622.911,1480.5932,
1620.000,1557.8923,
1617.089,1551.0342,
1614.179,1595.5778,
1611.268,1649.8302,
1608.358,1734.8014,
1605.447,1757.7323,
1602.536,1767.262,
1599.626,1798.2328,
1596.715,1762.7558,
1593.805,1740.094,
1590.894,1749.3237,
1587.984,1784.6526,
1585.073,1725.2129,
1582.162,1713.0401,
1579.252,1724.3312,
1576.341,1713.2569,
1573.431,1716.1404,
1570.520,1701.0587,
1567.610,1679.4826,
1564.699,1678.2252,
1561.788,1671.4244,
1558.878,1673.3371,
1555.967,1638.8778,
1553.057,1624.9784,
1550.146,1607.595,
1547.235,1591.9234,
1544.325,1610.7997,
1541.414,1620.3943,
1538.504,1618.4716,
1535.593,1604.3461,
1532.683,1568.8774,
1529.772,1563.9685,
1526.861,1579.4494,
1523.951,1598.9654,
1521.040,1623.3485,
1518.130,1603.0123,
1515.219,1647.3145,
1512.309,1646.0371,
1509.398,1602.8311,
1506.487,1640.7019,
1503.577,1629.4055,
1500.666,1624.4566,
1497.756,1654.5532,
1494.845,1671.5932,
1491.934,1592.8026,
1489.024,1570.6652,
1486.113,1651.47,
1483.203,1652.546,
1480.292,1639.9958,
1477.382,1661.3142,
1474.471,1603.9499,
1471.560,1609.5476,
1468.650,1621.6081,
1465.739,1609.4247,
1462.829,1609.0368,
1459.918,1618.8474,
1457.008,1621.8596,
1454.097,1627.8074,
1451.186,1639.2019,
1448.276,1644.244,
1445.365,1616.2628,
1442.455,1564.8945,
1439.544,1597.8487,
1436.633,1616.6407,
1433.723,1553.8901,
1430.812,1521.8303,
1427.902,1560.476,
1424.991,1627.7672,
1422.081,1577.5788,
1419.170,1577.1953,
1416.259,1610.2775,
1413.349,1605.0359,
1410.438,1593.1774,
1407.528,1558.9754,
1404.617,1605.2849,
1401.707,1617.5486,
1398.796,1558.1933,
1395.885,1554.4658,
1392.975,1592.9165,
1390.064,1603.888,
1387.154,1648.1364,
1384.243,1633.6332,
1381.332,1629.2936,
1378.422,1675.7064,
1375.511,1575.4708,
1372.601,1613.5025,
1369.690,1687.1672,
1366.780,1619.6715,
1363.869,1687.5052,
1360.958,1682.5825,
1358.048,1706.7801,
1355.137,1785.7636,
1352.227,1809.2866,
1349.316,1802.7611,
1346.406,1823.2115,
1343.495,1791.9272,
1340.584,1756.6957,
1337.674,1804.4478,
1334.763,1827.0747,
1331.853,1858.6006,
1328.942,1831.4121,
1326.032,1840.9249,
1323.121,1848.3208,
1320.210,1869.8526,
1317.300,1920.601,
1314.389,1917.0133,
1311.479,1899.1079,
1308.568,1919.5445,
1305.657,1932.3703,
1302.747,1957.0174,
1299.836,2012.8062,
1296.926,2043.4387,
1294.015,2098.5982,
1291.105,2066.5339,
1288.194,2089.0323,
1285.283,2082.9869,
1282.373,2087.3672,
1279.462,2107.6982,
1276.552,2131.0247,
1273.641,2126.4131,
1270.731,2118.7511,
1267.820,2176.9768,
1264.909,2200.3797,
1261.999,2143.4783,
1259.088,2077.8056,
1256.178,2130.4011,
1253.267,2088.4729,
1250.356,2079.6475,
1247.446,2071.1405,
1244.535,2055.442,
1241.625,2053.1231,
1238.714,2070.8386,
1235.804,2087.8508,
1232.893,2074.2433,
1229.982,2105.1816,
1227.072,2114.2348,
1224.161,2085.4574,
1221.251,2045.6276,
1218.340,2026.1013,
1215.430,2041.6943,
1212.519,2041.5757,
1209.608,2013.0156,
1206.698,2001.2155,
1203.787,2017.3021,
1200.877,2035.0949,
1197.966,2022.5067,
1195.055,2037.2335,
1192.145,2069.9287,
1189.234,2136.9687,
1186.324,2199.5144,
1183.413,2203.3521,
1180.503,2180.2711,
1177.592,2176.006,
1174.681,2129.536,
1171.771,2147.7514,
1168.860,2142.3928,
1165.950,2138.6498,
1163.039,2135.7798,
1160.129,2134.875,
1157.218,2149.7778,
1154.307,2161.4227,
1151.397,2148.1401,
1148.486,2138.4687,
1145.576,2174.1404,
1142.665,2134.1843,
1139.754,2136.5704,
1136.844,2158.1838,
1133.933,2159.2504,
1131.023,2135.9354,
1128.112,2131.2299,
1125.202,2168.7783,
1122.291,2194.7362,
1119.380,2159.0742,
1116.470,2179.3724,
1113.559,2169.503,
1110.649,2170.4589,
1107.738,2187.8779,
1104.828,2177.9895,
1101.917,2154.7511,
1099.006,2191.4725,
1096.096,2261.596,
1093.185,2208.0379,
1090.275,2203.875,
1087.364,2183.9774,
1084.453,2187.8117,
1081.543,2184.2902,
1078.632,2169.3822,
1075.722,2181.6452,
1072.811,2209.9442,
1069.901,2196.8453,
1066.990,2186.9834,
1064.079,2199.8463,
1061.169,2230.624,
1058.258,2269.3553,
1055.348,2286.7623,
1052.437,2262.0872,
1049.527,2248.2442,
1046.616,2257.8014,
1043.705,2274.2903,
1040.795,2276.9595,
1037.884,2267.2775,
1034.974,2278.6134,
1032.063,2300.4292,
1029.153,2263.2518,
1026.242,2258.0621,
1023.331,2276.2072,
1020.421,2327.2779,
1017.510,2339.4709,
1014.600,2354.4444,
1011.689,2395.5629,
1008.778,2424.7284,
1005.868,2424.2302,
1002.957,2463.8065,
1000.047,2474.243,
997.136,2489.9708,
994.226,2525.3054,
991.315,2529.7785,
988.404,2462.0383,
985.494,2432.2586,
982.583,2449.3897,
979.673,2428.4623,
976.762,2401.6748,
973.852,2401.2513,
970.941,2416.2822,
968.030,2422.5399,
965.120,2465.8571,
962.209,2461.5944,
959.299,2420.5048,
956.388,2448.6721,
953.477,2460.8575,
950.567,2448.5275,
947.656,2504.0897,
944.746,2482.8508,
941.835,2482.6848,
938.925,2523.6741,
936.014,2526.1594,
933.103,2514.9369,
930.193,2523.6801,
927.282,2507.6541,
924.372,2522.0294,
921.461,2514.3018,
918.551,2499.2563,
915.640,2474.7271,
912.729,2455.2902,
909.819,2467.1016,
906.908,2506.6956,
903.998,2494.5584,
901.087,2526.5193,
898.176,2523.9696,
895.266,2503.636,
892.355,2522.5133,
889.445,2568.673,
886.534,2548.8381,
883.624,2564.3871,
880.713,2584.0821,
877.802,2614.3711,
874.892,2659.1258,
871.981,2685.3362,
869.071,2620.174,
866.160,2568.1674,
863.250,2553.5444,
860.339,2564.7504,
857.428,2578.875,
854.518,2579.2842,
851.607,2593.4294,
848.697,2655.0273,
845.786,2635.168,
842.875,2591.1759,
839.965,2598.1374,
837.054,2636.3123,
834.144,2675.2636,
831.233,2682.875,
828.323,2689.3044,
825.412,2705.8559,
822.501,2727.1729,
819.591,2728.8257,
816.680,2682.4006,
813.770,2698.4411,
810.859,2690.0568,
807.949,2670.0726,
805.038,2695.2821,
802.127,2682.112,
799.217,2657.0225,
796.306,2635.8208,
793.396,2650.0127,
790.485,2694.8242,
787.574,2722.0894,
784.664,2754.0737,
781.753,2735.0486,
778.843,2735.1271,
775.932,2752.8132,
773.022,2768.5665,
770.111,2798.8169,
767.200,2777.2743,
764.290,2766.9856,
761.379,2767.2382,
758.469,2780.292,
755.558,2816.0452,
752.648,2821.7474,
749.737,2858.7784,
746.826,2848.5031,
743.916,2832.7454,
741.005,2889.6962,
738.095,2985.4977,
735.184,3029.7677,
732.274,2984.5004,
729.363,2900.9418,
726.452,2831.1043,
723.542,2782.5407,
720.631,2803.5757,
717.721,2849.8285,
714.810,2887.6306,
711.899,2898.1126,
708.989,2881.9741,
706.078,2871.4581,
703.168,2877.3761,
700.257,2882.875,
697.347,2874.3976,
694.436,2844.4205,
691.525,2864.5157,
688.615,2853.1522,
685.704,2850.7821,
682.794,2868.3004,
679.883,2896.8121,
676.973,2917.6478,
674.062,2954.4172,
671.151,2944.3835,
668.241,2917.6432,
665.330,2948.0809,
662.420,2931.3075,
659.509,2931.0497,
656.598,2939.3662,
653.688,2958.687,
650.777,2994.2539,
647.867,2975.9384,
644.956,2990.4495,
642.046,2981.1451,
639.135,2955.8576,
636.224,2970.8392,
633.314,2963.6937,
630.403,2970.7432,
627.493,2991.8539,
624.582,3008.459,
621.672,2975.1952,
618.761,3049.109,
615.850,3100.4244,
612.940,3123.2165,
610.029,3127.4261,
607.119,3148.7461,
604.208,3163.6552,
601.297,3159.9017,
598.387,3141.7028,
595.476,3121.1777,
592.566,3145.5768,
589.655,3150.5229,
586.745,3156.5166,
583.834,3169.3646,
580.923,3188.8324,
578.013,3181.7697,
575.102,3175.8599,
572.192,3184.6654,
569.281,3205.3126,
566.371,3202.1821,
563.460,3215.9844,
560.549,3211.6421,
557.639,3217.5259,
554.728,3260.8549,
551.818,3228.8619,
548.907,3187.7479,
545.996,3179.0938,
543.086,3196.5197,
540.175,3180.9468,
537.265,3186.3935,
534.354,3210.4477,
531.444,3215.1555,
528.533,3173.2546,
525.622,3192.6532,
522.712,3164.1103,
519.801,3158.5321,
516.891,3185.2835,
513.980,3192.2522,
511.070,3188.6489,
508.159,3203.1123,
505.248,3215.1167,
502.338,3198.8916,
499.427,3233.6241,
496.517,3262.673,
493.606,3300.7564,
490.695,3340.2048,
487.785,3299.4059,
484.874,3298.691,
481.964,3286.0944,
479.053,3252.2919,
476.143,3203.9103,
473.232,3228.9317,
470.321,3220.4119,
467.411,3219.6293,
464.500,3278.2047,
461.590,3291.2223,
458.679,3306.9815,
455.769,3314.0394,
452.858,3307.875,
449.947,3307.875,
447.037,3272.0761,
444.126,3263.6629,
441.216,3284.6418,
438.305,3260.26,
435.395,3284.4117,
432.484,3302.6258,
429.573,3301.4849,
426.663,3274.1199,
423.752,3408.5691,
420.842,3503.9532,
417.931,3503.3503,
415.020,3350.162,
412.110,3292.1989,
409.199,3282.1659,
406.289,3318.6868,
403.378,3400.9903,
400.468,3435.01,
397.557,3398.5732,
394.646,3360.0699,
391.736,3377.2855,
388.825,3390.1074,
385.915,3410.9052,
383.004,3411.5978,
380.094,3375.9134,
377.183,3376.6659,
374.272,3343.7654,
371.362,3328.5311,
368.451,3360.6986,
365.541,3390.7201,
362.630,3380.3028,
359.719,3358.0677,
356.809,3342.8265,
353.898,3358.5513,
350.988,3379.6921,
348.077,3372.3848,
345.167,3320.821,
342.256,3339.4977,
339.345,3372.5095,
336.435,3389.9352,
333.524,3371.6401,
330.614,3364.1886,
327.703,3379.3308,
324.793,3393.5549,
321.882,3386.9111,
318.971,3401.7799,
316.061,3419.5712,
313.150,3432.1821,
310.240,3429.9558,
307.329,3458.4605,
304.418,3486.7453,
301.508,3514.555,
298.597,3543.4313,
295.687,3578.3825,
292.776,3596.375,
289.866,3606.2583,
286.955,3636.5461,
284.044,3657.9525,
281.134,3675.2808,
278.223,3681.7315,
275.313,3639.7307,
272.402,3677.9282,
269.492,3743.2434,
266.581,3807.5118,
263.670,3760.4602,
260.760,3778.7404,
257.849,3817.3702,
254.939,3844.5239,
252.028,3791.3105,
249.117,3765.8499,
246.207,3757.4127,
243.296,3747.8962,
240.386,3756.6699,
237.475,3731.5242,
234.565,3684.6005,
231.654,3695.5563,
228.743,3658.75,
225.833,3599.6903,
222.922,3528.8026,
220.012,3484.3607,
217.101,3493.9201,
214.191,3512.3182,
211.280,3490.4943,
208.369,3472.7275,
205.459,3453.2967,
202.548,3437.6299,
199.638,3447.789,
196.727,3441.2318,
193.816,3418.6198,
190.906,3378.3609,
187.995,3306.6825,
185.085,3281.875,
182.174,3279.1326,
179.264,3269.0139,
176.353,3226.8651,
173.442,3191.9106,
170.532,3151.8054,
167.621,2988.1439,
164.711,2915.4943,
161.800,2822.044,
158.890,2623.3992,
155.979,2408.4614,
153.068,2148.3962,
150.158,1854.5274,
147.247,1564.4747,
144.337,1300.7978,
141.426,1032.6572,
138.516,745.18379,
135.605,535.15582,
132.694,365.95959,
129.784,238.0774,
126.873,167.27954,
123.963,114.7473,
121.052,77.093034,
118.141,54.962072,
115.231,44.927015,
112.320,40.451364,
109.410,39.193224,
106.499,35.632448,
103.589,30.953219,
100.678,24.343918,
97.767,15.101729,
94.857,14.182011,
91.946,18.30922,
89.036,23.971817,
86.125,18.298175,
83.215,17.936841,
80.304,15.762375,
77.393,6.5561659,
74.483,11.771215,
71.572,13.787944,
68.662,11.251593,
65.751,4.8935328,
62.840,10.10053,
59.930,17.125855,
57.019,14.305527,
54.109,11.486357,
51.198,9.2717814,
48.288,7.8410253,
45.377,3.6207569,
42.466,3.5238774,
39.556,5.5296443,
36.645,3.4230736,
33.735,1.8365031,
30.824,-0.67120882,
27.914,-5.5794355,
25.003,-3.6344501,
22.092,-1.1562863,
19.182,0.62328851,
16.271,-7.0711029,
13.361,-36.676853,
10.450,-144.99848,
7.539,-562.59106,
4.629,-1146.144,
1.718,-1639.6615,
-1.192,-1797.9133,
-4.103,-1313.7593,
-7.013,-687.44687,
-9.924,0.875,
