,PL6C9F~1,
Wavenumbers [1/cm],Intensity,
3014.167,-1.875,
3011.256,-0.62505368,
3008.346,22.802754,
3005.435,14.782248,
3002.525,34.295022,
2999.614,28.214627,
2996.704,34.717785,
2993.793,25.248848,
2990.882,30.64406,
2987.972,44.019056,
2985.061,23.56835,
2982.151,31.170384,
2979.240,33.822704,
2976.329,38.611349,
2973.419,46.171471,
2970.508,31.27501,
2967.598,35.790462,
2964.687,30.080163,
2961.777,23.877063,
2958.866,46.799585,
2955.955,36.883849,
2953.045,49.160814,
2950.134,58.635186,
2947.224,40.523563,
2944.313,51.877849,
2941.403,50.863138,
2938.492,58.848582,
2935.581,67.350758,
2932.671,58.086386,
2929.760,62.451919,
2926.850,67.706954,
2923.939,62.082928,
2921.028,71.436788,
2918.118,66.944899,
2915.207,51.409628,
2912.297,63.031911,
2909.386,66.322081,
2906.476,53.032319,
2903.565,74.753888,
2900.654,72.231175,
2897.744,57.087283,
2894.833,55.36209,
2891.923,49.826897,
2889.012,47.494943,
2886.102,62.31284,
2883.191,45.140104,
2880.280,61.177622,
2877.370,-42.072414,
2874.459,-96.006881,
2871.549,-42.940531,
2868.638,16.083727,
2865.727,23.971122,
2862.817,33.481955,
2859.906,44.606477,
2856.996,62.595563,
2854.085,73.526268,
2851.175,63.600908,
2848.264,59.556334,
2845.353,46.750444,
2842.443,73.927089,
2839.532,57.378821,
2836.622,67.428385,
2833.711,67.54729,
2830.801,64.32647,
2827.890,63.647744,
2824.979,76.334978,
2822.069,78.181861,
2819.158,79.704511,
2816.248,72.63079,
2813.337,83.310373,
2810.427,69.602961,
2807.516,62.549532,
2804.605,71.103363,
2801.695,69.388163,
2798.784,60.012077,
2795.874,67.673782,
2792.963,81.41053,
2790.052,84.123499,
2787.142,71.875116,
2784.231,74.899856,
2781.321,75.873559,
2778.410,74.614843,
2775.500,70.466382,
2772.589,71.586772,
2769.678,73.732515,
2766.768,81.864819,
2763.857,86.071049,
2760.947,83.175434,
2758.036,82.653611,
2755.126,79.364315,
2752.215,83.038722,
2749.304,79.529687,
2746.394,79.818529,
2743.483,92.174975,
2740.573,76.720044,
2737.662,74.688607,
2734.751,69.518363,
2731.841,72.720242,
2728.930,74.472425,
2726.020,83.01794,
2723.109,90.557916,
2720.199,95.596989,
2717.288,80.756388,
2714.377,97.799763,
2711.467,97.79752,
2708.556,81.167526,
2705.646,92.265872,
2702.735,103.94716,
2699.825,94.592279,
2696.914,103.41092,
2694.003,99.308734,
2691.093,111.89275,
2688.182,108.3613,
2685.272,97.691148,
2682.361,81.125,
2679.450,96.696956,
2676.540,78.206296,
2673.629,81.461327,
2670.719,90.402271,
2667.808,100.88182,
2664.898,101.82636,
2661.987,92.458223,
2659.076,102.96335,
2656.166,98.415057,
2653.255,95.606293,
2650.345,95.340971,
2647.434,92.411083,
2644.524,99.561421,
2641.613,104.89684,
2638.702,99.330154,
2635.792,93.78004,
2632.881,103.70237,
2629.971,110.23242,
2627.060,96.95719,
2624.149,107.50312,
2621.239,102.36166,
2618.328,98.209774,
2615.418,108.08865,
2612.507,112.95508,
2609.597,97.043163,
2606.686,103.70934,
2603.775,105.64484,
2600.865,102.83148,
2597.954,103.37077,
2595.044,125.81233,
2592.133,105.22675,
2589.223,125.43871,
2586.312,112.80841,
2583.401,108.04468,
2580.491,114.09611,
2577.580,117.09529,
2574.670,103.27606,
2571.759,116.32705,
2568.848,114.83217,
2565.938,125.79176,
2563.027,114.22272,
2560.117,109.76985,
2557.206,108.83718,
2554.296,114.15475,
2551.385,120.43901,
2548.474,140.42166,
2545.564,133.59983,
2542.653,136.05117,
2539.743,137.64348,
2536.832,118.00163,
2533.922,127.03038,
2531.011,128.27439,
2528.100,126.8671,
2525.190,141.53852,
2522.279,125.125,
2519.369,119.99324,
2516.458,97.561971,
2513.548,132.00622,
2510.637,137.30945,
2507.726,133.56736,
2504.816,118.56243,
2501.905,120.55976,
2498.995,122.91657,
2496.084,148.3654,
2493.173,134.38791,
2490.263,132.11371,
2487.352,145.41553,
2484.442,130.54898,
2481.531,136.23136,
2478.621,131.21502,
2475.710,157.97931,
2472.799,134.43895,
2469.889,130.78984,
2466.978,144.28993,
2464.068,143.20965,
2461.157,144.125,
2458.247,144.125,
2455.336,148.74144,
2452.425,137.75234,
2449.515,143.37032,
2446.604,144.41994,
2443.694,146.6135,
2440.783,153.98311,
2437.872,143.63551,
2434.962,152.65957,
2432.051,135.73603,
2429.141,148.91889,
2426.230,151.45096,
2423.320,161.18226,
2420.409,156.8814,
2417.498,169.49299,
2414.588,153.41788,
2411.677,146.98157,
2408.767,149.70177,
2405.856,173.34641,
2402.946,166.48783,
2400.035,154.83157,
2397.124,149.47259,
2394.214,159.1518,
2391.303,154.44546,
2388.393,148.39243,
2385.482,152.86063,
2382.571,130.28953,
2379.661,134.10169,
2376.750,147.80721,
2373.840,154.125,
2370.929,165.99504,
2368.019,184.99388,
2365.108,161.44961,
2362.197,172.91679,
2359.287,171.73001,
2356.376,167.13204,
2353.466,178.95894,
2350.555,162.61973,
2347.645,152.3091,
2344.734,155.48906,
2341.823,173.8265,
2338.913,178.86229,
2336.002,174.69903,
2333.092,176.90703,
2330.181,166.42421,
2327.270,153.06009,
2324.360,186.58727,
2321.449,182.15561,
2318.539,186.76416,
2315.628,181.26848,
2312.718,173.47522,
2309.807,183.85175,
2306.896,178.86522,
2303.986,177.73541,
2301.075,172.48673,
2298.165,187.87539,
2295.254,165.7282,
2292.344,195.85941,
2289.433,202.10182,
2286.522,200.7455,
2283.612,196.15432,
2280.701,199.91422,
2277.791,201.125,
2274.880,195.9891,
2271.969,184.08797,
2269.059,199.59367,
2266.148,184.88627,
2263.238,188.02075,
2260.327,207.5732,
2257.417,200.83667,
2254.506,201.1022,
2251.595,191.84504,
2248.685,190.80768,
2245.774,209.24558,
2242.864,201.96788,
2239.953,217.99389,
2237.043,217.87716,
2234.132,193.27047,
2231.221,202.91576,
2228.311,203.77578,
2225.400,222.39322,
2222.490,203.99486,
2219.579,228.99644,
2216.669,225.594,
2213.758,216.47008,
2210.847,216.99149,
2207.937,214.32859,
2205.026,213.45736,
2202.116,238.28955,
2199.205,235.18735,
2196.294,235.31501,
2193.384,231.704,
2190.473,210.53345,
2187.563,246.0815,
2184.652,238.3299,
2181.742,240.98812,
2178.831,232.88376,
2175.920,239.78803,
2173.010,255.45096,
2170.099,260.125,
2167.189,257.39049,
2164.278,290.30992,
2161.368,265.2682,
2158.457,258.97225,
2155.546,269.09425,
2152.636,251.03996,
2149.725,258.43371,
2146.815,278.55773,
2143.904,274.43354,
2140.993,293.96099,
2138.083,292.67818,
2135.172,292.66279,
2132.262,282.49208,
2129.351,288.18712,
2126.441,299.95998,
2123.530,296.13622,
2120.619,295.74891,
2117.709,280.00544,
2114.798,257.40574,
2111.888,251.58757,
2108.977,259.66143,
2106.067,251.4742,
2103.156,271.76038,
2100.245,247.13253,
2097.335,257.92081,
2094.424,251.75784,
2091.514,254.76205,
2088.603,245.59965,
2085.692,243.7607,
2082.782,253.43417,
2079.871,257.30353,
2076.961,264.60838,
2074.050,248.22197,
2071.140,248.67684,
2068.229,250.92185,
2065.318,268.70449,
2062.408,252.66282,
2059.497,268.76193,
2056.587,259.13698,
2053.676,249.30838,
2050.766,245.43292,
2047.855,267.92565,
2044.944,260.59295,
2042.034,256.41401,
2039.123,257.86574,
2036.213,258.04941,
2033.302,270.32033,
2030.391,261.07489,
2027.481,261.00291,
2024.570,256.01098,
2021.660,245.65716,
2018.749,284.17524,
2015.839,259.45243,
2012.928,260.18205,
2010.017,273.87853,
2007.107,264.61285,
2004.196,262.14881,
2001.286,268.56315,
1998.375,272.82087,
1995.465,243.23393,
1992.554,231.61915,
1989.643,274.56963,
1986.733,251.05482,
1983.822,235.65159,
1980.912,250.97599,
1978.001,226.67602,
1975.090,229.88379,
1972.180,242.2633,
1969.269,244.35203,
1966.359,235.5032,
1963.448,240.54376,
1960.538,224.02575,
1957.627,243.19932,
1954.716,222.81444,
1951.806,214.96953,
1948.895,231.25253,
1945.985,236.82271,
1943.074,238.2987,
1940.164,203.30788,
1937.253,214.25117,
1934.342,206.60361,
1931.432,221.44361,
1928.521,221.13709,
1925.611,213.40423,
1922.700,234.49378,
1919.790,213.42588,
1916.879,216.567,
1913.968,204.14098,
1911.058,250.26614,
1908.147,236.26513,
1905.237,218.76467,
1902.326,206.35461,
1899.415,212.11399,
1896.505,180.5227,
1893.594,189.21949,
1890.684,196.06608,
1887.773,211.43529,
1884.863,220.77876,
1881.952,226.51999,
1879.041,221.07308,
1876.131,246.81388,
1873.220,235.6913,
1870.310,254.47474,
1867.399,249.23696,
1864.489,215.78704,
1861.578,233.24579,
1858.667,237.66995,
1855.757,203.51283,
1852.846,221.89934,
1849.936,224.93983,
1847.025,194.53863,
1844.114,202.21917,
1841.204,239.20542,
1838.293,244.64246,
1835.383,245.05499,
1832.472,261.24152,
1829.562,245.04453,
1826.651,232.44122,
1823.740,240.86065,
1820.830,221.74685,
1817.919,224.08314,
1815.009,210.71279,
1812.098,239.5423,
1809.188,245.00096,
1806.277,236.32419,
1803.366,239.37637,
1800.456,197.92782,
1797.545,247.23133,
1794.635,258.77001,
1791.724,265.2706,
1788.813,276.52551,
1785.903,267.10376,
1782.992,237.29492,
1780.082,224.90254,
1777.171,124.10731,
1774.261,95.720758,
1771.350,179.72526,
1768.439,230.68135,
1765.529,261.125,
1762.618,275.61878,
1759.708,263.02689,
1756.797,259.25379,
1753.887,275.74016,
1750.976,276.0733,
1748.065,278.125,
1745.155,282.59594,
1742.244,290.42209,
1739.334,284.22383,
1736.423,305.56048,
1733.512,284.10865,
1730.602,305.78576,
1727.691,310.21606,
1724.781,292.39347,
1721.870,289.73453,
1718.960,316.43643,
1716.049,312.89628,
1713.138,288.89511,
1710.228,283.38441,
1707.317,310.54671,
1704.407,298.85225,
1701.496,291.65571,
1698.586,304.98477,
1695.675,322.96776,
1692.764,284.36268,
1689.854,256.29428,
1686.943,330.4944,
1684.033,328.24918,
1681.122,322.22695,
1678.211,316.1821,
1675.301,329.08492,
1672.390,320.14893,
1669.480,328.0528,
1666.569,320.0645,
1663.659,392.66769,
1660.748,365.47207,
1657.837,383.14687,
1654.927,383.91414,
1652.016,374.88201,
1649.106,364.31713,
1646.195,334.28287,
1643.285,422.19336,
1640.374,424.58145,
1637.463,399.30515,
1634.553,409.62745,
1631.642,443.70047,
1628.732,496.0776,
1625.821,488.13547,
1622.911,504.03484,
1620.000,527.82263,
1617.089,579.09017,
1614.179,597.61738,
1611.268,632.7866,
1608.358,654.14171,
1605.447,704.15397,
1602.536,708.05689,
1599.626,723.76386,
1596.715,715.14139,
1593.805,698.02703,
1590.894,710.21572,
1587.984,693.07097,
1585.073,656.94315,
1582.162,645.2808,
1579.252,671.12894,
1576.341,631.46439,
1573.431,620.90817,
1570.520,617.30311,
1567.610,587.81084,
1564.699,607.12619,
1561.788,606.15328,
1558.878,594.98013,
1555.967,552.48512,
1553.057,542.96972,
1550.146,525.77233,
1547.235,505.22174,
1544.325,521.48415,
1541.414,547.92614,
1538.504,541.71092,
1535.593,514.95214,
1532.683,498.44985,
1529.772,510.51224,
1526.861,533.73431,
1523.951,531.27963,
1521.040,512.16273,
1518.130,515.11719,
1515.219,557.20582,
1512.309,524.91327,
1509.398,512.76948,
1506.487,515.84937,
1503.577,517.36156,
1500.666,509.25157,
1497.756,528.94739,
1494.845,559.36294,
1491.934,469.15965,
1489.024,479.74707,
1486.113,511.65033,
1483.203,478.59829,
1480.292,419.82027,
1477.382,517.62201,
1474.471,475.59565,
1471.560,469.63832,
1468.650,462.82607,
1465.739,461.60843,
1462.829,460.5441,
1459.918,458.67749,
1457.008,476.89446,
1454.097,497.36011,
1451.186,496.55053,
1448.276,476.84211,
1445.365,431.29957,
1442.455,394.05778,
1439.544,414.82433,
1436.633,390.49441,
1433.723,409.75415,
1430.812,399.09064,
1427.902,387.50053,
1424.991,445.31404,
1422.081,386.57151,
1419.170,402.72651,
1416.259,426.37658,
1413.349,403.18108,
1410.438,409.52015,
1407.528,409.68758,
1404.617,417.86756,
1401.707,399.62798,
1398.796,342.6111,
1395.885,320.00701,
1392.975,330.14538,
1390.064,328.96079,
1387.154,369.21812,
1384.243,355.88413,
1381.332,358.83312,
1378.422,275.44873,
1375.511,262.3338,
1372.601,335.85063,
1369.690,337.83889,
1366.780,374.35065,
1363.869,405.91931,
1360.958,422.0476,
1358.048,439.77117,
1355.137,457.01026,
1352.227,469.61523,
1349.316,487.01221,
1346.406,499.65463,
1343.495,487.88283,
1340.584,486.12465,
1337.674,510.84021,
1334.763,525.26614,
1331.853,528.97507,
1328.942,556.69839,
1326.032,534.84076,
1323.121,538.75754,
1320.210,572.09143,
1317.300,596.56871,
1314.389,624.70876,
1311.479,638.13476,
1308.568,640.25992,
1305.657,652.8201,
1302.747,648.07612,
1299.836,705.45918,
1296.926,722.25319,
1294.015,725.01116,
1291.105,746.258,
1288.194,789.06215,
1285.283,774.06489,
1282.373,762.22657,
1279.462,787.47743,
1276.552,828.17233,
1273.641,821.27491,
1270.731,790.29666,
1267.820,833.27978,
1264.909,844.53113,
1261.999,810.29281,
1259.088,787.48978,
1256.178,818.67034,
1253.267,787.29962,
1250.356,778.83402,
1247.446,789.51263,
1244.535,783.24111,
1241.625,769.7213,
1238.714,757.91597,
1235.804,736.83857,
1232.893,750.74904,
1229.982,755.43164,
1227.072,764.48476,
1224.161,760.08198,
1221.251,759.125,
1218.340,726.08659,
1215.430,686.65412,
1212.519,689.49918,
1209.608,721.92126,
1206.698,719.78417,
1203.787,682.40643,
1200.877,739.12798,
1197.966,755.31284,
1195.055,750.15226,
1192.145,794.95695,
1189.234,825.04722,
1186.324,854.94528,
1183.413,858.10975,
1180.503,858.01131,
1177.592,877.93271,
1174.681,820.49144,
1171.771,816.16621,
1168.860,817.95239,
1165.950,825.38161,
1163.039,811.76014,
1160.129,815.15254,
1157.218,818.75985,
1154.307,816.6091,
1151.397,829.55216,
1148.486,863.47084,
1145.576,885.81214,
1142.665,832.53737,
1139.754,846.02483,
1136.844,872.53469,
1133.933,859.83777,
1131.023,824.76907,
1128.112,810.62391,
1125.202,828.23127,
1122.291,841.25034,
1119.380,842.15965,
1116.470,845.68976,
1113.559,827.56702,
1110.649,827.36377,
1107.738,834.41154,
1104.828,831.46741,
1101.917,823.01261,
1099.006,830.7331,
1096.096,854.43733,
1093.185,810.5372,
1090.275,811.98062,
1087.364,837.1393,
1084.453,840.81296,
1081.543,832.49567,
1078.632,830.06518,
1075.722,833.62948,
1072.811,841.17989,
1069.901,856.02532,
1066.990,874.09996,
1064.079,886.29117,
1061.169,868.58525,
1058.258,865.52351,
1055.348,881.5975,
1052.437,871.6491,
1049.527,864.8299,
1046.616,883.07531,
1043.705,852.75287,
1040.795,869.30369,
1037.884,871.48156,
1034.974,874.0219,
1032.063,892.92522,
1029.153,874.89066,
1026.242,889.59492,
1023.331,879.29236,
1020.421,900.82645,
1017.510,921.77024,
1014.600,923.35812,
1011.689,912.69965,
1008.778,911.03095,
1005.868,922.18678,
1002.957,929.06961,
1000.047,926.485,
997.136,945.09407,
994.226,971.61711,
991.315,984.3849,
988.404,970.50487,
985.494,931.7963,
982.583,961.77577,
979.673,955.88195,
976.762,925.7054,
973.852,912.87113,
970.941,915.08653,
968.030,903.57587,
965.120,906.28968,
962.209,945.50662,
959.299,940.79301,
956.388,956.28371,
953.477,961.43829,
950.567,959.45761,
947.656,995.34243,
944.746,981.74954,
941.835,964.92873,
938.925,984.81481,
936.014,990.04343,
933.103,968.29504,
930.193,942.12378,
927.282,944.8418,
924.372,921.16481,
921.461,957.15421,
918.551,964.1538,
915.640,959.97489,
912.729,967.29719,
909.819,982.01211,
906.908,966.00603,
903.998,961.14818,
901.087,950.57741,
898.176,950.37415,
895.266,955.1728,
892.355,955.4809,
889.445,968.0699,
886.534,988.16192,
883.624,975.3042,
880.713,970.69749,
877.802,962.31368,
874.892,927.99112,
871.981,871.81682,
869.071,774.07352,
866.160,766.09448,
863.250,819.92427,
860.339,884.09764,
857.428,927.49914,
854.518,965.75291,
851.607,918.32496,
848.697,894.99302,
845.786,857.506,
842.875,846.60242,
839.965,894.93127,
837.054,967.05988,
834.144,961.25861,
831.233,1014.1211,
828.323,1027.7716,
825.412,1010.9054,
822.501,1008.5932,
819.591,1033.3852,
816.680,1014.0929,
813.770,997.22145,
810.859,993.28368,
807.949,995.74694,
805.038,992.8219,
802.127,998.5838,
799.217,1017.0144,
796.306,998.71941,
793.396,997.25495,
790.485,1015.7018,
787.574,985.33937,
784.664,1017.3237,
781.753,997.62761,
778.843,1003.7481,
775.932,1022.1991,
773.022,1017.7158,
770.111,1002.1819,
767.200,1019.3965,
764.290,1036.1047,
761.379,1030.7335,
758.469,1007.8231,
755.558,999.51401,
752.648,1012.5477,
749.737,994.23575,
746.826,999.90896,
743.916,1015.2159,
741.005,1003.1075,
738.095,985.2462,
735.184,940.22142,
732.274,883.1568,
729.363,864.60898,
726.452,901.17149,
723.542,912.50299,
720.631,982.69805,
717.721,1008.7078,
714.810,1025.4488,
711.899,1042.9864,
708.989,1025.234,
706.078,1054.7732,
703.168,1038.4434,
700.257,1035.5022,
697.347,1051.1687,
694.436,1044.0814,
691.525,1042.4737,
688.615,1021.9998,
685.704,1010.9884,
682.794,1020.3164,
679.883,1048.5307,
676.973,1079.7841,
674.062,1072.7253,
671.151,1067.3167,
668.241,1071.3162,
665.330,1072.4401,
662.420,1015.7301,
659.509,993.9661,
656.598,1003.2712,
653.688,1035.5473,
650.777,1075.3968,
647.867,1024.4319,
644.956,1044.0825,
642.046,1031.2009,
639.135,975.64455,
636.224,936.499,
633.314,1011.1292,
630.403,1063.824,
627.493,1070.6098,
624.582,1039.7107,
621.672,1019.9109,
618.761,1030.5241,
615.850,1051.7566,
612.940,1082.8602,
610.029,1108.0228,
607.119,1065.3827,
604.208,1110.8259,
601.297,1145.0835,
598.387,1127.8821,
595.476,1053.9132,
592.566,1094.0537,
589.655,1103.7166,
586.745,1103.8231,
583.834,1115.5196,
580.923,1162.9591,
578.013,1135.4934,
575.102,1081.6643,
572.192,1069.9912,
569.281,1112.3904,
566.371,1119.434,
563.460,1108.8375,
560.549,1126.0525,
557.639,1153.1534,
554.728,1162.1541,
551.818,1130.9415,
548.907,1130.8285,
545.996,1137.8465,
543.086,1138.602,
540.175,1122.2504,
537.265,1129.8164,
534.354,1117.0709,
531.444,1114.5006,
528.533,1149.2354,
525.622,1150.7873,
522.712,1123.2143,
519.801,1100.5424,
516.891,1095.0031,
513.980,1104.2946,
511.070,1114.9859,
508.159,1131.5417,
505.248,1135.1105,
502.338,1105.4187,
499.427,1115.4525,
496.517,1122.6502,
493.606,1143.2861,
490.695,1175.0923,
487.785,1160.4663,
484.874,1158.125,
481.964,1135.2847,
479.053,1110.2955,
476.143,1140.246,
473.232,1129.8951,
470.321,1131.4505,
467.411,1136.6054,
464.500,1132.6098,
461.590,1151.7533,
458.679,1151.6221,
455.769,1132.317,
452.858,1102.511,
449.947,1125.429,
447.037,1138.0129,
444.126,1146.4523,
441.216,1153.051,
438.305,1158.3845,
435.395,1158.4694,
432.484,1156.0412,
429.573,1150.995,
426.663,1141.8733,
423.752,1022.5638,
420.842,885.72472,
417.931,748.14171,
415.020,621.49591,
412.110,838.07217,
409.199,998.83151,
406.289,1079.1732,
403.378,1070.0021,
400.468,1033.7143,
397.557,1016.9835,
394.646,1035.0194,
391.736,1097.3664,
388.825,1104.9088,
385.915,1098.0777,
383.004,1097.2636,
380.094,1115.3553,
377.183,1119.8702,
374.272,1121.6678,
371.362,1133.8981,
368.451,1163.4016,
365.541,1184.4166,
362.630,1148.6107,
359.719,1126.5556,
356.809,1155.8078,
353.898,1150.5662,
350.988,1171.367,
348.077,1195.3524,
345.167,1205.5139,
342.256,1153.9662,
339.345,1142.845,
336.435,1156.1183,
333.524,1181.5378,
330.614,1162.9089,
327.703,1175.0942,
324.793,1198.0542,
321.882,1215.143,
318.971,1222.5775,
316.061,1230.0081,
313.150,1245.2869,
310.240,1277.94,
307.329,1276.2665,
304.418,1284.2441,
301.508,1291.5804,
298.597,1278.2529,
295.687,1234.4589,
292.776,1232.0418,
289.866,1271.9156,
286.955,1342.0945,
284.044,1374.895,
281.134,1412.9343,
278.223,1458.3584,
275.313,1480.4641,
272.402,1465.9552,
269.492,1477.4732,
266.581,1525.8715,
263.670,1438.385,
260.760,1510.2883,
257.849,1587.3201,
254.939,1553.5615,
252.028,1536.4766,
249.117,1524.1862,
246.207,1527.3532,
243.296,1566.8832,
240.386,1583.5318,
237.475,1560.1584,
234.565,1516.2662,
231.654,1542.56,
228.743,1530.864,
225.833,1490.9892,
222.922,1429.159,
220.012,1429.8875,
217.101,1428.1621,
214.191,1412.7928,
211.280,1368.4176,
208.369,1345.6134,
205.459,1317.3602,
202.548,1292.2587,
199.638,1310.3999,
196.727,1287.0429,
193.816,1280.671,
190.906,1309.9918,
187.995,1249.1738,
185.085,1234.745,
182.174,1240.9497,
179.264,1236.6131,
176.353,1213.6977,
173.442,1233.3926,
170.532,1277.4399,
167.621,1168.5726,
164.711,1139.6506,
161.800,1111.3705,
158.890,1027.1624,
155.979,919.0488,
153.068,827.93908,
150.158,746.29147,
147.247,641.47044,
144.337,555.6694,
141.426,451.70323,
138.516,309.75877,
135.605,213.96866,
132.694,146.30557,
129.784,99.180925,
126.873,58.418524,
123.963,40.450808,
121.052,30.292108,
118.141,23.153088,
115.231,18.151008,
112.320,15.701364,
109.410,14.579579,
106.499,11.730958,
103.589,7.7634731,
100.678,5.6682434,
97.767,7.0901186,
94.857,4.3530438,
91.946,6.349887,
89.036,10.334715,
86.125,5.3702777,
83.215,6.2486814,
80.304,5.0123751,
77.393,-4.1938341,
74.483,0.36607966,
71.572,2.7626479,
68.662,1.84793,
65.751,-0.97787431,
62.840,3.4237218,
59.930,8.0012828,
57.019,3.7707909,
54.109,-1.6522868,
51.198,-2.4621258,
48.288,3.1476498,
45.377,5.961162,
42.466,5.0639033,
39.556,1.6645257,
36.645,-1.1442352,
33.735,-1.3557515,
30.824,-1.095887,
27.914,-1.7970622,
25.003,-6.2334623,
22.092,-6.6146681,
19.182,-1.9436486,
16.271,-4.042119,
13.361,17.883731,
10.450,21.120786,
7.539,-141.58669,
4.629,-478.18024,
1.718,-839.61564,
-1.192,-1119.1706,
-4.103,-880.81606,
-7.013,-490.14727,
-9.924,-0.875,
