,PL284A~1,
Wavenumbers [1/cm],Intensity,
3014.167,1.875,
3011.256,2.9750215,
3008.346,33.341148,
3005.435,9.6064496,
3002.525,27.140101,
2999.614,21.004909,
2996.704,35.01624,
2993.793,9.6088718,
2990.882,20.745235,
2987.972,19.829595,
2985.061,17.968605,
2982.151,20.710289,
2979.240,12.371173,
2976.329,35.129095,
2973.419,25.582831,
2970.508,24.191644,
2967.598,37.205923,
2964.687,26.740489,
2961.777,17.19111,
2958.866,47.215262,
2955.955,41.669243,
2953.045,32.608784,
2950.134,27.385186,
2947.224,21.928346,
2944.313,48.436965,
2941.403,41.220346,
2938.492,43.449527,
2935.581,45.579293,
2932.671,42.716213,
2929.760,48.340384,
2926.850,48.822744,
2923.939,45.996507,
2921.028,61.681092,
2918.118,42.055101,
2915.207,44.05223,
2912.297,45.870769,
2909.386,49.079378,
2906.476,40.394677,
2903.565,43.053527,
2900.654,34.662649,
2897.744,42.812139,
2894.833,34.163729,
2891.923,27.253199,
2889.012,29.747833,
2886.102,36.270947,
2883.191,-0.091015386,
2880.280,-25.388171,
2877.370,-151.02004,
2874.459,-196.25688,
2871.549,-114.33491,
2868.638,-27.438443,
2865.727,-0.96349039,
2862.817,14.518045,
2859.906,22.419161,
2856.996,36.295748,
2854.085,59.156522,
2851.175,49.73045,
2848.264,37.664168,
2845.353,32.306341,
2842.443,53.472215,
2839.532,45.009394,
2836.622,31.605466,
2833.711,46.349097,
2830.801,44.975735,
2827.890,43.229902,
2824.979,49.442982,
2822.069,57.988721,
2819.158,70.155326,
2816.248,60.427107,
2813.337,69.493303,
2810.427,49.441117,
2807.516,53.76703,
2804.605,61.487982,
2801.695,58.217094,
2798.784,45.540308,
2795.874,54.880284,
2792.963,48.589255,
2790.052,54.873499,
2787.142,55.335655,
2784.231,60.359483,
2781.321,39.069345,
2778.410,58.949869,
2775.500,54.982244,
2772.589,60.413228,
2769.678,61.052454,
2766.768,61.816742,
2763.857,56.40294,
2760.947,66.856087,
2758.036,52.862195,
2755.126,59.684829,
2752.215,65.256897,
2749.304,71.747301,
2746.394,60.393162,
2743.483,63.124965,
2740.573,60.116108,
2737.662,55.864648,
2734.751,48.316756,
2731.841,63.929951,
2728.930,63.773283,
2726.020,61.869792,
2723.109,59.648166,
2720.199,67.071945,
2717.288,59.050184,
2714.377,75.678943,
2711.467,68.121149,
2708.556,65.21521,
2705.646,73.720073,
2702.735,81.717791,
2699.825,76.691307,
2696.914,74.827744,
2694.003,72.544914,
2691.093,85.660798,
2688.182,67.254998,
2685.272,82.158074,
2682.361,65.992903,
2679.450,61.660978,
2676.540,73.956296,
2673.629,74.888469,
2670.719,66.948012,
2667.808,72.534551,
2664.898,78.017999,
2661.987,72.708389,
2659.076,64.400869,
2656.166,65.294886,
2653.255,73.800171,
2650.345,79.011117,
2647.434,66.589777,
2644.524,79.855792,
2641.613,86.961111,
2638.702,86.001248,
2635.792,73.405412,
2632.881,81.029742,
2629.971,68.787672,
2627.060,90.542498,
2624.149,83.875,
2621.239,72.602766,
2618.328,64.595583,
2615.418,78.55227,
2612.507,85.66547,
2609.597,91.058633,
2606.686,78.68022,
2603.775,78.835318,
2600.865,79.110492,
2597.954,76.641625,
2595.044,88.571189,
2592.133,80.652058,
2589.223,90.573957,
2586.312,94.558409,
2583.401,89.345775,
2580.491,86.134595,
2577.580,83.868399,
2574.670,78.491314,
2571.759,84.233727,
2568.848,86.935748,
2565.938,111.49422,
2563.027,86.313653,
2560.117,76.790877,
2557.206,84.723707,
2554.296,83.733124,
2551.385,91.817039,
2548.474,111.65307,
2545.564,86.887977,
2542.653,106.96895,
2539.743,113.01055,
2536.832,87.52733,
2533.922,89.938077,
2531.011,95.249884,
2528.100,98.341897,
2525.190,101.82787,
2522.279,101.64051,
2519.369,90.233893,
2516.458,79.87854,
2513.548,101.67475,
2510.637,100.79724,
2507.726,112.68912,
2504.816,98.311298,
2501.905,104.67195,
2498.995,114.57641,
2496.084,110.48824,
2493.173,94.190229,
2490.263,110.98691,
2487.352,101.08367,
2484.442,108.43816,
2481.531,115.40159,
2478.621,102.82282,
2475.710,129.73698,
2472.799,107.92886,
2469.889,100.23789,
2466.978,99.823501,
2464.068,122.77456,
2461.157,98.414962,
2458.247,105.30148,
2455.336,113.12941,
2452.425,108.85141,
2449.515,117.75234,
2446.604,115.11234,
2443.694,103.73518,
2440.783,119.73649,
2437.872,104.83854,
2434.962,105.18836,
2432.051,117.16528,
2429.141,131.56904,
2426.230,111.43959,
2423.320,126.07472,
2420.409,125.01627,
2417.498,118.83288,
2414.588,118.24767,
2411.677,121.26944,
2408.767,129.34547,
2405.856,132.66304,
2402.946,132.55329,
2400.035,121.48063,
2397.124,112.22259,
2394.214,124.8214,
2391.303,116.54912,
2388.393,112.59362,
2385.482,93.84436,
2382.571,86.736087,
2379.661,79.967949,
2376.750,103.0818,
2373.840,120.3656,
2370.929,126.82085,
2368.019,133.68227,
2365.108,128.13154,
2362.197,123.86131,
2359.287,136.25328,
2356.376,137.87676,
2353.466,143.98298,
2350.555,116.27001,
2347.645,123.38757,
2344.734,134.17916,
2341.823,110.30616,
2338.913,130.05261,
2336.002,141.25768,
2333.092,141.97875,
2330.181,133.40184,
2327.270,126.37005,
2324.360,141.14386,
2321.449,143.19813,
2318.539,137.74655,
2315.628,143.03408,
2312.718,152.2913,
2309.807,133.28488,
2306.896,140.38674,
2303.986,142.26459,
2301.075,143.81115,
2298.165,155.65401,
2295.254,147.11197,
2292.344,141.02847,
2289.433,150.14909,
2286.522,147.19633,
2283.612,157.4949,
2280.701,168.99157,
2277.791,164.15365,
2274.880,147.51699,
2271.969,150.64866,
2269.059,153.55075,
2266.148,143.93176,
2263.238,155.16842,
2260.327,152.4268,
2257.417,160.11222,
2254.506,166.53884,
2251.595,156.60602,
2248.685,166.44415,
2245.774,170.36958,
2242.864,169.22663,
2239.953,160.10258,
2237.043,160.48536,
2234.132,164.28017,
2231.221,172.84918,
2228.311,163.56702,
2225.400,178.70613,
2222.490,172.31798,
2219.579,172.95214,
2216.669,181.36308,
2213.758,168.87237,
2210.847,173.77171,
2207.937,184.54926,
2205.026,184.875,
2202.116,181.72851,
2199.205,182.36183,
2196.294,186.32103,
2193.384,171.76999,
2190.473,180.88674,
2187.563,203.8025,
2184.652,189.47745,
2181.742,189.92009,
2178.831,187.7116,
2175.920,192.70924,
2173.010,214.35176,
2170.099,191.67856,
2167.189,219.82477,
2164.278,210.82073,
2161.368,204.87428,
2158.457,218.60412,
2155.546,229.76829,
2152.636,214.09316,
2149.725,209.53271,
2146.815,233.10751,
2143.904,230.57389,
2140.993,225.08138,
2138.083,227.18193,
2135.172,243.90019,
2132.262,234.6162,
2129.351,242.95783,
2126.441,247.7585,
2123.530,234.93112,
2120.619,236.8476,
2117.709,218.13869,
2114.798,218.48653,
2111.888,211.72527,
2108.977,218.59024,
2106.067,216.77447,
2103.156,206.83632,
2100.245,193.875,
2097.335,194.71793,
2094.424,197.04541,
2091.514,193.09819,
2088.603,207.40035,
2085.692,205.69285,
2082.782,207.70229,
2079.871,198.19589,
2076.961,206.16464,
2074.050,213.63258,
2071.140,210.96679,
2068.229,216.70444,
2065.318,207.08526,
2062.408,207.96578,
2059.497,210.89287,
2056.587,215.45642,
2053.676,205.89222,
2050.766,203.875,
2047.855,200.47306,
2044.944,218.48078,
2042.034,201.92701,
2039.123,206.69655,
2036.213,203.74381,
2033.302,208.0485,
2030.391,205.75704,
2027.481,211.21628,
2024.570,218.71783,
2021.660,176.53582,
2018.749,216.58332,
2015.839,186.96883,
2012.928,208.2542,
2010.017,207.03135,
2007.107,195.29369,
2004.196,198.43453,
2001.286,215.37674,
1998.375,201.91141,
1995.465,198.95446,
1992.554,184.2222,
1989.643,189.59849,
1986.733,203.26974,
1983.822,180.23541,
1980.912,201.2602,
1978.001,165.95107,
1975.090,179.65668,
1972.180,178.6689,
1969.269,169.875,
1966.359,167.92903,
1963.448,178.56325,
1960.538,174.7599,
1957.627,168.41679,
1954.716,181.47282,
1951.806,192.93112,
1948.895,174.875,
1945.985,178.95997,
1943.074,187.5836,
1940.164,160.33635,
1937.253,138.84904,
1934.342,137.93489,
1931.432,167.96649,
1928.521,170.5883,
1925.611,159.27114,
1922.700,168.95511,
1919.790,142.59209,
1916.879,150.89851,
1913.968,136.89344,
1911.058,189.28941,
1908.147,164.61659,
1905.237,149.875,
1902.326,151.72092,
1899.415,138.83229,
1896.505,82.296452,
1893.594,89.125137,
1890.684,132.84233,
1887.773,138.22829,
1884.863,172.21441,
1881.952,182.59756,
1879.041,182.90096,
1876.131,165.95867,
1873.220,138.33951,
1870.310,168.29198,
1867.399,168.90699,
1864.489,135.51063,
1861.578,174.56741,
1858.667,160.55465,
1855.757,151.6793,
1852.846,155.66985,
1849.936,169.17832,
1847.025,143.05018,
1844.114,159.33621,
1841.204,190.66171,
1838.293,198.39412,
1835.383,175.94501,
1832.472,197.12022,
1829.562,192.96171,
1826.651,178.875,
1823.740,191.97847,
1820.830,174.49685,
1817.919,182.53378,
1815.009,161.04422,
1812.098,179.31593,
1809.188,208.1385,
1806.277,153.15865,
1803.366,148.60882,
1800.456,135.51294,
1797.545,179.95306,
1794.635,169.58498,
1791.724,168.30208,
1788.813,204.27294,
1785.903,184.03982,
1782.992,143.70363,
1780.082,135.1841,
1777.171,42.185464,
1774.261,-18.669507,
1771.350,63.845767,
1768.439,147.43135,
1765.529,191.0593,
1762.618,200.59436,
1759.708,174.46176,
1756.797,193.52652,
1753.887,222.49016,
1750.976,216.9267,
1748.065,194.59851,
1745.155,207.42321,
1742.244,221.875,
1739.334,190.37854,
1736.423,207.66935,
1733.512,213.59856,
1730.602,220.59922,
1727.691,204.68349,
1724.781,224.04545,
1721.870,216.3892,
1718.960,251.51991,
1716.049,222.12114,
1713.138,210.60002,
1710.228,235.11361,
1707.317,231.79843,
1704.407,257.82692,
1701.496,263.60964,
1698.586,246.3193,
1695.675,250.48925,
1692.764,256.55533,
1689.854,187.03638,
1686.943,229.2899,
1684.033,236.72598,
1681.122,270.29726,
1678.211,256.01776,
1675.301,249.8935,
1672.390,215.90491,
1669.480,226.2039,
1666.569,267.05274,
1663.659,280.59735,
1660.748,264.54986,
1657.837,298.875,
1654.927,298.73443,
1652.016,292.46192,
1649.106,275.63019,
1646.195,266.47441,
1643.285,291.44466,
1640.374,315.26873,
1637.463,288.02793,
1634.553,350.91933,
1631.642,353.65784,
1628.732,333.93425,
1625.821,343.89528,
1622.911,374.70031,
1620.000,385.73641,
1617.089,426.05908,
1614.179,455.05717,
1611.268,475.13144,
1608.358,491.12583,
1605.447,532.41819,
1602.536,522.76047,
1599.626,570.63144,
1596.715,564.89139,
1593.805,519.1584,
1590.894,520.92036,
1587.984,519.27672,
1585.073,483.14069,
1582.162,483.55409,
1579.252,479.96519,
1576.341,501.30477,
1573.431,458.3182,
1570.520,464.7488,
1567.610,492.48318,
1564.699,474.49896,
1561.788,474.02984,
1558.878,463.53697,
1555.967,429.78775,
1553.057,414.59915,
1550.146,402.81321,
1547.235,391.15239,
1544.325,391.83372,
1541.414,400.81563,
1538.504,402.79218,
1535.593,387.70214,
1532.683,376.25318,
1529.772,379.59997,
1526.861,383.48431,
1523.951,376.18427,
1521.040,368.78184,
1518.130,392.72991,
1515.219,407.31504,
1512.309,399.43354,
1509.398,381.16395,
1506.487,387.32374,
1503.577,397.10797,
1500.666,413.52458,
1497.756,396.09549,
1494.845,409.35417,
1491.934,372.72382,
1489.024,326.52416,
1486.113,382.36236,
1483.203,394.86851,
1480.292,352.60091,
1477.382,394.17814,
1474.471,329.1371,
1471.560,305.14933,
1468.650,331.52267,
1465.739,334.26765,
1462.829,317.53547,
1459.918,342.47197,
1457.008,335.36688,
1454.097,328.75585,
1451.186,369.68738,
1448.276,353.51261,
1445.365,292.48085,
1442.455,276.875,
1439.544,279.56711,
1436.633,283.45693,
1433.723,262.11217,
1430.812,289.80629,
1427.902,264.03285,
1424.991,270.66719,
1422.081,252.52546,
1419.170,259.5156,
1416.259,277.07626,
1413.349,245.37867,
1410.438,228.27676,
1407.528,253.55589,
1404.617,296.47003,
1401.707,246.4528,
1398.796,194.78756,
1395.885,225.3043,
1392.975,232.68666,
1390.064,204.11566,
1387.154,223.40768,
1384.243,213.5976,
1381.332,168.4524,
1378.422,125.45466,
1375.511,136.69603,
1372.601,146.0907,
1369.690,221.45335,
1366.780,214.07412,
1363.869,239.38704,
1360.958,254.8363,
1358.048,259.84156,
1355.137,290.26194,
1352.227,298.94679,
1349.316,313.48078,
1346.406,364.36257,
1343.495,350.89589,
1340.584,342.69574,
1337.674,391.09103,
1334.763,416.49888,
1331.853,380.33686,
1328.942,379.76446,
1326.032,392.10931,
1323.121,405.2485,
1320.210,459.48498,
1317.300,467.16804,
1314.389,486.73673,
1311.479,508.57409,
1308.568,506.1364,
1305.657,505.98425,
1302.747,484.25241,
1299.836,549.1207,
1296.926,552.54143,
1294.015,588.39505,
1291.105,598.68042,
1288.194,608.66117,
1285.283,611.591,
1282.373,611.875,
1279.462,606.93392,
1276.552,637.2531,
1273.641,660.17232,
1270.731,642.87203,
1267.820,663.34344,
1264.909,645.16024,
1261.999,611.4076,
1259.088,626.00154,
1256.178,682.54467,
1253.267,631.26656,
1250.356,629.12909,
1247.446,647.43609,
1244.535,623.1608,
1241.625,594.91203,
1238.714,604.29998,
1235.804,612.96723,
1232.893,616.875,
1229.982,616.59903,
1227.072,608.45122,
1224.161,636.45213,
1221.251,615.81718,
1218.340,591.32751,
1215.430,586.17821,
1212.519,588.42224,
1209.608,579.36998,
1206.698,567.44956,
1203.787,576.16143,
1200.877,569.93965,
1197.966,619.39341,
1195.055,600.54378,
1192.145,630.68545,
1189.234,672.36824,
1186.324,699.78514,
1183.413,698.276,
1180.503,701.73778,
1177.592,726.27885,
1174.681,698.12842,
1171.771,698.86533,
1168.860,655.10395,
1165.950,675.06368,
1163.039,677.38299,
1160.129,663.48804,
1157.218,688.04578,
1154.307,712.00219,
1151.397,695.00315,
1148.486,706.42256,
1145.576,720.25824,
1142.665,706.05163,
1139.754,708.12951,
1136.844,693.46834,
1133.933,687.46151,
1131.023,673.24003,
1128.112,676.51501,
1125.202,715.49818,
1122.291,723.49089,
1119.380,699.92697,
1116.470,705.22214,
1113.559,681.13103,
1110.649,670.60077,
1107.738,683.34209,
1104.828,692.5462,
1101.917,695.8635,
1099.006,716.62753,
1096.096,722.61736,
1093.185,685.74125,
1090.275,716.86435,
1087.364,703.60519,
1084.453,714.12371,
1081.543,721.5488,
1078.632,718.70986,
1075.722,731.17349,
1072.811,711.92989,
1069.901,726.77532,
1066.990,710.09171,
1064.079,716.76322,
1061.169,730.71182,
1058.258,737.875,
1055.348,738.46292,
1052.437,733.64344,
1049.527,703.11696,
1046.616,735.26365,
1043.705,758.91489,
1040.795,761.04397,
1037.884,753.31189,
1034.974,754.95103,
1032.063,761.86748,
1029.153,744.73251,
1026.242,735.21799,
1023.331,722.3758,
1020.421,760.30689,
1017.510,776.75445,
1014.600,777.14379,
1011.689,769.46768,
1008.778,743.96905,
1005.868,732.6665,
1002.957,709.43694,
1000.047,772.12303,
997.136,823.89198,
994.226,831.72133,
991.315,824.87747,
988.404,838.60517,
985.494,826.24206,
982.583,797.9757,
979.673,821.67757,
976.762,809.56512,
973.852,792.99098,
970.941,788.02205,
968.030,776.01946,
965.120,760.1256,
962.209,819.80355,
959.299,813.58527,
956.388,806.31504,
953.477,804.23089,
950.567,812.59337,
947.656,840.86961,
944.746,825.5776,
941.835,852.40865,
938.925,854.26865,
936.014,834.17109,
933.103,825.34926,
930.193,839.87622,
927.282,834.54597,
924.372,810.02337,
921.461,827.49421,
918.551,792.46686,
915.640,780.57252,
912.729,803.99651,
909.819,800.65428,
906.908,814.13308,
903.998,802.14917,
901.087,800.14801,
898.176,790.37671,
895.266,792.20576,
892.355,815.22085,
889.445,785.00723,
886.534,818.26987,
883.624,812.09119,
880.713,824.24781,
877.802,813.73628,
874.892,732.93031,
871.981,605.48178,
869.071,461.79077,
866.160,490.69185,
863.250,625.48179,
860.339,755.94484,
857.428,811.02285,
854.518,813.01046,
851.607,713.99421,
848.697,625.34202,
845.786,608.96295,
842.875,654.28571,
839.965,722.37047,
837.054,775.60067,
834.144,840.24336,
831.233,865.54075,
828.323,869.40214,
825.412,872.02641,
822.501,885.25804,
819.591,898.48043,
816.680,862.01596,
813.770,844.73047,
810.859,840.32624,
807.949,843.3555,
805.038,850.07412,
802.127,851.72037,
799.217,860.0743,
796.306,852.09113,
793.396,852.82929,
790.485,864.13745,
787.574,853.96841,
784.664,856.42875,
781.753,864.92681,
778.843,876.22623,
775.932,883.56636,
773.022,878.94427,
770.111,853.59935,
767.200,876.99831,
764.290,893.54317,
761.379,880.57549,
758.469,855.06034,
755.558,871.72595,
752.648,900.23708,
749.737,892.81922,
746.826,883.07767,
743.916,868.14755,
741.005,836.13261,
738.095,820.70695,
735.184,785.26719,
732.274,728.22552,
729.363,708.04014,
726.452,749.52944,
723.542,769.76427,
720.631,861.85514,
717.721,862.95126,
714.810,849.72723,
711.899,862.56807,
708.989,869.8304,
706.078,915.54927,
703.168,909.26559,
700.257,890.4487,
697.347,887.70026,
694.436,914.95848,
691.525,881.19866,
688.615,876.39064,
685.704,874.42145,
682.794,872.91752,
679.883,884.38882,
676.973,918.04639,
674.062,912.75144,
671.151,901.4917,
668.241,897.78099,
665.330,903.04305,
662.420,885.47095,
659.509,890.76403,
656.598,898.90425,
653.688,911.15653,
650.777,937.17385,
647.867,887.00519,
644.956,860.39625,
642.046,808.58599,
639.135,759.35545,
636.224,799.03415,
633.314,830.79169,
630.403,882.62459,
627.493,910.18648,
624.582,907.28757,
621.672,913.62352,
618.761,910.83524,
615.850,916.48685,
612.940,940.31787,
610.029,972.84998,
607.119,954.68848,
604.208,960.68515,
601.297,949.41799,
598.387,940.32101,
595.476,951.57235,
592.566,927.17323,
589.655,970.81887,
586.745,983.42197,
583.834,966.75334,
580.923,969.99821,
578.013,990.4013,
575.102,958.01817,
572.192,932.37599,
569.281,938.8434,
566.371,949.80013,
563.460,965.68983,
560.549,971.38772,
557.639,974.36632,
554.728,983.67791,
551.818,980.55665,
548.907,959.76437,
545.996,951.92926,
543.086,957.69409,
540.175,947.57169,
537.265,994.67743,
534.354,1007.8581,
531.444,995.90855,
528.533,980.46856,
525.622,1016.9381,
522.712,993.93058,
519.801,958.21791,
516.891,936.63112,
513.980,955.21422,
511.070,961.10108,
508.159,969.56093,
505.248,975.62319,
502.338,972.86905,
499.427,1006.8297,
496.517,1017.572,
493.606,1021.9034,
490.695,1024.5585,
487.785,1000.695,
484.874,990.41276,
481.964,994.76529,
479.053,1002.1978,
476.143,986.83859,
473.232,980.83917,
470.321,974.00924,
467.411,969.88804,
464.500,972.75864,
461.590,968.1642,
458.679,998.24179,
455.769,1010.3272,
452.858,985.64709,
449.947,1031.483,
447.037,1009.9302,
444.126,997.26894,
441.216,1007.0969,
438.305,991.09638,
435.395,992.15318,
432.484,994.7085,
429.573,980.78732,
426.663,916.17537,
423.752,745.58669,
420.842,509.01136,
417.931,289.3889,
415.020,206.72787,
412.110,503.10478,
409.199,742.94821,
406.289,870.01974,
403.378,842.71875,
400.468,796.6031,
397.557,804.49758,
394.646,863.0447,
391.736,963.85086,
388.825,963.09662,
385.915,933.07215,
383.004,918.58228,
380.094,949.25701,
377.183,976.34615,
374.272,989.3028,
371.362,991.22605,
368.451,985.60446,
365.541,997.61303,
362.630,1003.06,
359.719,1004.875,
356.809,1004.2407,
353.898,993.7575,
350.988,1013.6594,
348.077,1025.6148,
345.167,1007.1939,
342.256,993.74662,
339.345,1026.0124,
336.435,1049.2696,
333.524,1025.8885,
330.614,994.59196,
327.703,1020.8134,
324.793,1048.688,
321.882,1030.8606,
318.971,1024.913,
316.061,1024.8283,
313.150,1036.1131,
310.240,1065.7977,
307.329,1067.5896,
304.418,1080.6417,
301.508,1096.6627,
298.597,1099.6244,
295.687,1072.1081,
292.776,1056.375,
289.866,1054.7433,
286.955,1063.608,
284.044,1098.3975,
281.134,1166.0124,
278.223,1246.5816,
275.313,1237.7394,
272.402,1230.6469,
269.492,1221.4885,
266.581,1205.2505,
263.670,1140.5547,
260.760,1176.7252,
257.849,1235.6003,
254.939,1260.5523,
252.028,1232.645,
249.117,1221.875,
246.207,1235.1338,
243.296,1286.3763,
240.386,1318.6477,
237.475,1328.2648,
234.565,1316.1586,
231.654,1286.2129,
228.743,1316.1232,
225.833,1310.556,
222.922,1237.0449,
220.012,1240.6876,
217.101,1236.9678,
214.191,1216.3572,
211.280,1164.7074,
208.369,1160.875,
205.459,1161.2743,
202.548,1163.8806,
199.638,1175.491,
196.727,1154.8264,
193.816,1159.8497,
190.906,1207.6498,
187.995,1115.6987,
185.085,1107.9906,
182.174,1134.875,
179.264,1134.875,
176.353,1107.3215,
173.442,1095.8631,
170.532,1096.7425,
167.621,1044.1113,
164.711,1020.9403,
161.800,961.01867,
158.890,809.15615,
155.979,773.1171,
153.068,722.74318,
150.158,656.88173,
147.247,592.26603,
144.337,493.11383,
141.426,382.99724,
138.516,271.16221,
135.605,192.00133,
132.694,132.75083,
129.784,89.603362,
126.873,57.422519,
123.963,36.648247,
121.052,21.342372,
118.141,9.9199405,
115.231,13.427852,
112.320,13.180456,
109.410,11.693132,
106.499,15.966063,
103.589,9.5916918,
100.678,3.6033783,
97.767,2.8924407,
94.857,3.567989,
91.946,7.099887,
89.036,10.746021,
86.125,3.6539682,
83.215,7.7151239,
80.304,8.325779,
77.393,-5.1294498,
74.483,3.0468894,
71.572,5.3385352,
68.662,0.8057325,
65.751,0.099281423,
62.840,2.7652119,
59.930,4.7512828,
57.019,0.5207909,
54.109,-3.1108042,
51.198,-1.807298,
48.288,5.8466878,
45.377,2.3297975,
42.466,1.6994387,
39.556,3.2203557,
36.645,5.3269264,
33.735,0.16326688,
30.824,-6.2294349,
27.914,-9.7353111,
25.003,-0.78543787,
22.092,1.3230499,
19.182,-5.7359913,
16.271,6.1553409,
13.361,60.185583,
10.450,130.51917,
7.539,145.88211,
4.629,9.9509318,
1.718,-227.6059,
-1.192,-574.78388,
-4.103,-524.93623,
-7.013,-323.66666,
-9.924,-2.125,
