,PL3EC8~1,
Wavenumbers [1/cm],Intensity,
3014.167,-1.375,
3011.256,-0.07493558,
3008.346,47.869869,
3005.435,51.858219,
3002.525,64.417506,
2999.614,70.427618,
2996.704,79.899228,
2993.793,68.120392,
2990.882,77.838707,
2987.972,76.60482,
2985.061,72.18165,
2982.151,79.551057,
2979.240,84.006165,
2976.329,88.862714,
2973.419,89.732573,
2970.508,102.02496,
2967.598,92.194879,
2964.687,94.131793,
2961.777,92.94111,
2958.866,105.29662,
2955.955,102.41924,
2953.045,116.87331,
2950.134,108.86991,
2947.224,107.27978,
2944.313,129.17557,
2941.403,132.97035,
2938.492,126.625,
2935.581,128.03359,
2932.671,125.74517,
2929.760,127.15962,
2926.850,130.46823,
2923.939,127.58293,
2921.028,136.93679,
2918.118,139.36429,
2915.207,129.5047,
2912.297,133.59538,
2909.386,140.82208,
2906.476,129.14468,
2903.565,148.85167,
2900.654,129.73118,
2897.744,144.42384,
2894.833,124.50137,
2891.923,118.625,
2889.012,126.03541,
2886.102,131.52366,
2883.191,111.63444,
2880.280,113.247,
2877.370,19.491518,
2874.459,-23.267937,
2871.549,31.178009,
2868.638,109.99403,
2865.727,121.70575,
2862.817,125.43917,
2859.906,134.28312,
2856.996,139.09103,
2854.085,165.11033,
2851.175,161.54976,
2848.264,153.82616,
2845.353,132.71127,
2842.443,144.21177,
2839.532,149.41608,
2836.622,135.11393,
2833.711,161.98765,
2830.801,161.43088,
2827.890,152.87676,
2824.979,167.40296,
2822.069,182.49991,
2819.158,165.16408,
2816.248,165.83158,
2813.337,176.33599,
2810.427,157.79442,
2807.516,166.46672,
2804.605,166.82933,
2801.695,167.05921,
2798.784,174.03362,
2795.874,156.32419,
2792.963,162.26766,
2790.052,176.62092,
2787.142,174.59877,
2784.231,174.39986,
2781.321,154.2536,
2778.410,167.35976,
2775.500,162.6688,
2772.589,174.77943,
2769.678,181.76835,
2766.768,178.0017,
2763.857,188.67702,
2760.947,184.6313,
2758.036,188.16642,
2755.126,184.86432,
2752.215,181.09318,
2749.304,185.85881,
2746.394,197.98993,
2743.483,205.52496,
2740.573,213.625,
2737.662,185.95488,
2734.751,180.83378,
2731.841,183.97665,
2728.930,188.66727,
2726.020,196.50752,
2723.109,187.19208,
2720.199,202.39071,
2717.288,194.97537,
2714.377,209.07484,
2711.467,203.00193,
2708.556,206.01868,
2705.646,209.54051,
2702.735,208.97037,
2699.825,210.35405,
2696.914,224.72094,
2694.003,220.36809,
2691.093,223.08949,
2688.182,220.22426,
2685.272,229.95217,
2682.361,207.47216,
2679.450,210.41098,
2676.540,211.11278,
2673.629,225.99724,
2670.719,215.04829,
2667.808,217.67364,
2664.898,232.18336,
2661.987,232.09158,
2659.076,215.53234,
2656.166,218.20511,
2653.255,214.99405,
2650.345,231.16947,
2647.434,230.39665,
2644.524,236.69454,
2641.613,240.48232,
2638.702,245.59344,
2635.792,234.71773,
2632.881,235.69655,
2629.971,248.94726,
2627.060,236.9575,
2624.149,244.54375,
2621.239,241.86759,
2618.328,239.11635,
2615.418,230.27955,
2612.507,256.10318,
2609.597,241.37949,
2606.686,237.74148,
2603.775,259.26786,
2600.865,266.33148,
2597.954,268.86457,
2595.044,263.38319,
2592.133,245.68236,
2589.223,262.78186,
2586.312,275.54966,
2583.401,258.82937,
2580.491,257.35096,
2577.580,265.63655,
2574.670,272.34826,
2571.759,276.02911,
2568.848,275.50896,
2565.938,276.57731,
2563.027,281.60003,
2560.117,258.73712,
2557.206,270.41836,
2554.296,277.9385,
2551.385,272.87298,
2548.474,310.03319,
2545.564,277.23943,
2542.653,291.25587,
2539.743,299.71126,
2536.832,288.09416,
2533.922,285.86154,
2531.011,301.44993,
2528.100,298.82708,
2525.190,308.85533,
2522.279,325.49945,
2519.369,300.21005,
2516.458,282.39412,
2513.548,312.2699,
2510.637,311.50203,
2507.726,307.43912,
2504.816,298.12443,
2501.905,301.11768,
2498.995,302.64022,
2496.084,317.39851,
2493.173,311.86175,
2490.263,310.42274,
2487.352,322.83367,
2484.442,327.3402,
2481.531,317.67296,
2478.621,318.8383,
2475.710,337.60966,
2472.799,332.41876,
2469.889,321.1707,
2466.978,326.11978,
2464.068,342.99013,
2461.157,330.00511,
2458.247,320.86041,
2455.336,341.21992,
2452.425,326.79479,
2449.515,333.88903,
2446.604,332.85538,
2443.694,342.95066,
2440.783,348.67342,
2437.872,344.60955,
2434.962,361.16879,
2432.051,347.30425,
2429.141,356.35447,
2426.230,356.49462,
2423.320,379.46788,
2420.409,367.65726,
2417.498,364.58288,
2414.588,352.55285,
2411.677,343.4856,
2408.767,367.13091,
2405.856,381.75826,
2402.946,375.40427,
2400.035,371.91843,
2397.124,365.76937,
2394.214,384.78581,
2391.303,371.01728,
2388.393,359.17381,
2385.482,347.02156,
2382.571,337.29594,
2379.661,329.67162,
2376.750,342.19875,
2373.840,379.80303,
2370.929,408.37592,
2368.019,387.27587,
2365.108,388.74018,
2362.197,395.44416,
2359.287,401.40662,
2356.376,421.5933,
2353.466,423.08053,
2350.555,408.22999,
2347.645,411.17731,
2344.734,415.98906,
2341.823,424.49233,
2338.913,426.73693,
2336.002,419.28771,
2333.092,406.8665,
2330.181,423.50474,
2327.270,407.94513,
2324.360,416.71694,
2321.449,436.625,
2318.539,437.1357,
2315.628,441.11221,
2312.718,447.92456,
2309.807,444.625,
2306.896,444.625,
2303.986,445.93021,
2301.075,448.24202,
2298.165,458.2021,
2295.254,441.05586,
2292.344,450.35941,
2289.433,460.96864,
2286.522,475.94633,
2283.612,483.48469,
2280.701,478.16312,
2277.791,475.38455,
2274.880,471.76496,
2271.969,483.10648,
2269.059,497.00376,
2266.148,492.68176,
2263.238,486.82577,
2260.327,480.69397,
2257.417,482.57389,
2254.506,494.12076,
2251.595,488.35602,
2248.685,509.24218,
2245.774,492.79033,
2242.864,494.46788,
2239.953,509.81115,
2237.043,515.55965,
2234.132,503.77047,
2231.221,502.0462,
2228.311,514.80282,
2225.400,510.96274,
2222.490,522.06798,
2219.579,524.75356,
2216.669,544.5773,
2213.758,535.70864,
2210.847,532.07335,
2207.937,544.1771,
2205.026,565.62529,
2202.116,553.42968,
2199.205,548.22453,
2196.294,554.25301,
2193.384,560.15101,
2190.473,549.8973,
2187.563,614.52833,
2184.652,591.61276,
2181.742,571.67009,
2178.831,587.48891,
2175.920,604.38456,
2173.010,626.80244,
2170.099,604.82886,
2167.189,620.82591,
2164.278,648.1848,
2161.368,645.625,
2158.457,640.54148,
2155.546,648.20003,
2152.636,633.14635,
2149.725,664.90013,
2146.815,669.75848,
2143.904,668.93725,
2140.993,701.18581,
2138.083,704.51864,
2135.172,683.72576,
2132.262,677.8838,
2129.351,704.28031,
2126.441,693.95504,
2123.530,696.625,
2120.619,692.35912,
2117.709,668.26188,
2114.798,669.79801,
2111.888,657.03766,
2108.977,649.17467,
2106.067,648.14176,
2103.156,664.46203,
2100.245,640.61559,
2097.335,628.63547,
2094.424,646.79541,
2091.514,637.48524,
2088.603,646.42222,
2085.692,652.9893,
2082.782,656.03865,
2079.871,655.80353,
2076.961,691.17104,
2074.050,667.025,
2071.140,636.75135,
2068.229,641.8086,
2065.318,652.63852,
2062.408,666.23847,
2059.497,671.85121,
2056.587,668.56706,
2053.676,669.34132,
2050.766,652.16461,
2047.855,643.25154,
2044.944,663.29488,
2042.034,656.28398,
2039.123,673.52736,
2036.213,678.05159,
2033.302,683.42891,
2030.391,683.15109,
2027.481,696.40524,
2024.570,706.46783,
2021.660,692.51194,
2018.749,696.29533,
2015.839,662.75951,
2012.928,670.98071,
2010.017,694.32641,
2007.107,685.76331,
2004.196,686.83932,
2001.286,708.31402,
1998.375,701.31594,
1995.465,654.50804,
1992.554,668.16596,
1989.643,671.625,
1986.733,681.78553,
1983.822,688.15159,
1980.912,698.23794,
1978.001,669.97195,
1975.090,701.39142,
1972.180,692.90296,
1969.269,670.19109,
1966.359,668.03037,
1963.448,706.80335,
1960.538,699.71424,
1957.627,671.44232,
1954.716,680.28028,
1951.806,697.97918,
1948.895,684.22219,
1945.985,677.89298,
1943.074,684.45536,
1940.164,669.69233,
1937.253,674.63798,
1934.342,680.64211,
1931.432,691.28431,
1928.521,685.93588,
1925.611,677.46268,
1922.700,698.78522,
1919.790,655.53307,
1916.879,682.97452,
1913.968,653.66435,
1911.058,714.77514,
1908.147,688.49215,
1905.237,683.45585,
1902.326,663.72427,
1899.415,653.32866,
1896.505,630.61274,
1893.594,636.24098,
1890.684,658.03689,
1887.773,673.54658,
1884.863,694.43593,
1881.952,721.22222,
1879.041,736.65096,
1876.131,731.10997,
1873.220,693.88592,
1870.310,722.04198,
1867.399,717.73696,
1864.489,683.5207,
1861.578,706.65239,
1858.667,719.2657,
1855.757,727.45078,
1852.846,710.43522,
1849.936,736.85824,
1847.025,710.98024,
1844.114,703.44148,
1841.204,735.13898,
1838.293,761.63664,
1835.383,730.03252,
1832.472,748.17283,
1829.562,744.6013,
1826.651,747.45454,
1823.740,754.44109,
1820.830,737.42013,
1817.919,733.43938,
1815.009,765.30566,
1812.098,767.03445,
1809.188,788.19859,
1806.277,752.46601,
1803.366,746.32555,
1800.456,731.09807,
1797.545,773.53281,
1794.635,778.04309,
1791.724,813.30463,
1788.813,803.22063,
1785.903,780.71421,
1782.992,747.8694,
1780.082,727.68334,
1777.171,669.93975,
1774.261,637.49074,
1771.350,723.39126,
1768.439,776.6278,
1765.529,814.08151,
1762.618,834.83814,
1759.708,810.92902,
1756.797,826.95834,
1753.887,855.77806,
1750.976,857.23887,
1748.065,856.02285,
1745.155,851.90241,
1742.244,872.4891,
1739.334,856.60618,
1736.423,858.04928,
1733.512,854.89327,
1730.602,872.56947,
1727.691,878.85734,
1724.781,883.34446,
1721.870,875.77257,
1718.960,926.24786,
1716.049,890.64242,
1713.138,890.17496,
1710.228,895.10619,
1707.317,891.20214,
1704.407,896.91378,
1701.496,920.41369,
1698.586,940.1807,
1695.675,934.13933,
1692.764,926.05123,
1689.854,917.97145,
1686.943,917.625,
1684.033,926.40147,
1681.122,920.72695,
1678.211,938.45369,
1675.301,968.5325,
1672.390,982.55322,
1669.480,958.79346,
1666.569,980.17092,
1663.659,1022.6903,
1660.748,1026.3936,
1657.837,1015.0624,
1654.927,1035.2342,
1652.016,1059.6044,
1649.106,1018.9677,
1646.195,1033.3683,
1643.285,1065.015,
1640.374,1123.6424,
1637.463,1078.5978,
1634.553,1131.6841,
1631.642,1136.3416,
1628.732,1201.8679,
1625.821,1242.6145,
1622.911,1226.7152,
1620.000,1286.8565,
1617.089,1352.3116,
1614.179,1369.1738,
1611.268,1420.6546,
1608.358,1458.8457,
1605.447,1536.997,
1602.536,1559.3309,
1599.626,1612.1412,
1596.715,1632.0542,
1593.805,1561.1841,
1590.894,1527.0856,
1587.984,1557.4026,
1585.073,1512.4268,
1582.162,1462.7156,
1579.252,1457.0799,
1576.341,1450.4154,
1573.431,1442.3596,
1570.520,1410.0499,
1567.610,1434.9,
1564.699,1406.7484,
1561.788,1424.7233,
1558.878,1388.7833,
1555.967,1357.697,
1553.057,1336.401,
1550.146,1324.1668,
1547.235,1327.3476,
1544.325,1363.9914,
1541.414,1349.1207,
1538.504,1326.9563,
1535.593,1331.3213,
1532.683,1326.8408,
1529.772,1331.0562,
1526.861,1327.6017,
1523.951,1323.1159,
1521.040,1321.8567,
1518.130,1329.8928,
1515.219,1355.7856,
1512.309,1332.1565,
1509.398,1322.914,
1506.487,1323.4599,
1503.577,1306.0945,
1500.666,1317.7589,
1497.756,1344.7609,
1494.845,1368.2637,
1491.934,1311.4581,
1489.024,1260.4459,
1486.113,1306.8402,
1483.203,1282.2036,
1480.292,1263.3518,
1477.382,1293.7632,
1474.471,1231.0261,
1471.560,1223.4127,
1468.650,1225.8919,
1465.739,1223.344,
1462.829,1256.6436,
1459.918,1271.3376,
1457.008,1250.4094,
1454.097,1259.2707,
1451.186,1264.832,
1448.276,1220.8662,
1445.365,1188.2308,
1442.455,1178.3647,
1439.544,1190.0355,
1436.633,1166.0898,
1433.723,1120.5978,
1430.812,1182.6645,
1427.902,1170.2868,
1424.991,1156.0703,
1422.081,1137.2755,
1419.170,1120.0719,
1416.259,1205.1118,
1413.349,1172.0029,
1410.438,1167.9208,
1407.528,1140.7942,
1404.617,1160.2012,
1401.707,1149.5292,
1398.796,1093.0237,
1395.885,1087.2945,
1392.975,1101.3952,
1390.064,1080.9827,
1387.154,1093.9518,
1384.243,1076.3832,
1381.332,1064.0757,
1378.422,1048.6784,
1375.511,991.53475,
1372.601,1055.1349,
1369.690,1129.2028,
1366.780,1156.4657,
1363.869,1187.5046,
1360.958,1177.8185,
1358.048,1230.5161,
1355.137,1282.5616,
1352.227,1300.2329,
1349.316,1324.8452,
1346.406,1337.6422,
1343.495,1324.6111,
1340.584,1343.0531,
1337.674,1371.7674,
1334.763,1366.5304,
1331.853,1416.6009,
1328.942,1460.4298,
1326.032,1461.5469,
1323.121,1485.0768,
1320.210,1533.5802,
1317.300,1547.7227,
1314.389,1591.9315,
1311.479,1626.7028,
1308.568,1609.3923,
1305.657,1608.6822,
1302.747,1642.855,
1299.836,1731.9076,
1296.926,1768.1295,
1294.015,1735.9532,
1291.105,1812.1127,
1288.194,1825.82,
1285.283,1843.0931,
1282.373,1859.1172,
1279.462,1856.3899,
1276.552,1875.6409,
1273.641,1878.6729,
1270.731,1860.7937,
1267.820,1921.9631,
1264.909,1910.6685,
1261.999,1874.1257,
1259.088,1860.4439,
1256.178,1877.6106,
1253.267,1870.6515,
1250.356,1830.376,
1247.446,1858.3897,
1244.535,1870.8036,
1241.625,1840.1287,
1238.714,1837.3908,
1235.804,1861.9114,
1232.893,1846.2537,
1229.982,1829.349,
1227.072,1821.2012,
1224.161,1857.6072,
1221.251,1825.9105,
1218.340,1776.9953,
1215.430,1797.8141,
1212.519,1807.0815,
1209.608,1778.9794,
1206.698,1784.9868,
1203.787,1796.8863,
1200.877,1777.9066,
1197.966,1798.5872,
1195.055,1814.9835,
1192.145,1900.2728,
1189.234,1925.0298,
1186.324,1987.4493,
1183.413,2002.2036,
1180.503,1986.676,
1177.592,2032.3418,
1174.681,1969.0051,
1171.771,1971.5426,
1168.860,1967.9702,
1165.950,1978.1068,
1163.039,1993.8947,
1160.129,1958.925,
1157.218,1972.449,
1154.307,2005.7522,
1151.397,1988.7531,
1148.486,2004.968,
1145.576,2045.1216,
1142.665,2010.493,
1139.754,2020.6431,
1136.844,2026.4262,
1133.933,2018.8274,
1131.023,1970.1364,
1128.112,1938.337,
1125.202,1971.6974,
1122.291,1993.8919,
1119.380,2037.5037,
1116.470,2025.1483,
1113.559,1995.788,
1110.649,1994.1735,
1107.738,2008.8772,
1104.828,2024.4504,
1101.917,2034.992,
1099.006,2042.027,
1096.096,2048.1412,
1093.185,2040.2392,
1090.275,2053.3826,
1087.364,2045.647,
1084.453,2042.3124,
1081.543,2017.77,
1078.632,2010.0099,
1075.722,2063.3683,
1072.811,2053.9353,
1069.901,2058.3016,
1066.990,2044.075,
1064.079,2055.5963,
1061.169,2083.0601,
1058.258,2114.8705,
1055.348,2137.0948,
1052.437,2127.9979,
1049.527,2065.0012,
1046.616,2100.6232,
1043.705,2096.1466,
1040.795,2114.0571,
1037.884,2120.0619,
1034.974,2112.3905,
1032.063,2110.0557,
1029.153,2114.4173,
1026.242,2112.6874,
1023.331,2124.2909,
1020.421,2137.7786,
1017.510,2153.8305,
1014.600,2172.7753,
1011.689,2182.634,
1008.778,2167.4936,
1005.868,2137.5478,
1002.957,2128.9442,
1000.047,2201.881,
997.136,2296.5801,
994.226,2325.7791,
991.315,2302.4072,
988.404,2295.4096,
985.494,2272.7044,
982.583,2231.5897,
979.673,2241.7212,
976.762,2231.1861,
973.852,2228.9072,
970.941,2232.3263,
968.030,2213.2262,
965.120,2216.8863,
962.209,2279.1219,
959.299,2257.7538,
956.388,2269.8234,
953.477,2295.3794,
950.567,2313.2977,
947.656,2341.0706,
944.746,2344.4689,
941.835,2335.7171,
938.925,2329.6767,
936.014,2335.7182,
933.103,2338.3286,
930.193,2322.4325,
927.282,2298.4957,
924.372,2314.5623,
921.461,2288.6418,
918.551,2290.2437,
915.640,2293.9506,
912.729,2277.4275,
909.819,2254.7404,
906.908,2293.492,
903.998,2294.0343,
901.087,2290.4425,
898.176,2310.0988,
895.266,2334.8946,
892.355,2341.0803,
889.445,2359.5442,
886.534,2401.3686,
883.624,2382.7117,
880.713,2372.6871,
877.802,2366.5928,
874.892,2320.7611,
871.981,2188.0086,
869.071,1992.522,
866.160,2013.1318,
863.250,2170.7725,
860.339,2303.7961,
857.428,2333.2774,
854.518,2363.603,
851.607,2293.7091,
848.697,2204.5895,
845.786,2172.2198,
842.875,2216.2213,
839.965,2312.3051,
837.054,2397.6343,
834.144,2398.4631,
831.233,2430.6227,
828.323,2474.8156,
825.412,2497.1857,
822.501,2485.4123,
819.591,2495.3291,
816.680,2469.1826,
813.770,2452.601,
810.859,2424.063,
807.949,2410.4056,
805.038,2444.7334,
802.127,2429.094,
799.217,2441.042,
796.306,2418.9491,
793.396,2427.8238,
790.485,2465.6229,
787.574,2436.4969,
784.664,2459.46,
781.753,2471.6768,
778.843,2484.9366,
775.932,2510.6741,
773.022,2543.5819,
770.111,2523.96,
767.200,2534.806,
764.290,2544.4038,
761.379,2522.6297,
758.469,2483.2528,
755.558,2487.2053,
752.648,2540.1546,
749.737,2531.0413,
746.826,2526.6859,
743.916,2506.5402,
741.005,2436.8084,
738.095,2438.4322,
735.184,2409.3076,
732.274,2366.0712,
729.363,2354.1003,
726.452,2397.4421,
723.542,2457.3372,
720.631,2530.9626,
717.721,2560.6448,
714.810,2576.5227,
711.899,2592.0606,
708.989,2589.6399,
706.078,2555.9703,
703.168,2559.1622,
700.257,2560.849,
697.347,2556.1029,
694.436,2569.0178,
691.525,2583.4863,
688.615,2558.9529,
685.704,2566.7998,
682.794,2589.7315,
679.883,2563.2201,
676.973,2620.9188,
674.062,2644.1105,
671.151,2642.7351,
668.241,2649.5406,
665.330,2701.3182,
662.420,2652.5956,
659.509,2636.9106,
656.598,2632.3268,
653.688,2628.3246,
650.777,2620.625,
647.867,2620.625,
644.956,2589.0483,
642.046,2548.0659,
639.135,2518.4634,
636.224,2522.0666,
633.314,2610.1938,
630.403,2650.3613,
627.493,2679.1402,
624.582,2695.2073,
621.672,2648.4796,
618.761,2697.5409,
615.850,2741.1744,
612.940,2771.1388,
610.029,2782.7315,
607.119,2765.3596,
604.208,2769.3051,
601.297,2801.5361,
598.387,2805.2548,
595.476,2739.9964,
592.566,2743.9317,
589.655,2786.09,
586.745,2815.1345,
583.834,2816.3787,
580.923,2790.6724,
578.013,2798.5197,
575.102,2782.2702,
572.192,2775.7707,
569.281,2789.4686,
566.371,2794.1643,
563.460,2791.0977,
560.549,2809.6034,
557.639,2837.0705,
554.728,2853.7874,
551.818,2840.522,
548.907,2833.3591,
545.996,2836.4568,
543.086,2838.2434,
540.175,2803.983,
537.265,2832.769,
534.354,2833.5878,
531.444,2832.378,
528.533,2860.053,
525.622,2894.1947,
522.712,2840.3429,
519.801,2801.3888,
516.891,2813.7369,
513.980,2868.7119,
511.070,2833.4772,
508.159,2834.7725,
505.248,2854.625,
502.338,2854.8735,
499.427,2863.3637,
496.517,2878.0694,
493.606,2899.4022,
490.695,2926.0485,
487.785,2950.6818,
484.874,2897.7573,
481.964,2867.8708,
479.053,2864.2931,
476.143,2842.0222,
473.232,2848.5384,
470.321,2852.1116,
467.411,2859.463,
464.500,2878.9268,
461.590,2851.3602,
458.679,2847.4771,
455.769,2853.1455,
452.858,2859.7385,
449.947,2870.4335,
447.037,2868.9844,
444.126,2865.1462,
441.216,2863.1542,
438.305,2866.2019,
435.395,2865.3137,
432.484,2869.626,
429.573,2869.5249,
426.663,2839.1193,
423.752,2630.8864,
420.842,2379.0448,
417.931,2166.0173,
415.020,2097.0068,
412.110,2426.7774,
409.199,2685.0552,
406.289,2812.1283,
403.378,2764.5072,
400.468,2729.7314,
397.557,2705.2571,
394.646,2727.6399,
391.736,2822.7457,
388.825,2826.5169,
385.915,2855.2991,
383.004,2876.1985,
380.094,2870.8497,
377.183,2934.0577,
374.272,2939.6838,
371.362,2932.5683,
368.451,2939.0323,
365.541,2929.2753,
362.630,2937.0036,
359.719,2943.8492,
356.809,2937.4502,
353.898,2901.5079,
350.988,2923.0892,
348.077,2941.4936,
345.167,2921.0952,
342.256,2910.6363,
339.345,2954.9225,
336.435,2986.9093,
333.524,2960.1218,
330.614,2912.4318,
327.703,2929.9695,
324.793,2956.7581,
321.882,2945.6106,
318.971,2939.663,
316.061,2955.2043,
313.150,2988.6369,
310.240,3036.8744,
307.329,3022.903,
304.418,3028.9357,
301.508,3043.8219,
298.597,3044.5623,
295.687,3088.6456,
292.776,3103.7916,
289.866,3113.218,
286.955,3196.694,
284.044,3229.4975,
281.134,3284.5784,
278.223,3357.7328,
275.313,3358.4696,
272.402,3366.1767,
269.492,3358.0003,
266.581,3327.4163,
263.670,3310.5072,
260.760,3367.7886,
257.849,3422.3154,
254.939,3415.7104,
252.028,3414.9012,
249.117,3384.0176,
246.207,3365.619,
243.296,3435.1625,
240.386,3426.3002,
237.475,3421.4669,
234.565,3422.3334,
231.654,3388.7358,
228.743,3353.432,
225.833,3293.5983,
222.922,3206.9352,
220.012,3256.477,
217.101,3240.2378,
214.191,3188.2659,
211.280,3127.1591,
208.369,3091.6756,
205.459,3059.058,
202.548,3033.1264,
199.638,3036.029,
196.727,2996.2899,
193.816,2982.2782,
190.906,3014.9173,
187.995,2909.2098,
185.085,2848.5094,
182.174,2813.5938,
179.264,2783.9604,
176.353,2733.2074,
173.442,2707.3501,
170.532,2695.3519,
167.621,2581.4377,
164.711,2500.6961,
161.800,2373.5396,
158.890,2133.1506,
155.979,1992.8992,
153.068,1819.8079,
150.158,1610.0949,
147.247,1365.9911,
144.337,1132.6228,
141.426,889.75233,
138.516,626.65325,
135.605,455.13471,
132.694,316.54312,
129.784,209.10614,
126.873,139.73854,
123.963,88.066371,
121.052,55.092372,
118.141,43.66994,
115.231,37.940437,
112.320,32.659549,
109.410,29.034066,
106.499,31.170531,
103.589,25.462201,
100.678,18.452026,
97.767,12.764526,
94.857,14.703967,
91.946,19.252998,
89.036,24.286306,
86.125,22.15869,
83.215,21.09408,
80.304,17.272942,
77.393,7.3585633,
74.483,14.486619,
71.572,17.175592,
68.662,14.486465,
65.751,13.073563,
62.840,8.7713841,
59.930,4.8122862,
57.019,5.5173682,
54.109,5.0278392,
51.198,6.4346557,
48.288,10.591025,
45.377,6.3707569,
42.466,5.0372193,
39.556,5.625,
36.645,5.625,
33.735,7.7019939,
30.824,7.4161303,
27.914,0.40437781,
25.003,4.6060998,
22.092,6.0104772,
19.182,3.0140087,
16.271,14.905341,
13.361,54.606012,
10.450,113.92284,
7.539,179.56448,
4.629,33.466308,
1.718,-207.25381,
-1.192,-493.78022,
-4.103,-482.97678,
-7.013,-314.65287,
-9.924,0.625,
