,PLBD77~1,
Raman shift [1/cm],Intensity,
3014.167,1.125,
3011.256,-1.5250322,
3008.346,51.369869,
3005.435,71.276941,
3002.525,68.465045,
2999.614,69.837991,
2996.704,70.080671,
2993.793,77.514976,
2990.882,67.819647,
2987.972,90.08464,
2985.061,85.671803,
2982.151,93.647692,
2979.240,67.470025,
2976.329,100.13592,
2973.419,97.678787,
2970.508,89.02506,
2967.598,105.26837,
2964.687,105.73709,
2961.777,101.31302,
2958.866,118.14579,
2955.955,99.990032,
2953.045,112.30845,
2950.134,113.73142,
2947.224,121.09653,
2944.313,116.08013,
2941.403,126.76825,
2938.492,135.59385,
2935.581,134.40479,
2932.671,149.24517,
2929.760,135.69036,
2926.850,114.5953,
2923.939,142.44745,
2921.028,147.99573,
2918.118,140.68419,
2915.207,145.30868,
2912.297,142.17154,
2909.386,143.31478,
2906.476,145.57443,
2903.565,145.6576,
2900.654,148.07746,
2897.744,136.21301,
2894.833,141.06318,
2891.923,139.7468,
2889.012,141.08454,
2886.102,141.35337,
2883.191,119.1486,
2880.280,121.747,
2877.370,82.933206,
2874.459,75.401964,
2871.549,123.17774,
2868.638,138.71675,
2865.727,152.80961,
2862.817,156.31083,
2859.906,149.01104,
2856.996,151.60915,
2854.085,158.64601,
2851.175,157.29068,
2848.264,151.48283,
2845.353,150.2544,
2842.443,160.11804,
2839.532,156.81162,
2836.622,151.58008,
2833.711,158.85813,
2830.801,161.32647,
2827.890,152.4799,
2824.979,164.47094,
2822.069,162.03402,
2819.158,156.78538,
2816.248,158.88368,
2813.337,161.7128,
2810.427,172.69112,
2807.516,162.70781,
2804.605,149.59857,
2801.695,169.91449,
2798.784,163.086,
2795.874,169.55508,
2792.963,164.26777,
2790.052,163.12479,
2787.142,161.19081,
2784.231,167.38276,
2781.321,149.19362,
2778.410,164.71003,
2775.500,152.63707,
2772.589,167.47133,
2769.678,169.66084,
2766.768,170.7483,
2763.857,166.38897,
2760.947,166.58402,
2758.036,174.52636,
2755.126,168.44979,
2752.215,188.9977,
2749.304,171.42358,
2746.394,163.72375,
2743.483,179.87499,
2740.573,184.78652,
2737.662,180.56139,
2734.751,172.89202,
2731.841,176.47665,
2728.930,173.00215,
2726.020,183.58449,
2723.109,178.27992,
2720.199,180.84996,
2717.288,188.21259,
2714.377,184.7709,
2711.467,192.66567,
2708.556,190.44458,
2705.646,189.49123,
2702.735,183.14048,
2699.825,186.38677,
2696.914,195.98276,
2694.003,184.63882,
2691.093,179.64246,
2688.182,179.81685,
2685.272,194.24876,
2682.361,180.97216,
2679.450,188.86569,
2676.540,194.2063,
2673.629,199.45235,
2670.719,200.19801,
2667.808,200.07636,
2664.898,202.04718,
2661.987,194.99164,
2659.076,205.47197,
2656.166,203.125,
2653.255,202.16241,
2650.345,208.96529,
2647.434,210.49596,
2644.524,193.125,
2641.613,196.55366,
2638.702,204.03031,
2635.792,203.28153,
2632.881,208.63083,
2629.971,216.74247,
2627.060,220.29156,
2624.149,210.55939,
2621.239,212.40316,
2618.328,208.439,
2615.418,233.14772,
2612.507,206.37012,
2609.597,211.56412,
2606.686,213.65714,
2603.775,225.56548,
2600.865,208.01231,
2597.954,222.50831,
2595.044,226.49081,
2592.133,220.34794,
2589.223,233.60712,
2586.312,232.75818,
2583.401,228.36953,
2580.491,223.8654,
2577.580,229.12335,
2574.670,228.95521,
2571.759,235.52911,
2568.848,231.71612,
2565.938,245.07745,
2563.027,234.02728,
2560.117,227.67639,
2557.206,244.11024,
2554.296,241.752,
2551.385,239.94305,
2548.474,253.16218,
2545.564,242.56818,
2542.653,242.44043,
2539.743,244.19894,
2536.832,247.18669,
2533.922,261.98308,
2531.011,250.10026,
2528.100,248.52223,
2525.190,240.68525,
2522.279,251.98431,
2519.369,247.61566,
2516.458,248.01664,
2513.548,257.59764,
2510.637,251.18648,
2507.726,255.55995,
2504.816,250.74844,
2501.905,248.42927,
2498.995,255.52781,
2496.084,246.125,
2493.173,248.3356,
2490.263,252.51822,
2487.352,251.54233,
2484.442,263.68816,
2481.531,265.91228,
2478.621,264.42833,
2475.710,268.20168,
2472.799,275.90529,
2469.889,272.51836,
2466.978,275.40336,
2464.068,270.33662,
2461.157,289.8901,
2458.247,267.43377,
2455.336,274.97433,
2452.425,273.2099,
2449.515,271.73831,
2446.604,277.53513,
2443.694,280.70642,
2440.783,264.93131,
2437.872,270.38025,
2434.962,279.48905,
2432.051,288.56332,
2429.141,294.68378,
2426.230,290.51615,
2423.320,284.22486,
2420.409,289.7468,
2417.498,282.54353,
2414.588,298.56217,
2411.677,300.125,
2408.767,297.08957,
2405.856,290.00118,
2402.946,294.17862,
2400.035,297.82219,
2397.124,292.2373,
2394.214,297.99099,
2391.303,302.76592,
2388.393,311.56224,
2385.482,309.43343,
2382.571,299.64421,
2379.661,296.21795,
2376.750,310.64958,
2373.840,296.51571,
2370.929,314.86509,
2368.019,321.3904,
2365.108,318.07788,
2362.197,327.11131,
2359.287,326.73001,
2356.376,295.17959,
2353.466,336.36819,
2350.555,331.84024,
2347.645,336.79653,
2344.734,320.51668,
2341.823,339.74359,
2338.913,323.94739,
2336.002,323.86662,
2333.092,328.50425,
2330.181,336.40632,
2327.270,331.51004,
2324.360,321.45284,
2321.449,324.88012,
2318.539,346.23204,
2315.628,353.91477,
2312.718,326.86067,
2309.807,347.26163,
2306.896,346.60543,
2303.986,338.25486,
2301.075,337.74202,
2298.165,359.67348,
2295.254,326.96518,
2292.344,350.97153,
2289.433,343.53046,
2286.522,362.125,
2283.612,358.67474,
2280.701,361.45235,
2277.791,378.84261,
2274.880,352.61892,
2271.969,370.67233,
2269.059,377.03509,
2266.148,385.96139,
2263.238,363.83544,
2260.327,365.6768,
2257.417,373.83667,
2254.506,375.31588,
2251.595,371.27047,
2248.685,385.32879,
2245.774,370.40008,
2242.864,376.73598,
2239.953,370.89742,
2237.043,378.69713,
2234.132,379.46012,
2231.221,378.36277,
2228.311,386.47422,
2225.400,371.96936,
2222.490,401.31067,
2219.579,402.125,
2216.669,400.63215,
2213.758,401.08187,
2210.847,414.21566,
2207.937,420.96213,
2205.026,398.45765,
2202.116,413.7163,
2199.205,411.54947,
2196.294,430.55498,
2193.384,416.52047,
2190.473,421.8527,
2187.563,429.01866,
2184.652,411.49275,
2181.742,437.60246,
2178.831,446.84098,
2175.920,457.03939,
2173.010,460.57511,
2170.099,477.58979,
2167.189,511.17523,
2164.278,522.52701,
2161.368,547.26796,
2158.457,559.95195,
2155.546,593.57887,
2152.636,612.48668,
2149.725,619.45386,
2146.815,624.95816,
2143.904,646.12129,
2140.993,642.47943,
2138.083,671.43193,
2135.172,673.77194,
2132.262,679.90845,
2129.351,679.02146,
2126.441,643.20258,
2123.530,654.95664,
2120.619,635.85912,
2117.709,596.99537,
2114.798,556.13261,
2111.888,527.18829,
2108.977,508.85348,
2106.067,515.70878,
2103.156,513.72582,
2100.245,471.11747,
2097.335,459.84751,
2094.424,462.97085,
2091.514,451.83464,
2088.603,459.31388,
2085.692,459.57491,
2082.782,440.34995,
2079.871,437.94647,
2076.961,464.31682,
2074.050,421.53106,
2071.140,446.87231,
2068.229,435.66927,
2065.318,443.63176,
2062.408,442.79899,
2059.497,438.3393,
2056.587,413.33478,
2053.676,421.54042,
2050.766,433.50915,
2047.855,423.78002,
2044.944,444.52885,
2042.034,434.59899,
2039.123,431.02399,
2036.213,422.8939,
2033.302,422.95112,
2030.391,406.31184,
2027.481,422.67355,
2024.570,434.49634,
2021.660,406.89888,
2018.749,402.31495,
2015.839,408.47015,
2012.928,416.4354,
2010.017,416.72218,
2007.107,418.35677,
2004.196,409.02975,
2001.286,411.77163,
1998.375,406.38287,
1995.465,383.24643,
1992.554,382.50732,
1989.643,409.19178,
1986.733,420.39605,
1983.822,375.79265,
1980.912,394.70888,
1978.001,370.58324,
1975.090,357.07158,
1972.180,379.57314,
1969.269,368.10484,
1966.359,375.63874,
1963.448,381.47242,
1960.538,370.38688,
1957.627,398.44081,
1954.716,379.78572,
1951.806,346.06245,
1948.895,379.93679,
1945.985,362.41422,
1943.074,370.99229,
1940.164,360.44254,
1937.253,380.41628,
1934.342,383.13356,
1931.432,361.6108,
1928.521,346.42379,
1925.611,355.05349,
1922.700,369.99654,
1919.790,321.44928,
1916.879,330.79976,
1913.968,358.09303,
1911.058,330.60547,
1908.147,315.236,
1905.237,342.81609,
1902.326,299.98128,
1899.415,321.74939,
1896.505,329.47443,
1893.594,320.85971,
1890.684,324.71311,
1887.773,318.44456,
1884.863,316.43252,
1881.952,351.62974,
1879.041,333.62188,
1876.131,338.78382,
1873.220,313.3594,
1870.310,310.05325,
1867.399,263.8767,
1864.489,322.70915,
1861.578,334.41642,
1858.667,309.88547,
1855.757,327.69779,
1852.846,355.86347,
1849.936,345.19508,
1847.025,333.30262,
1844.114,327.32029,
1841.204,331.98864,
1838.293,330.13997,
1835.383,316.753,
1832.472,307.19457,
1829.562,329.95469,
1826.651,358.11677,
1823.740,354.66138,
1820.830,351.89666,
1817.919,337.46622,
1815.009,358.95578,
1812.098,369.40846,
1809.188,334.48167,
1806.277,351.68236,
1803.366,320.12317,
1800.456,376.70688,
1797.545,336.96888,
1794.635,355.89901,
1791.724,359.63958,
1788.813,357.13143,
1785.903,368.21421,
1782.992,345.29492,
1780.082,361.52248,
1777.171,356.45637,
1774.261,343.64989,
1771.350,340.06125,
1768.439,355.08328,
1765.529,361.30648,
1762.618,363.95626,
1759.708,383.94037,
1756.797,395.43561,
1753.887,397.07398,
1750.976,377.71794,
1748.065,379.3293,
1745.155,370.32514,
1742.244,370.38132,
1739.334,371.33206,
1736.423,376.19041,
1733.512,380.58029,
1730.602,417.02981,
1727.691,416.84243,
1724.781,411.55185,
1721.870,394.2249,
1718.960,413.96973,
1716.049,420.80295,
1713.138,420.27,
1710.228,420.9953,
1707.317,402.549,
1704.407,401.92179,
1701.496,403.03655,
1698.586,415.1368,
1695.675,393.66799,
1692.764,390.23156,
1689.854,436.04629,
1686.943,393.67638,
1684.033,430.15639,
1681.122,420.31192,
1678.211,439.93465,
1675.301,472.02633,
1672.390,443.25958,
1669.480,487.97258,
1666.569,468.75682,
1663.659,440.99062,
1660.748,492.58511,
1657.837,465.36557,
1654.927,476.94502,
1652.016,510.49322,
1649.106,485.34533,
1646.195,494.86827,
1643.285,525.30729,
1640.374,532.43511,
1637.463,501.58418,
1634.553,580.94767,
1631.642,569.27701,
1628.732,583.26721,
1625.821,607.12827,
1622.911,612.09682,
1620.000,700.00371,
1617.089,741.30908,
1614.179,834.4459,
1611.268,858.30709,
1608.358,904.87749,
1605.447,938.23954,
1602.536,953.17142,
1599.626,990.92231,
1596.715,972.34257,
1593.805,968.33634,
1590.894,1019.2039,
1587.984,1023.5267,
1585.073,948.25312,
1582.162,938.46454,
1579.252,933.39689,
1576.341,920.91011,
1573.431,909.51008,
1570.520,873.49241,
1567.610,878.02719,
1564.699,846.14848,
1561.788,837.75875,
1558.878,808.03513,
1555.967,798.41032,
1553.057,778.79764,
1550.146,752.60503,
1547.235,747.07663,
1544.325,722.545,
1541.414,704.28523,
1538.504,706.125,
1535.593,671.55408,
1532.683,646.15046,
1529.772,649.2064,
1526.861,639.74596,
1523.951,657.7975,
1521.040,654.4599,
1518.130,609.92928,
1515.219,616.40498,
1512.309,621.33673,
1509.398,625.10234,
1506.487,589.04642,
1503.577,574.24328,
1500.666,575.05702,
1497.756,619.15005,
1494.845,581.4841,
1491.934,542.25729,
1489.024,582.68199,
1486.113,552.59967,
1483.203,510.15745,
1480.292,486.45775,
1477.382,476.65901,
1474.471,501.21589,
1471.560,506.22234,
1468.650,479.84387,
1465.739,463.00108,
1462.829,408.7987,
1459.918,407.82695,
1457.008,455.94065,
1454.097,479.82226,
1451.186,451.272,
1448.276,406.23191,
1445.365,403.62421,
1442.455,388.65861,
1439.544,394.54016,
1436.633,451.84199,
1433.723,387.75415,
1430.812,379.30712,
1427.902,393.83185,
1424.991,381.51094,
1422.081,406.81436,
1419.170,363.3298,
1416.259,313.19166,
1413.349,340.88705,
1410.438,344.72764,
1407.528,312.15662,
1404.617,307.28044,
1401.707,323.60405,
1398.796,307.99569,
1395.885,290.39279,
1392.975,299.99991,
1390.064,295.24207,
1387.154,288.91911,
1384.243,259.43243,
1381.332,188.21962,
1378.422,225.81059,
1375.511,316.67834,
1372.601,308.9093,
1369.690,419.56392,
1366.780,404.85952,
1363.869,423.73113,
1360.958,451.95084,
1358.048,462.90494,
1355.137,483.04963,
1352.227,516.13817,
1349.316,549.9005,
1346.406,573.44431,
1343.495,590.0693,
1340.584,645.44591,
1337.674,686.95066,
1334.763,753.04242,
1331.853,777.15042,
1328.942,765.6725,
1326.032,776.35931,
1323.121,825.80576,
1320.210,836.13171,
1317.300,848.47103,
1314.389,861.69449,
1311.479,880.28993,
1308.568,924.83161,
1305.657,950.82946,
1302.747,926.10898,
1299.836,998.89901,
1296.926,1042.7315,
1294.015,1098.8102,
1291.105,1124.0191,
1288.194,1180.6408,
1285.283,1204.149,
1282.373,1249.8905,
1279.462,1287.8502,
1276.552,1320.0306,
1273.641,1350.5783,
1270.731,1356.7145,
1267.820,1342.178,
1264.909,1327.4877,
1261.999,1331.2901,
1259.088,1363.2143,
1256.178,1348.8523,
1253.267,1350.7282,
1250.356,1314.1988,
1247.446,1246.8399,
1244.535,1201.7188,
1241.625,1191.125,
1238.714,1182.7182,
1235.804,1165.4357,
1232.893,1166.5056,
1229.982,1140.6344,
1227.072,1126.1494,
1224.161,1099.9099,
1221.251,1092.147,
1218.340,1037.3566,
1215.430,1029.5959,
1212.519,1042.1446,
1209.608,1030.455,
1206.698,1033.4019,
1203.787,1069.7883,
1200.877,1058.8523,
1197.966,1086.7263,
1195.055,1160.6511,
1192.145,1162.6062,
1189.234,1166.2617,
1186.324,1215.9476,
1183.413,1245.7341,
1180.503,1231.4152,
1177.592,1218.7815,
1174.681,1203.5325,
1171.771,1219.9808,
1168.860,1213.7291,
1165.950,1185.7112,
1163.039,1174.2362,
1160.129,1182.7424,
1157.218,1195.8938,
1154.307,1197.3017,
1151.397,1184.6935,
1148.486,1163.5832,
1145.576,1118.1703,
1142.665,1188.3154,
1139.754,1160.7662,
1136.844,1129.3147,
1133.933,1132.6146,
1131.023,1159.1205,
1128.112,1162.0559,
1125.202,1130.468,
1122.291,1121.2476,
1119.380,1115.584,
1116.470,1162.3581,
1113.559,1171.9912,
1110.649,1177.0541,
1107.738,1200.0219,
1104.828,1215.2123,
1101.917,1200.1778,
1099.006,1180.2589,
1096.096,1208.3725,
1093.185,1196.0804,
1090.275,1194.3157,
1087.364,1192.7528,
1084.453,1206.7491,
1081.543,1213.7428,
1078.632,1197.1562,
1075.722,1177.4504,
1072.811,1196.7455,
1069.901,1205.4781,
1066.990,1217.4416,
1064.079,1255.5117,
1061.169,1259.9744,
1058.258,1261.1356,
1055.348,1272.0096,
1052.437,1265.5688,
1049.527,1284.8369,
1046.616,1329.1472,
1043.705,1312.5436,
1040.795,1308.679,
1037.884,1321.2512,
1034.974,1326.5387,
1032.063,1328.5708,
1029.153,1361.6975,
1026.242,1333.154,
1023.331,1341.2911,
1020.421,1341.0337,
1017.510,1350.7702,
1014.600,1371.39,
1011.689,1397.5323,
1008.778,1422.2979,
1005.868,1429.3953,
1002.957,1459.5077,
1000.047,1508.533,
997.136,1544.5067,
994.226,1550.0944,
991.315,1541.0384,
988.404,1545.0706,
985.494,1553.9358,
982.583,1500.8294,
979.673,1528.9757,
976.762,1531.5572,
973.852,1536.5013,
970.941,1545.0119,
968.030,1526.1712,
965.120,1515.0999,
962.209,1509.1321,
959.299,1493.96,
956.388,1506.6038,
953.477,1519.8919,
950.567,1519.6935,
947.656,1524.2364,
944.746,1525.086,
941.835,1552.6587,
938.925,1543.9898,
936.014,1524.491,
933.103,1516.3028,
930.193,1519.3284,
927.282,1508.3541,
924.372,1512.5822,
921.461,1483.669,
918.551,1475.4487,
915.640,1468.2012,
912.729,1462.0288,
909.819,1476.9017,
906.908,1467.6351,
903.998,1472.6925,
901.087,1462.6679,
898.176,1472.3496,
895.266,1491.0772,
892.355,1503.4909,
889.445,1558.8826,
886.534,1537.4183,
883.624,1531.7793,
880.713,1538.27,
877.802,1546.862,
874.892,1544.9773,
871.981,1522.0461,
869.071,1518.7044,
866.160,1516.0551,
863.250,1537.1415,
860.339,1548.5336,
857.428,1535.0381,
854.518,1543.3416,
851.607,1550.8303,
848.697,1504.6656,
845.786,1491.9474,
842.875,1509.5628,
839.965,1525.6881,
837.054,1519.5995,
834.144,1561.8658,
831.233,1556.7926,
828.323,1545.6739,
825.412,1539.5152,
822.501,1528.9759,
819.591,1489.3087,
816.680,1500.9455,
813.770,1498.4865,
810.859,1468.0506,
807.949,1443.9446,
805.038,1466.1294,
802.127,1457.8981,
799.217,1460.1066,
796.306,1441.8276,
793.396,1430.2395,
790.485,1445.2329,
787.574,1481.2256,
784.664,1431.1988,
781.753,1464.397,
778.843,1455.23,
775.932,1444.495,
773.022,1491.393,
770.111,1499.5688,
767.200,1484.8988,
764.290,1487.0595,
761.379,1500.3962,
758.469,1498.0578,
755.558,1441.6113,
752.648,1457.9033,
749.737,1416.7353,
746.826,1383.8006,
743.916,1357.4884,
741.005,1305.5702,
738.095,1203.2737,
735.184,1087.4413,
732.274,1055.0653,
729.363,1126.6726,
726.452,1275.0749,
723.542,1402.1496,
720.631,1438.1775,
717.721,1459.1548,
714.810,1470.4091,
711.899,1471.8676,
708.989,1462.1845,
706.078,1469.3367,
703.168,1470.5178,
700.257,1457.3353,
697.347,1443.255,
694.436,1457.7758,
691.525,1444.915,
688.615,1468.5393,
685.704,1459.0868,
682.794,1428.4654,
679.883,1436.6657,
676.973,1448.6862,
674.062,1458.1439,
671.151,1454.2351,
668.241,1431.7361,
665.330,1394.0914,
662.420,1435.6255,
659.509,1449.2044,
656.598,1447.7975,
653.688,1437.2941,
650.777,1422.8532,
647.867,1473.8181,
644.956,1460.359,
642.046,1440.5644,
639.135,1430.9809,
636.224,1419.3279,
633.314,1459.8188,
630.403,1463.6217,
627.493,1465.2702,
624.582,1478.4799,
621.672,1493.5277,
618.761,1488.8054,
615.850,1502.5527,
612.940,1501.1221,
610.029,1474.388,
607.119,1475.9673,
604.208,1530.796,
601.297,1533.1843,
598.387,1500.5132,
595.476,1471.4277,
592.566,1495.8268,
589.655,1477.4488,
586.745,1466.4269,
583.834,1473.8342,
580.923,1493.7838,
578.013,1437.283,
575.102,1410.0796,
572.192,1426.8495,
569.281,1471.5784,
566.371,1462.9695,
563.460,1476.2344,
560.549,1482.6123,
557.639,1484.4678,
554.728,1491.2784,
551.818,1541.2186,
548.907,1541.765,
545.996,1543.2896,
543.086,1551.2599,
540.175,1528.6792,
537.265,1551.7505,
534.354,1547.5794,
531.444,1543.0421,
528.533,1564.5799,
525.622,1542.8534,
522.712,1579.3842,
519.801,1601.9243,
516.891,1591.0559,
513.980,1570.9242,
511.070,1578.2815,
508.159,1604.0931,
505.248,1636.8877,
502.338,1663.3735,
499.427,1671.8637,
496.517,1711.4583,
493.606,1739.452,
490.695,1736.9482,
487.785,1728.4805,
484.874,1725.1863,
481.964,1721.2181,
479.053,1715.838,
476.143,1710.4623,
473.232,1717.319,
470.321,1717.6921,
467.411,1710.3131,
464.500,1696.5129,
461.590,1711.8277,
458.679,1730.983,
455.769,1738.084,
452.858,1722.8301,
449.947,1681.5778,
447.037,1682.8332,
444.126,1716.1129,
441.216,1759.6115,
438.305,1745.1348,
435.395,1730.6679,
432.484,1731.6265,
429.573,1744.4325,
426.663,1754.3144,
423.752,1717.4644,
420.842,1688.7945,
417.931,1687.6995,
415.020,1735.4761,
412.110,1771.5108,
409.199,1797.3279,
406.289,1801.0398,
403.378,1769.9662,
400.468,1723.0945,
397.557,1745.6579,
394.646,1776.0074,
391.736,1760.9419,
388.825,1723.9846,
385.915,1691.3051,
383.004,1676.9792,
380.094,1692.7336,
377.183,1763.4663,
374.272,1784.2106,
371.362,1800.43,
368.451,1839.4046,
365.541,1876.9314,
362.630,1887.125,
359.719,1878.5419,
356.809,1859.8921,
353.898,1889.0952,
350.988,1883.5628,
348.077,1889.8399,
345.167,1931.4978,
342.256,1899.3739,
339.345,1887.4678,
336.435,1893.1752,
333.524,1913.162,
330.614,1882.6106,
327.703,1874.6652,
324.793,1878.7029,
321.882,1886.1034,
318.971,1877.1821,
316.061,1902.4472,
313.150,1924.9655,
310.240,1901.9599,
307.329,1919.7056,
304.418,1913.4464,
301.508,1891.6111,
298.597,1870.8795,
295.687,1809.5278,
292.776,1807.3751,
289.866,1872.1493,
286.955,2005.1199,
284.044,2067.7675,
281.134,2118.3046,
278.223,2163.1728,
275.313,2177.1731,
272.402,2237.0535,
269.492,2283.8284,
266.581,2295.2316,
263.670,2282.7336,
260.760,2302.1099,
257.849,2332.3636,
254.939,2358.7834,
252.028,2364.1919,
249.117,2371.1501,
246.207,2374.2838,
243.296,2363.3033,
240.386,2354.9421,
237.475,2331.5315,
234.565,2300.5851,
231.654,2303.5067,
228.743,2259.8217,
225.833,2236.5768,
222.922,2256.4603,
220.012,2220.7611,
217.101,2190.9685,
214.191,2169.7208,
211.280,2161.7187,
208.369,2149.6872,
205.459,2148.1175,
202.548,2146.228,
199.638,2100.5121,
196.727,2133.765,
193.816,2151.88,
190.906,2121.5567,
187.995,2133.8651,
185.085,2156.5664,
182.174,2177.9085,
179.264,2180.7996,
176.353,2159.3385,
173.442,2151.8383,
170.532,2160.629,
167.621,2164.9549,
164.711,2102.5313,
161.800,2020.5485,
158.890,1948.5758,
155.979,1829.4087,
153.068,1680.4702,
150.158,1503.9465,
147.247,1297.1763,
144.337,1071.0075,
141.426,837.1472,
138.516,599.8562,
135.605,434.29825,
132.694,301.43364,
129.784,199.30298,
126.873,133.51104,
123.963,89.964283,
121.052,62.025794,
118.141,49.175558,
115.231,39.177015,
112.320,33.430456,
109.410,31.397711,
106.499,32.822021,
103.589,26.962201,
100.678,20.223648,
97.767,15.247085,
94.857,15.125,
91.946,14.318778,
89.036,13.802387,
86.125,18.057619,
83.215,12.753956,
80.304,9.5193268,
77.393,16.601026,
74.483,10.57365,
71.572,8.2120563,
68.662,9.3630575,
65.751,1.5920956,
62.840,4.9054238,
59.930,9.8139966,
57.019,4.8784227,
54.109,5.3193217,
51.198,7.3314371,
48.288,10.10235,
45.377,7.288838,
42.466,4.888342,
39.556,3.0098814,
36.645,2.3076912,
33.735,4.7212423,
30.824,5.1370172,
27.914,-1.17356,
25.003,1.2381874,
22.092,2.8020954,
19.182,1.621577,
16.271,-13.767206,
13.361,-21.560832,
10.450,-77.960391,
7.539,-392.20231,
4.629,-690.21516,
1.718,-937.77658,
-1.192,-1084.1769,
-4.103,-749.21136,
-7.013,-362.17532,
-9.924,1.125,
