,PL2D4B~1,
Wavenumbers [1/cm],Intensity,
3014.167,2,
3011.256,2.6500322,
3008.346,85.509083,
3005.435,91.388698,
3002.525,103.86745,
2999.614,110.75327,
2996.704,118.50413,
2993.793,109.13306,
2990.882,113.73277,
2987.972,135.92937,
2985.061,117.5665,
2982.151,126.09077,
2979.240,135.59694,
2976.329,147.49181,
2973.419,154.60026,
2970.508,152.01662,
2967.598,142.37871,
2964.687,142.8947,
2961.777,152.47004,
2958.866,162.98664,
2955.955,158.23454,
2953.045,167.03581,
2950.134,181.96792,
2947.224,162.05335,
2944.313,198.44943,
2941.403,198.13093,
2938.492,202.42547,
2935.581,210.15581,
2932.671,202.24468,
2929.760,220.65384,
2926.850,209.36579,
2923.939,223.32245,
2921.028,217.31179,
2918.118,219.55919,
2915.207,204.75939,
2912.297,207.96192,
2909.386,223.81022,
2906.476,207.03935,
2903.565,210.4674,
2900.654,201.93025,
2897.744,199.97486,
2894.833,191.40218,
2891.923,186.0545,
2889.012,172.24278,
2886.102,179.69056,
2883.191,127.03965,
2880.280,64.095659,
2877.370,-152.98791,
2874.459,-266.3266,
2871.549,-88.89345,
2868.638,117.01227,
2865.727,136.02692,
2862.817,158.40105,
2859.906,186.93732,
2856.996,207.97283,
2854.085,221.04203,
2851.175,209.66864,
2848.264,224.49516,
2845.353,205.58231,
2842.443,226.80905,
2839.532,219.77611,
2836.622,215.08984,
2833.711,205.79277,
2830.801,212.79118,
2827.890,210.52274,
2824.979,213.58004,
2822.069,204.2843,
2819.158,227.47978,
2816.248,217.52895,
2813.337,229.52562,
2810.427,219.91184,
2807.516,214.42453,
2804.605,230.56971,
2801.695,226.13158,
2798.784,209.40454,
2795.874,221.13984,
2792.963,216.9284,
2790.052,224.99743,
2787.142,232.78969,
2784.231,231.16307,
2781.321,215.88004,
2778.410,228.58503,
2775.500,225.70241,
2772.589,230.96101,
2769.678,229.96242,
2766.768,242.05826,
2763.857,241.20809,
2760.947,229.05043,
2758.036,231.91717,
2755.126,246.61966,
2752.215,239.14993,
2749.304,238.36151,
2746.394,248,
2743.483,249.64999,
2740.573,254.54869,
2737.662,251.76628,
2734.751,242.88351,
2731.841,246.45971,
2728.930,243.47028,
2726.020,257.00521,
2723.109,253.90733,
2720.199,263.68761,
2717.288,259.41972,
2714.377,275.96656,
2711.467,266.18022,
2708.556,259.01095,
2705.646,256.45073,
2702.735,258.84279,
2699.825,268,
2696.914,262.33317,
2694.003,278.10082,
2691.093,271.55355,
2688.182,272.52741,
2685.272,283.05264,
2682.361,252.54694,
2679.450,264.37035,
2676.540,271.0813,
2673.629,270.68612,
2670.719,265.21165,
2667.808,260.34045,
2664.898,279.06518,
2661.987,277.46691,
2659.076,282.63578,
2656.166,301.49794,
2653.255,280.81293,
2650.345,282.86388,
2647.434,272.11461,
2644.524,287.86093,
2641.613,300.85732,
2638.702,295.14203,
2635.792,289.37388,
2632.881,289.33943,
2629.971,283.87249,
2627.060,277.33188,
2624.149,295.89062,
2621.239,302.49704,
2618.328,283.38148,
2615.418,293.99091,
2612.507,298.62055,
2609.597,296.27545,
2606.686,290.14258,
2603.775,301.88095,
2600.865,309.58705,
2597.954,321.52705,
2595.044,326.7139,
2592.133,308.66235,
2589.223,309.34948,
2586.312,320.4121,
2583.401,307.93797,
2580.491,321.98555,
2577.580,321.97029,
2574.670,305.66042,
2571.759,319.35873,
2568.848,315.47508,
2565.938,320.38107,
2563.027,309.39088,
2560.117,328.43928,
2557.206,329.57565,
2554.296,322.88787,
2551.385,332.438,
2548.474,350.59294,
2545.564,334.75973,
2542.653,345.6208,
2539.743,347.54313,
2536.832,334.93831,
2533.922,354.81077,
2531.011,348.22456,
2528.100,339.07658,
2525.190,349.0418,
2522.279,362.31167,
2519.369,328.60374,
2516.458,328.33215,
2513.548,347.22699,
2510.637,360.18445,
2507.726,361.75093,
2504.816,348.87373,
2501.905,354.79695,
2498.995,369.0445,
2496.084,357.37284,
2493.173,347.86788,
2490.263,364.31417,
2487.352,365.374,
2484.442,352.70877,
2481.531,368.58499,
2478.621,371.32225,
2475.710,404.65495,
2472.799,356.54712,
2469.889,356.18008,
2466.978,379.26793,
2464.068,384.95768,
2461.157,374.15497,
2458.247,373.88229,
2455.336,365.68102,
2452.425,362.32547,
2449.515,386.73597,
2446.604,385.65442,
2443.694,376.90708,
2440.783,409.76802,
2437.872,391.14586,
2434.962,392.37328,
2432.051,399.14224,
2429.141,407.5942,
2426.230,401.26076,
2423.320,403.94274,
2420.409,398.03226,
2417.498,408.12082,
2414.588,405.74534,
2411.677,391.25101,
2408.767,403.81791,
2405.856,422.40714,
2402.946,410.30921,
2400.035,407.59625,
2397.124,393.90908,
2394.214,406.7292,
2391.303,408.43089,
2388.393,392.35111,
2385.482,364.9253,
2382.571,354.51921,
2379.661,362.99971,
2376.750,386.52712,
2373.840,415.37486,
2370.929,431.91336,
2368.019,438.72354,
2365.108,431.7199,
2362.197,450.95894,
2359.287,437.84011,
2356.376,435.99472,
2353.466,437.59074,
2350.555,440.79003,
2347.645,443.1841,
2344.734,442.42396,
2341.823,450.85075,
2338.913,465.15819,
2336.002,454.22486,
2333.092,450.11508,
2330.181,449.28132,
2327.270,449.11001,
2324.360,459.74762,
2321.449,472.29252,
2318.539,481.63916,
2315.628,464.98441,
2312.718,462.06608,
2309.807,468.79506,
2306.896,466.75587,
2303.986,479.44165,
2301.075,472.02135,
2298.165,476.55802,
2295.254,475.12926,
2292.344,475.25298,
2289.433,505.93818,
2286.522,490.51339,
2283.612,509.6314,
2280.701,516.26906,
2277.791,514.31686,
2274.880,479.77789,
2271.969,497.90535,
2269.059,497.46867,
2266.148,484.22037,
2263.238,520.28182,
2260.327,516.75845,
2257.417,503.32111,
2254.506,515.61824,
2251.595,515.71638,
2248.685,533.14993,
2245.774,517.47292,
2242.864,495.17701,
2239.953,540.08967,
2237.043,534.2725,
2234.132,512.3793,
2231.221,535.66169,
2228.311,554.47938,
2225.400,544.91556,
2222.490,542.92836,
2219.579,553.83808,
2216.669,561.52623,
2213.758,546.86796,
2210.847,557.31484,
2207.937,571.5521,
2205.026,562.77667,
2202.116,593,
2199.205,595.47482,
2196.294,597.876,
2193.384,599.842,
2190.473,585.55634,
2187.563,624.9855,
2184.652,625.61469,
2181.742,641.86312,
2178.831,633.31907,
2175.920,650.73771,
2173.010,660.54989,
2170.099,671.26538,
2167.189,648.34442,
2164.278,696.73367,
2161.368,700.71432,
2158.457,703.81264,
2155.546,702.83364,
2152.636,720.29781,
2149.725,741.651,
2146.815,754.63294,
2143.904,765.00371,
2140.993,775.86241,
2138.083,780.1763,
2135.172,790.88244,
2132.262,794.98592,
2129.351,789,
2126.441,753.66009,
2123.530,774.25815,
2120.619,788.33064,
2117.709,732.41787,
2114.798,716.73449,
2111.888,703.09982,
2108.977,689.19866,
2106.067,672.1746,
2103.156,656.80247,
2100.245,632.99122,
2097.335,626.70679,
2094.424,665.28814,
2091.514,608.28494,
2088.603,608.89861,
2085.692,619.27504,
2082.782,628.53411,
2079.871,641.50058,
2076.961,641.19373,
2074.050,616.9697,
2071.140,633.74731,
2068.229,625.80989,
2065.318,641.35851,
2062.408,638.18155,
2059.497,636.82144,
2056.587,632.65135,
2053.676,643.51572,
2050.766,654.38415,
2047.855,620.56958,
2044.944,637.07373,
2042.034,618,
2039.123,622.76094,
2036.213,626.25109,
2033.302,639.65186,
2030.391,644.11899,
2027.481,651.13401,
2024.570,653.4715,
2021.660,626.65562,
2018.749,657.54411,
2015.839,647.21063,
2012.928,649.48322,
2010.017,630.67535,
2007.107,627.90654,
2004.196,640.8691,
2001.286,656.60424,
1998.375,645.17027,
1995.465,612.46875,
1992.554,611.13524,
1989.643,629.37785,
1986.733,616.62544,
1983.822,614.6551,
1980.912,642.08904,
1978.001,628.33951,
1975.090,620.142,
1972.180,620.31253,
1969.269,598.83047,
1966.359,593.21612,
1963.448,602.87979,
1960.538,614.49208,
1957.627,594.6006,
1954.716,583.25854,
1951.806,576.54002,
1948.895,601.66403,
1945.985,577.9232,
1943.074,596.79342,
1940.164,580.66334,
1937.253,564.97404,
1934.342,567.58983,
1931.432,580.88644,
1928.521,583.6494,
1925.611,576.79228,
1922.700,569.25138,
1919.790,561.97117,
1916.879,578.67476,
1913.968,577.00369,
1911.058,568.13213,
1908.147,570.13285,
1905.237,564.24996,
1902.326,533.83556,
1899.415,510.56583,
1896.505,477.08429,
1893.594,506.88733,
1890.684,547.93465,
1887.773,546.57757,
1884.863,582.07973,
1881.952,626.41226,
1879.041,617.33125,
1876.131,607.74248,
1873.220,565.15912,
1870.310,564.5695,
1867.399,613.21631,
1864.489,558.36302,
1861.578,593.77459,
1858.667,606.59883,
1855.757,579.60501,
1852.846,576.76409,
1849.936,584.09309,
1847.025,573.88566,
1844.114,571.87534,
1841.204,590.0979,
1838.293,586.50416,
1835.383,573.61651,
1832.472,608.88522,
1829.562,610.8927,
1826.651,589.52978,
1823.740,604.4713,
1820.830,612.54332,
1817.919,591.82621,
1815.009,596.41857,
1812.098,619.54329,
1809.188,627.62789,
1806.277,609.42051,
1803.366,627.30128,
1800.456,587.9235,
1797.545,621.27658,
1794.635,629.16008,
1791.724,661.8544,
1788.813,657.20797,
1785.903,662.53696,
1782.992,579.41723,
1780.082,494.96997,
1777.171,384.97963,
1774.261,345.50074,
1771.350,481.02653,
1768.439,616.1099,
1765.529,660.45651,
1762.618,694.74067,
1759.708,684.79315,
1756.797,682.04546,
1753.887,695.15306,
1750.976,701.33115,
1748.065,705.24117,
1745.155,709.30317,
1742.244,668.97471,
1739.334,654.90117,
1736.423,689.38127,
1733.512,697.63413,
1730.602,735.6449,
1727.691,719.8289,
1724.781,740.88991,
1721.870,738.53803,
1718.960,779.5783,
1716.049,732.78869,
1713.138,763.8948,
1710.228,772.74059,
1707.317,732.30972,
1704.407,765.63108,
1701.496,798.25798,
1698.586,769.58453,
1695.675,782.90705,
1692.764,791.57377,
1689.854,775.73621,
1686.943,799.15686,
1684.033,859.48499,
1681.122,833.47579,
1678.211,819.13324,
1675.301,879.81191,
1672.390,857.9342,
1669.480,836.24868,
1666.569,867.72367,
1663.659,924.34298,
1660.748,945.11569,
1657.837,951.48113,
1654.927,973.7263,
1652.016,1003.2953,
1649.106,976.5423,
1646.195,1038.9111,
1643.285,1076.1595,
1640.374,1083.5017,
1637.463,1108.1709,
1634.553,1173.0049,
1631.642,1240.5538,
1628.732,1291.314,
1625.821,1344.0465,
1622.911,1414.5999,
1620.000,1500.9039,
1617.089,1605.8905,
1614.179,1729.4749,
1611.268,1814.8399,
1608.358,1934.2876,
1605.447,1987.1432,
1602.536,2034.7306,
1599.626,2049.9591,
1596.715,2099.1029,
1593.805,1988.6312,
1590.894,1985.568,
1587.984,1994.7948,
1585.073,1904.1118,
1582.162,1908.0373,
1579.252,1808.8941,
1576.341,1791.6074,
1573.431,1756.1908,
1570.520,1704.7236,
1567.610,1708.3924,
1564.699,1671.2232,
1561.788,1659.2253,
1558.878,1623.448,
1555.967,1572.9668,
1553.057,1541.9657,
1550.146,1495.2837,
1547.235,1462.1451,
1544.325,1460.5243,
1541.414,1479.6617,
1538.504,1476.5583,
1535.593,1446.8795,
1532.683,1430.1624,
1529.772,1452.5809,
1526.861,1451.2044,
1523.951,1396.5274,
1521.040,1406.1285,
1518.130,1448.3476,
1515.219,1458.0808,
1512.309,1430.4955,
1509.398,1430.2814,
1506.487,1424.3622,
1503.577,1428.9391,
1500.666,1441.9707,
1497.756,1414.7294,
1494.845,1468.7182,
1491.934,1389.9244,
1489.024,1366.8246,
1486.113,1397.5253,
1483.203,1340.4928,
1480.292,1303.3021,
1477.382,1320.6309,
1474.471,1309.885,
1471.560,1293.3893,
1468.650,1253.4698,
1465.739,1242.1239,
1462.829,1284.3899,
1459.918,1323.7073,
1457.008,1334,
1454.097,1348.3269,
1451.186,1356.2669,
1448.276,1331.824,
1445.365,1283.3523,
1442.455,1234.8395,
1439.544,1254.9428,
1436.633,1233.4757,
1433.723,1224.1457,
1430.812,1176.5911,
1427.902,1183.1431,
1424.991,1147.1281,
1422.081,1113.8883,
1419.170,1177.5326,
1416.259,1170.1786,
1413.349,1201.4963,
1410.438,1178.7108,
1407.528,1103.4883,
1404.617,1099.9435,
1401.707,1085.494,
1398.796,1031.3427,
1395.885,1020.4686,
1392.975,1014.0822,
1390.064,972.06342,
1387.154,975.915,
1384.243,923.68793,
1381.332,878.77867,
1378.422,876.80678,
1375.511,873.05966,
1372.601,980.82373,
1369.690,1025.1461,
1366.780,1008.031,
1363.869,1079.0066,
1360.958,1148.9334,
1358.048,1155.7605,
1355.137,1179.6438,
1352.227,1202.6797,
1349.316,1243.7701,
1346.406,1315.6138,
1343.495,1306.7335,
1340.584,1339.0344,
1337.674,1419.2128,
1334.763,1396.0353,
1331.853,1396.9625,
1328.942,1432.5786,
1326.032,1454.128,
1323.121,1453.5542,
1320.210,1501.9441,
1317.300,1544.707,
1314.389,1605.8204,
1311.479,1642.8253,
1308.568,1641.0574,
1305.657,1651.6951,
1302.747,1655.4431,
1299.836,1749.1598,
1296.926,1787.2391,
1294.015,1813.8995,
1291.105,1899.532,
1288.194,1967.7108,
1285.283,1976.988,
1282.373,2001.578,
1279.462,2058.1757,
1276.552,2087.8189,
1273.641,2084.898,
1270.731,2078.591,
1267.820,2048.5214,
1264.909,2019.6373,
1261.999,2016.9334,
1259.088,2015.1092,
1256.178,2029.5598,
1253.267,1981.3651,
1250.356,1957.1957,
1247.446,1948.8929,
1244.535,1915.7724,
1241.625,1855.126,
1238.714,1829.3704,
1235.804,1854.4904,
1232.893,1806.2388,
1229.982,1854.3936,
1227.072,1777.442,
1224.161,1758.5519,
1221.251,1732.1757,
1218.340,1716.8741,
1215.430,1698.1355,
1212.519,1677.3976,
1209.608,1667.7088,
1206.698,1661.3402,
1203.787,1639.1558,
1200.877,1642.1731,
1197.966,1677.2403,
1195.055,1719.1027,
1192.145,1812.4045,
1189.234,1870.8444,
1186.324,1926.822,
1183.413,1965.2995,
1180.503,1986.1647,
1177.592,2000.9896,
1174.681,1950.3973,
1171.771,1897.5879,
1168.860,1879.7261,
1165.950,1873.1623,
1163.039,1869.2064,
1160.129,1853.2536,
1157.218,1881.4589,
1154.307,1935.2438,
1151.397,1970.0767,
1148.486,2013.8963,
1145.576,2032.4151,
1142.665,1949.8392,
1139.754,1957.6453,
1136.844,1956.7982,
1133.933,1927.4342,
1131.023,1890.5325,
1128.112,1878.4989,
1125.202,1895.1401,
1122.291,1905.376,
1119.380,1907.8874,
1116.470,1896.4145,
1113.559,1862.5235,
1110.649,1853.6548,
1107.738,1845.4269,
1104.828,1838.4161,
1101.917,1832.4908,
1099.006,1817.8763,
1096.096,1823.5051,
1093.185,1848.0892,
1090.275,1868.6132,
1087.364,1864.0804,
1084.453,1866.7496,
1081.543,1874.1911,
1078.632,1871.3589,
1075.722,1864.6418,
1072.811,1889.0621,
1069.901,1889.9353,
1066.990,1872.2167,
1064.079,1887.0544,
1061.169,1888.2678,
1058.258,1890.8932,
1055.348,1906.8215,
1052.437,1910.0964,
1049.527,1880.6042,
1046.616,1896.2431,
1043.705,1894.9169,
1040.795,1892.723,
1037.884,1920.3213,
1034.974,1937.9446,
1032.063,1913.131,
1029.153,1886.6498,
1026.242,1875.4054,
1023.331,1908.3312,
1020.421,1960.3116,
1017.510,1976.6383,
1014.600,1993.0319,
1011.689,2017.8597,
1008.778,2010.8949,
1005.868,1986.861,
1002.957,1971.3746,
1000.047,2045.44,
997.136,2140.3678,
994.226,2189.6769,
991.315,2173.2104,
988.404,2117.6237,
985.494,2063.6356,
982.583,2047.361,
979.673,2001.8328,
976.762,2020.639,
973.852,2028.6456,
970.941,2009.7783,
968.030,2011.8959,
965.120,2000.2255,
962.209,2053.9357,
959.299,2047.4185,
956.388,2065.0785,
953.477,2078.2456,
950.567,2083.3326,
947.656,2119.2174,
944.746,2105.6245,
941.835,2114.7178,
938.925,2126.8708,
936.014,2101.6504,
933.103,2078.3557,
930.193,2083.6078,
927.282,2055.3419,
924.372,2006.2967,
921.461,1990.4268,
918.551,1980.6097,
915.640,1985.3488,
912.729,2004.7089,
909.819,2018.5518,
906.908,1984.8548,
903.998,2033.1079,
901.087,2040.2714,
898.176,2041.772,
895.266,2054.3002,
892.355,2064.3458,
889.445,2034.1322,
886.534,2045.6882,
883.624,2053.3827,
880.713,2054.9793,
877.802,2014.7447,
874.892,1907.1722,
871.981,1752.1864,
869.071,1548.3456,
866.160,1536.4586,
863.250,1735.713,
860.339,1925.2567,
857.428,1966.6089,
854.518,1999.9188,
851.607,1893.4139,
848.697,1778.0178,
845.786,1703.381,
842.875,1752.9493,
839.965,1927.8164,
837.054,2064.428,
834.144,2102.5506,
831.233,2130.6652,
828.323,2120.7226,
825.412,2116.0981,
822.501,2153.2767,
819.591,2171.4575,
816.680,2102.2883,
813.770,2067.4579,
810.859,2025.8644,
807.949,2002.883,
805.038,2039.6106,
802.127,2019.8556,
799.217,2014.273,
796.306,1998.2431,
793.396,2000.2368,
790.485,2011.7345,
787.574,1978.5257,
784.664,2018.7112,
781.753,2044.1166,
778.843,2033.3967,
775.932,2029.975,
773.022,2066.732,
770.111,2058.5562,
767.200,2049.6256,
764.290,2037.754,
761.379,2027.0613,
758.469,2019.5351,
755.558,2014.5835,
752.648,2034.134,
749.737,2015.8052,
746.826,1991.412,
743.916,1964.9933,
741.005,1923.0871,
738.095,1826.4738,
735.184,1743.494,
732.274,1719.7331,
729.363,1761.6578,
726.452,1846.2324,
723.542,1902.89,
720.631,1957.9887,
717.721,1984.8841,
714.810,2008.2272,
711.899,2033.3762,
708.989,2034.9901,
706.078,2026.1857,
703.168,2019.7495,
700.257,2011.6366,
697.347,2016.1726,
694.436,2060.4146,
691.525,2075.6869,
688.615,2068.9374,
685.704,2043.5738,
682.794,2037.8934,
679.883,2103.3965,
676.973,2112.2116,
674.062,2117.8285,
671.151,2108.1651,
668.241,2083.2318,
665.330,2051.5084,
662.420,2041.1249,
659.509,2038.3651,
656.598,2050.9825,
653.688,2070.3004,
650.777,2076.5959,
647.867,2035.1868,
644.956,1988.851,
642.046,1927.4424,
639.135,1880.5459,
636.224,1909.6088,
633.314,2031.0813,
630.403,2054.9055,
627.493,2056.9133,
624.582,2055.8166,
621.672,2001.169,
618.761,2053.7156,
615.850,2113.9771,
612.940,2151.3907,
610.029,2159.2881,
607.119,2179.0288,
604.208,2214.3706,
601.297,2224.5104,
598.387,2211.5411,
595.476,2184.9546,
592.566,2152.6848,
589.655,2181.9861,
586.745,2215.321,
583.834,2233.3412,
580.923,2230.9242,
578.013,2218.3684,
575.102,2208.1169,
572.192,2202.2854,
569.281,2192.8452,
566.371,2147.453,
563.460,2183.9172,
560.549,2217.0802,
557.639,2229.4344,
554.728,2220.4983,
551.818,2275.9007,
548.907,2261.7952,
545.996,2232.5587,
543.086,2217.5296,
540.175,2238.553,
537.265,2229.1358,
534.354,2233.0271,
531.444,2237.3774,
528.533,2232.7457,
525.622,2299.4771,
522.712,2255.1449,
519.801,2199.8154,
516.891,2176.0691,
513.980,2196.2008,
511.070,2205.7478,
508.159,2221.8943,
505.248,2237.2518,
502.338,2241.2259,
499.427,2248.9442,
496.517,2277.5858,
493.606,2288.5782,
490.695,2273.6375,
487.785,2299.8104,
484.874,2316.9245,
481.964,2294.9305,
479.053,2250.5067,
476.143,2235.9154,
473.232,2238.597,
470.321,2239.5134,
467.411,2239.2533,
464.500,2240,
461.590,2240,
458.679,2240.5503,
455.769,2256.1231,
452.858,2295.84,
449.947,2361.5381,
447.037,2300.9752,
444.126,2274.0727,
441.216,2308.9417,
438.305,2302.8462,
435.395,2316.424,
432.484,2301.0786,
429.573,2244.6822,
426.663,2140.543,
423.752,1904.6414,
420.842,1608.255,
417.931,1358.9945,
415.020,1309.7013,
412.110,1774.7692,
409.199,2118.1269,
406.289,2276.1078,
403.378,2208.6747,
400.468,2112.6634,
397.557,2114.9056,
394.646,2182.9004,
391.736,2283.2173,
388.825,2290.0054,
385.915,2275.502,
383.004,2259.5723,
380.094,2259.9157,
377.183,2336.6683,
374.272,2353.6578,
371.362,2370.3086,
368.451,2417.1764,
365.541,2387.1549,
362.630,2400.8496,
359.719,2411.3048,
356.809,2392.4563,
353.898,2383.4707,
350.988,2426.5689,
348.077,2452.222,
345.167,2421.227,
342.256,2425.7095,
339.345,2420.6228,
336.435,2418.6087,
333.524,2428.7986,
330.614,2454.1339,
327.703,2473.8083,
324.793,2499.1785,
321.882,2539.9802,
318.971,2531.8023,
316.061,2538.7663,
313.150,2568.169,
310.240,2629.7646,
307.329,2723.4735,
304.418,2735.8345,
301.508,2710.7415,
298.597,2724.8095,
295.687,2766.6344,
292.776,2806.8334,
289.866,2865.7369,
286.955,3006.8335,
284.044,3101.0024,
281.134,3217.317,
278.223,3351.7003,
275.313,3418.0173,
272.402,3491.833,
269.492,3533.4157,
266.581,3527.7403,
263.670,3496.1276,
260.760,3523.5668,
257.849,3609.0953,
254.939,3758.0735,
252.028,3731.0462,
249.117,3739.1868,
246.207,3771.8494,
243.296,3809.9153,
240.386,3785.9214,
237.475,3770.2316,
234.565,3755.7711,
231.654,3671.777,
228.743,3668.9596,
225.833,3634.2655,
222.922,3527.0103,
220.012,3462.8975,
217.101,3423.3528,
214.191,3375.3686,
211.280,3280.071,
208.369,3268.9631,
205.459,3211.9035,
202.548,3134.8914,
199.638,3168.9969,
196.727,3165.6281,
193.816,3155.8928,
190.906,3147.9272,
187.995,3060.3203,
185.085,3049.3871,
182.174,3066.2988,
179.264,3048.9524,
176.353,3020.0873,
173.442,3043.7937,
170.532,3098.7269,
167.621,2984.8127,
164.711,2920.3637,
161.800,2826.5927,
158.890,2640.903,
155.979,2437.5418,
153.068,2251.1344,
150.158,2061.2175,
147.247,1786.2418,
144.337,1480.1963,
141.426,1160.9399,
138.516,834.75436,
135.605,613.66168,
132.694,427.37014,
129.784,275.65202,
126.873,171.24306,
123.963,125.52998,
121.052,93.402117,
118.141,59.134821,
115.231,46.920304,
112.320,36.069097,
109.410,28.409066,
106.499,30.545531,
103.589,26.517964,
100.678,21.913513,
97.767,19.069763,
94.857,15.535055,
91.946,17.224887,
89.036,21.096817,
86.125,15.423175,
83.215,14.53092,
80.304,13.323971,
77.393,8.3667816,
74.483,14.55135,
71.572,16.550592,
68.662,13.584395,
65.751,9.3456885,
62.840,10.40851,
59.930,12.438141,
57.019,10.322895,
54.109,5.2227132,
51.198,4.4128742,
48.288,9.9830127,
45.377,7.8728785,
42.466,6.1755613,
39.556,4.5395257,
36.645,1.7307648,
33.735,2.0384969,
30.824,2.3373391,
27.914,0.23381334,
25.003,-1.8679124,
22.092,-2.6770954,
19.182,-1.8169371,
16.271,3.778984,
13.361,31.708937,
10.450,48.851346,
7.539,-56.594274,
4.629,-365.91344,
1.718,-728.35585,
-1.192,-1049.0423,
-4.103,-817.1564,
-7.013,-447.03373,
-9.924,-3,
