,PLCD35~1,
Wavenumbers [1/cm],Intensity,
3014.167,-1.5,
3011.256,2.6000215,
3008.346,110.28297,
3005.435,111.34806,
3002.525,128.42506,
2999.614,133.31168,
2996.704,126.09278,
2993.793,126.11924,
2990.882,140.66788,
2987.972,146.41424,
2985.061,138.36701,
2982.151,148.61933,
2979.240,165.23384,
2976.329,163.25137,
2973.419,171.34596,
2970.508,186.2833,
2967.598,186.26104,
2964.687,181.5,
2961.777,163.38016,
2958.866,179.83432,
2955.955,190.64158,
2953.045,196.71926,
2950.134,213.07434,
2947.224,211.38612,
2944.313,215.58974,
2941.403,228.97628,
2938.492,228.67075,
2935.581,247.13434,
2932.671,223.70606,
2929.760,253.43077,
2926.850,242.07481,
2923.939,244.97661,
2921.028,247.25285,
2918.118,250.30101,
2915.207,243.19601,
2912.297,256.39845,
2909.386,251.72627,
2906.476,243.15171,
2903.565,239.91926,
2900.654,245.17037,
2897.744,247.21084,
2894.833,223.26291,
2891.923,227.9872,
2889.012,209.66185,
2886.102,220.66757,
2883.191,190.52549,
2880.280,111.55738,
2877.370,-93.854221,
2874.459,-204.76376,
2871.549,-37.525043,
2868.638,154.14733,
2865.727,175.50763,
2862.817,208.5147,
2859.906,219.00711,
2856.996,240.98868,
2854.085,242.61975,
2851.175,250.42476,
2848.264,243.98549,
2845.353,252.67254,
2842.443,254.90975,
2839.532,237.18662,
2836.622,245.10677,
2833.711,249.55181,
2830.801,253.19779,
2827.890,267.51922,
2824.979,256.29002,
2822.069,261.52274,
2819.158,262.35984,
2816.248,264.23553,
2813.337,263.02562,
2810.427,258.66942,
2807.516,275.75891,
2804.605,269.09135,
2801.695,266.36842,
2798.784,261.79569,
2795.874,262.34959,
2792.963,252.14244,
2790.052,265.49507,
2787.142,263.31592,
2784.231,257.63046,
2781.321,256.31718,
2778.410,275.13958,
2775.500,280.67069,
2772.589,279.42354,
2769.678,284.64335,
2766.768,274.38348,
2763.857,268.92197,
2760.947,281.02837,
2758.036,297.35994,
2755.126,289.69017,
2752.215,294.7546,
2749.304,291.52159,
2746.394,282.25198,
2743.483,298.54997,
2740.573,306.16152,
2737.662,298.48965,
2734.751,293.17473,
2731.841,278.44505,
2728.930,283.15654,
2726.020,309.27025,
2723.109,310.59267,
2720.199,318.75637,
2717.288,300.41241,
2714.377,312.5623,
2711.467,324.38571,
2708.556,312.88274,
2705.646,326.57044,
2702.735,316.85053,
2699.825,322.73996,
2696.914,319.59547,
2694.003,349.9309,
2691.093,330.7142,
2688.182,313.98963,
2685.272,313.73898,
2682.361,318.47052,
2679.450,329.99379,
2676.540,328.45935,
2673.629,318.20408,
2670.719,309.20795,
2667.808,334.43002,
2664.898,326.75973,
2661.987,327.5,
2659.076,324.00862,
2656.166,335.67749,
2653.255,335.05612,
2650.345,332.71597,
2647.434,328.30052,
2644.524,344.79735,
2641.613,343.92866,
2638.702,350.42109,
2635.792,349.5,
2632.881,350.07737,
2629.971,348.75502,
2627.060,350.66469,
2624.149,366.95937,
2621.239,364.49407,
2618.328,343.34774,
2615.418,358.51818,
2612.507,353.60276,
2609.597,344.6018,
2606.686,363.78516,
2603.775,374.29761,
2600.865,371.85155,
2597.954,369.07497,
2595.044,372.57085,
2592.133,365.0606,
2589.223,392.78949,
2586.312,392.64574,
2583.401,381.7664,
2580.491,387.29323,
2577.580,364.52806,
2574.670,380.94653,
2571.759,380.05051,
2568.848,388.73209,
2565.938,399.40491,
2563.027,379.13409,
2560.117,380.40655,
2557.206,400.48524,
2554.296,401.5,
2551.385,402.81401,
2548.474,418.57435,
2545.564,387.70291,
2542.653,415.74161,
2539.743,403.28958,
2536.832,388.56169,
2533.922,411.75231,
2531.011,428.04995,
2528.100,423.10277,
2525.190,412.75656,
2522.279,447.202,
2519.369,401.70747,
2516.458,399.49646,
2513.548,401.97264,
2510.637,436.76221,
2507.726,424.25093,
2504.816,406.87316,
2501.905,412.54329,
2498.995,431.69438,
2496.084,440.07485,
2493.173,412.07881,
2490.263,443.60062,
2487.352,428.8756,
2484.442,441.48714,
2481.531,449.92023,
2478.621,453.87443,
2475.710,461.49233,
2472.799,458.28029,
2469.889,448.59141,
2466.978,446.94329,
2464.068,463.78048,
2461.157,448.92251,
2458.247,461.85312,
2455.336,477.22406,
2452.425,445.97167,
2449.515,469.99065,
2446.604,472.79494,
2443.694,465.68584,
2440.783,472.83559,
2437.872,475.28121,
2434.962,468.71198,
2432.051,476.74093,
2429.141,473.97664,
2426.230,485.32656,
2423.320,476.58519,
2420.409,494.71802,
2417.498,494.48315,
2414.588,482.96775,
2411.677,481.67929,
2408.767,490.54724,
2405.856,510.00472,
2402.946,504.12467,
2400.035,497.5,
2397.124,495.28609,
2394.214,504.4196,
2391.303,501.38957,
2388.393,492.00697,
2385.482,483.85249,
2382.571,465.34828,
2379.661,460.98835,
2376.750,480.28561,
2373.840,518.38426,
2370.929,531.43502,
2368.019,516.96919,
2365.108,525.17539,
2362.197,528.63978,
2359.287,523.13008,
2356.376,539.46478,
2353.466,542.51543,
2350.555,546.7953,
2347.645,544.6987,
2344.734,537.65208,
2341.823,546.36733,
2338.913,543.38807,
2336.002,544.16271,
2333.092,543.00567,
2330.181,544.23658,
2327.270,565.23488,
2324.360,571.03773,
2321.449,572.88435,
2318.539,575.62845,
2315.628,589.17186,
2312.718,589.85022,
2309.807,562.50579,
2306.896,597.20109,
2303.986,585.02603,
2301.075,572.52135,
2298.165,569.0771,
2295.254,541.16783,
2292.344,586.59951,
2289.433,598.42272,
2286.522,590.30794,
2283.612,601.5,
2280.701,627.46407,
2277.791,603.45993,
2274.880,604.85396,
2271.969,613.88683,
2269.059,625.67168,
2266.148,616.99082,
2263.238,614.99807,
2260.327,650.98255,
2257.417,637.14222,
2254.506,647.98144,
2251.595,637.06725,
2248.685,659.64993,
2245.774,639.4675,
2242.864,643.78679,
2239.953,635.54824,
2237.043,651.46177,
2234.132,647.8793,
2231.221,651.26495,
2228.311,663.71907,
2225.400,672.24669,
2222.490,667.02776,
2219.579,683.18381,
2216.669,686.49046,
2213.758,702.19806,
2210.847,685.31867,
2207.937,706.3599,
2205.026,698.6102,
2202.116,717.73143,
2199.205,712.63671,
2196.294,730.74799,
2193.384,716.15847,
2190.473,726.65963,
2187.563,754.558,
2184.652,767.10245,
2181.742,772.27295,
2178.831,777.81907,
2175.920,777.16849,
2173.010,803.77721,
2170.099,798.03521,
2167.189,810.67221,
2164.278,833.1794,
2161.368,835.78447,
2158.457,860.65275,
2155.546,862.30289,
2152.636,857.53193,
2149.725,881.13085,
2146.815,869.10064,
2143.904,914.29926,
2140.993,915.75922,
2138.083,931.24162,
2135.172,948.42443,
2132.262,941.22711,
2129.351,934.52071,
2126.441,939.91749,
2123.530,904.75815,
2120.619,921.44521,
2117.709,877.43519,
2114.798,852.34222,
2111.888,837.96257,
2108.977,825.69205,
2106.067,824.80864,
2103.156,800.10495,
2100.245,803.4862,
2097.335,780.29581,
2094.424,772.4574,
2091.514,776.93012,
2088.603,798.4861,
2085.692,818.90893,
2082.782,792.34755,
2079.871,801.21528,
2076.961,786.79156,
2074.050,812.43333,
2071.140,794.39632,
2068.229,801.88022,
2065.318,788.77226,
2062.408,804.93192,
2059.497,798.07736,
2056.587,784.82567,
2053.676,780.86677,
2050.766,813.7287,
2047.855,778.84175,
2044.944,788.90385,
2042.034,777.31501,
2039.123,787.78283,
2036.213,814.17333,
2033.302,807.0653,
2030.391,816.02506,
2027.481,821.26831,
2024.570,791.84361,
2021.660,802.4948,
2018.749,834.43627,
2015.839,806.69291,
2012.928,812.07383,
2010.017,829.64439,
2007.107,802.54862,
2004.196,817.01191,
2001.286,816.29152,
1998.375,818.28347,
1995.465,814.78036,
1992.554,778.44148,
1989.643,780.25805,
1986.733,787.6807,
1983.822,761.42467,
1980.912,785.8852,
1978.001,750.26253,
1975.090,765.67253,
1972.180,770.22474,
1969.269,761.23562,
1966.359,783.50031,
1963.448,778.96763,
1960.538,770.87698,
1957.627,758.01702,
1954.716,757.47127,
1951.806,800.15869,
1948.895,770.9292,
1945.985,758.14216,
1943.074,791.44115,
1940.164,751.60557,
1937.253,742.81724,
1934.342,731.82461,
1931.432,728.81861,
1928.521,749.94214,
1925.611,747.29228,
1922.700,769.03453,
1919.790,736.74321,
1916.879,720.26724,
1913.968,728.48893,
1911.058,792.24474,
1908.147,773.43722,
1905.237,757.56612,
1902.326,722.02741,
1899.415,710.04998,
1896.505,671.14444,
1893.594,668.94518,
1890.684,708.15346,
1887.773,722.30186,
1884.863,735.08314,
1881.952,766.12229,
1879.041,764.90914,
1876.131,768.01503,
1873.220,762.52652,
1870.310,770.78249,
1867.399,775.43603,
1864.489,725.87555,
1861.578,783.47261,
1858.667,769.09883,
1855.757,747.2864,
1852.846,761.99744,
1849.936,756.87238,
1847.025,754.14476,
1844.114,774.96121,
1841.204,793.20629,
1838.293,779.52827,
1835.383,760.8605,
1832.472,779.07043,
1829.562,821.2461,
1826.651,831.346,
1823.740,814.66856,
1820.830,780.94857,
1817.919,818.91946,
1815.009,801.24428,
1812.098,814.45274,
1809.188,798.67834,
1806.277,780.87624,
1803.366,826.48336,
1800.456,825.39009,
1797.545,825.15949,
1794.635,841.242,
1791.724,843.46111,
1788.813,861.89794,
1785.903,838.85089,
1782.992,779.67137,
1780.082,731.25229,
1777.171,612.81368,
1774.261,565.41552,
1771.350,674.21578,
1768.439,805.97291,
1765.529,856.59168,
1762.618,877.44316,
1759.708,859.24965,
1756.797,856.15909,
1753.887,892.65452,
1750.976,904.62762,
1748.065,909.34332,
1745.155,913.05482,
1742.244,909.86504,
1739.334,903.39177,
1736.423,934.70743,
1733.512,937.58534,
1730.602,964.1687,
1727.691,954.54083,
1724.781,960.29865,
1721.870,954.64757,
1718.960,975.5225,
1716.049,976.30513,
1713.138,981.48497,
1710.228,1000.7762,
1707.317,967.23257,
1704.407,985.85833,
1701.496,1005.8194,
1698.586,1008.424,
1695.675,997.2715,
1692.764,991.76639,
1689.854,950.36218,
1686.943,991.98235,
1684.033,1033.4817,
1681.122,1061.0412,
1678.211,1063.481,
1675.301,1091.4137,
1672.390,1141.2996,
1669.480,1074.9974,
1666.569,1137.1221,
1663.659,1184.8304,
1660.748,1145.6376,
1657.837,1204.3092,
1654.927,1240.0548,
1652.016,1221.9131,
1649.106,1240.5564,
1646.195,1322.0684,
1643.285,1305.3659,
1640.374,1342.8136,
1637.463,1358.707,
1634.553,1425.3719,
1631.642,1484.5966,
1628.732,1584.7311,
1625.821,1623.5236,
1622.911,1659.2971,
1620.000,1832.2952,
1617.089,1908.9876,
1614.179,2020.3133,
1611.268,2136.1502,
1608.358,2248.209,
1605.447,2386.4439,
1602.536,2369.339,
1599.626,2433.7352,
1596.715,2440.4076,
1593.805,2375.2138,
1590.894,2361.3353,
1587.984,2345.7764,
1585.073,2238.8495,
1582.162,2250.5559,
1579.252,2192.6725,
1576.341,2120.8234,
1573.431,2101.0178,
1570.520,2067.3962,
1567.610,2040.3625,
1564.699,1981.5728,
1561.788,1957.2747,
1558.878,1947.3068,
1555.967,1880.0762,
1553.057,1841.7587,
1550.146,1815.7619,
1547.235,1799.729,
1544.325,1812.0728,
1541.414,1778.2153,
1538.504,1757.4555,
1535.593,1781.7775,
1532.683,1772.1242,
1529.772,1768.6122,
1526.861,1776.0045,
1523.951,1757.0908,
1521.040,1770.6108,
1518.130,1785.3549,
1515.219,1817.5787,
1512.309,1841.1846,
1509.398,1775.2035,
1506.487,1768.3735,
1503.577,1801.8871,
1500.666,1765.4027,
1497.756,1782.0256,
1494.845,1798.0987,
1491.934,1740.3866,
1489.024,1705.7369,
1486.113,1675.7563,
1483.203,1686.8225,
1480.292,1668.9842,
1477.382,1625.0876,
1474.471,1567.9225,
1471.560,1580.3496,
1468.650,1600.0658,
1465.739,1585.2853,
1462.829,1601.3568,
1459.918,1622.2625,
1457.008,1639.2233,
1454.097,1628.5435,
1451.186,1615.3027,
1448.276,1614.6239,
1445.365,1574.2141,
1442.455,1578.0597,
1439.544,1580.2447,
1436.633,1518.7612,
1433.723,1478.497,
1430.812,1484.9828,
1427.902,1477.35,
1424.991,1429.0141,
1422.081,1439.4272,
1419.170,1462.9656,
1416.259,1467.3101,
1413.349,1472.0314,
1410.438,1481.1976,
1407.528,1445.2318,
1404.617,1428.7842,
1401.707,1362.0179,
1398.796,1297.6119,
1395.885,1310.382,
1392.975,1311.3117,
1390.064,1276.8545,
1387.154,1278.9951,
1384.243,1262.3266,
1381.332,1237.2787,
1378.422,1235.8381,
1375.511,1242.3956,
1372.601,1292.2648,
1369.690,1359.9345,
1366.780,1393.469,
1363.869,1387.1499,
1360.958,1438.6184,
1358.048,1443.7675,
1355.137,1484.7996,
1352.227,1539.7026,
1349.316,1583.1606,
1346.406,1656.3566,
1343.495,1668.04,
1340.584,1652.4272,
1337.674,1745.9321,
1334.763,1798.4767,
1331.853,1771.587,
1328.942,1757.158,
1326.032,1811.7778,
1323.121,1820.7952,
1320.210,1882.7625,
1317.300,1924.5339,
1314.389,1971.5841,
1311.479,2009.5,
1308.568,2021.7125,
1305.657,2054.4573,
1302.747,2091.3964,
1299.836,2137.4338,
1296.926,2216.9528,
1294.015,2248.2098,
1291.105,2302.3325,
1288.194,2367.8082,
1285.283,2405.4121,
1282.373,2463.8592,
1279.462,2487.5589,
1276.552,2479.7834,
1273.641,2472.0835,
1270.731,2470.0284,
1267.820,2470.8137,
1264.909,2439.4448,
1261.999,2424.2337,
1259.088,2416.9367,
1256.178,2419.9258,
1253.267,2375.2355,
1250.356,2347.9549,
1247.446,2349.1275,
1244.535,2342.6072,
1241.625,2309.1038,
1238.714,2289.9545,
1235.804,2306.7962,
1232.893,2265.5046,
1229.982,2242.7828,
1227.072,2192.0853,
1224.161,2210.3531,
1221.251,2181.7416,
1218.340,2153.6569,
1215.430,2114.7711,
1212.519,2090.0472,
1209.608,2076.0337,
1206.698,2054.0533,
1203.787,2062.2789,
1200.877,2066.2771,
1197.966,2062.6805,
1195.055,2179.3951,
1192.145,2258.8561,
1189.234,2342.0817,
1186.324,2383.0461,
1183.413,2431.7792,
1180.503,2482.4529,
1177.592,2453.1258,
1174.681,2384.4007,
1171.771,2397.1291,
1168.860,2381.0535,
1165.950,2330.3163,
1163.039,2324.0872,
1160.129,2312.3435,
1157.218,2348.1699,
1154.307,2402.3233,
1151.397,2415.9743,
1148.486,2436.5951,
1145.576,2465.5771,
1142.665,2467.3529,
1139.754,2392.6462,
1136.844,2372.6988,
1133.933,2350.3858,
1131.023,2318.0325,
1128.112,2309.9269,
1125.202,2331.4662,
1122.291,2335.1267,
1119.380,2339.7945,
1116.470,2369.8004,
1113.559,2342.57,
1110.649,2291.5899,
1107.738,2287.182,
1104.828,2283.7755,
1101.917,2261.9381,
1099.006,2274.4278,
1096.096,2282.7475,
1093.185,2270.4554,
1090.275,2301.8708,
1087.364,2325.9669,
1084.453,2330.6877,
1081.543,2320.1738,
1078.632,2312.6339,
1075.722,2319.3119,
1072.811,2317.1969,
1069.901,2298.8584,
1066.990,2305.5833,
1064.079,2347.6503,
1061.169,2358.7678,
1058.258,2352.0765,
1055.348,2352.3819,
1052.437,2357.6158,
1049.527,2374.4399,
1046.616,2398.7671,
1043.705,2383.0016,
1040.795,2396.0166,
1037.884,2392.8451,
1034.974,2392.9072,
1032.063,2411.9232,
1029.153,2400.1884,
1026.242,2397.5935,
1023.331,2406.6661,
1020.421,2439.1725,
1017.510,2456.4219,
1014.600,2477.2631,
1011.689,2503.4955,
1008.778,2503.8084,
1005.868,2476.9633,
1002.957,2528.5846,
1000.047,2575.084,
997.136,2656.4551,
994.226,2697.7001,
991.315,2665.8391,
988.404,2598.313,
985.494,2540.8644,
982.583,2557.139,
979.673,2535.3557,
976.762,2525.3258,
973.852,2519.1959,
970.941,2502.7194,
968.030,2486.8643,
965.120,2528.4069,
962.209,2506.2408,
959.299,2544.995,
956.388,2587.6984,
953.477,2586.5376,
950.567,2573.2311,
947.656,2619.8315,
944.746,2614.7342,
941.835,2616.1196,
938.925,2617.1581,
936.014,2606.8777,
933.103,2603.915,
930.193,2604.9153,
927.282,2549.963,
924.372,2466.2479,
921.461,2505.5752,
918.551,2509.5576,
915.640,2497.3753,
912.729,2497.9886,
909.819,2507.6112,
906.908,2508.4536,
903.998,2510.8861,
901.087,2498.1334,
898.176,2514.3598,
895.266,2543.3566,
892.355,2545.8876,
889.445,2526.5845,
886.534,2567.4087,
883.624,2570.1173,
880.713,2581.79,
877.802,2545.1282,
874.892,2418.5107,
871.981,2270.8972,
869.071,2033.64,
866.160,2100.8237,
863.250,2279.5023,
860.339,2434.0134,
857.428,2506.7697,
854.518,2535.2613,
851.607,2457.8789,
848.697,2379.1574,
845.786,2316.2862,
842.875,2326.7467,
839.965,2436.7291,
837.054,2588.6582,
834.144,2602.7469,
831.233,2662.8292,
828.323,2678.1466,
825.412,2670.6173,
822.501,2679.0318,
819.591,2654.2398,
816.680,2658.3077,
813.770,2627.5484,
810.859,2580.5231,
807.949,2552.2878,
805.038,2566.5044,
802.127,2558.2731,
799.217,2515.0127,
796.306,2509.5811,
793.396,2509.8816,
790.485,2506.028,
787.574,2530.718,
784.664,2536.4587,
781.753,2536.829,
778.843,2546.3016,
775.932,2566.685,
773.022,2586.8373,
770.111,2569.6681,
767.200,2590.5781,
764.290,2576.1185,
761.379,2571.9222,
758.469,2581.9664,
755.558,2555.1776,
752.648,2611.3852,
749.737,2585.9438,
746.826,2583.284,
743.916,2577.3698,
741.005,2509.9323,
738.095,2487.1997,
735.184,2399.4079,
732.274,2341.8346,
729.363,2361.5201,
726.452,2451.7092,
723.542,2502.701,
720.631,2552.9014,
717.721,2560.6259,
714.810,2566.5397,
711.899,2586.9456,
708.989,2597.4356,
706.078,2597.5,
703.168,2565.9245,
700.257,2570.2543,
697.347,2603.7611,
694.436,2597.6964,
691.525,2604.9306,
688.615,2620.965,
685.704,2623.888,
682.794,2620.2446,
679.883,2633.9057,
676.973,2665.1591,
674.062,2691.2805,
671.151,2672.6936,
668.241,2644.2682,
665.330,2672.3235,
662.420,2605.23,
659.509,2593.4048,
656.598,2590.6053,
653.688,2602.5232,
650.777,2659.149,
647.867,2648.7967,
644.956,2593.2531,
642.046,2539.7701,
639.135,2507.1463,
636.224,2494.8501,
633.314,2564.7167,
630.403,2607.3308,
627.493,2646.7763,
624.582,2666.6086,
621.672,2595.3291,
618.761,2629.737,
615.850,2661.8865,
612.940,2702.0659,
610.029,2747.6315,
607.119,2748.4212,
604.208,2754.1801,
601.297,2798.874,
598.387,2829.1748,
595.476,2793.8204,
592.566,2744.2351,
589.655,2774.3734,
586.745,2802.0095,
583.834,2815.1113,
580.923,2831.5758,
578.013,2844.1316,
575.102,2851.5151,
572.192,2844.1388,
569.281,2823.5316,
566.371,2812.5749,
563.460,2789.6305,
560.549,2811.1986,
557.639,2851.0198,
554.728,2872.7811,
551.818,2893.0693,
548.907,2881.0458,
545.996,2863.5018,
543.086,2850.6546,
540.175,2842.0895,
537.265,2810.356,
534.354,2832.1133,
531.444,2845.158,
528.533,2795.7558,
525.622,2841.5366,
522.712,2826.6231,
519.801,2786.8234,
516.891,2755.0732,
513.980,2787.5936,
511.070,2826.4217,
508.159,2834.8141,
505.248,2826.4986,
502.338,2823.2741,
499.427,2815.5558,
496.517,2837.2576,
493.606,2864.9218,
490.695,2882.6441,
487.785,2876.4858,
484.874,2861.9293,
481.964,2852.8389,
479.053,2853.6256,
476.143,2866.681,
473.232,2845.9179,
470.321,2839.9329,
467.411,2839.2076,
464.500,2830.4697,
461.590,2868.7567,
458.679,2867.3935,
455.769,2875.4587,
452.858,2911.3981,
449.947,2881.6048,
447.037,2834.847,
444.126,2837.3364,
441.216,2888.4843,
438.305,2899.9133,
435.395,2898.2218,
432.484,2895.6665,
429.573,2879.7673,
426.663,2816.6757,
423.752,2577.8646,
420.842,2288.8021,
417.931,2019.1742,
415.020,1856.1272,
412.110,2342.144,
409.199,2661.3752,
406.289,2806.5,
403.378,2806.3566,
400.468,2764.0209,
397.557,2755.1273,
394.646,2807.7129,
391.736,2938.3793,
388.825,2934.6081,
385.915,2928.1781,
383.004,2907.7951,
380.094,2871.5327,
377.183,2930.9784,
374.272,2990.9224,
371.362,3024.2624,
368.451,3016.2265,
365.541,3011.7232,
362.630,3002.8526,
359.719,2996.5,
356.809,2999.8982,
353.898,3056.058,
350.988,3066.0751,
348.077,3059.1767,
345.167,3052.4404,
342.256,3031.5225,
339.345,3026.0314,
336.435,3032.0518,
333.524,3046.7584,
330.614,3054.9551,
327.703,3071.3619,
324.793,3103.5766,
321.882,3158.4585,
318.971,3141.3594,
316.061,3180.9132,
313.150,3231.9643,
310.240,3243.096,
307.329,3313.5344,
304.418,3357.0024,
301.508,3382.5893,
298.597,3409.2443,
295.687,3418.9496,
292.776,3457.9169,
289.866,3531.632,
286.955,3646.1345,
284.044,3773.1874,
281.134,3912.6684,
278.223,4052.5715,
275.313,4135.0992,
272.402,4200.1341,
269.492,4233.2326,
266.581,4226.2434,
263.670,4166.6938,
260.760,4267.5586,
257.849,4385.7651,
254.939,4415.1204,
252.028,4439.3869,
249.117,4458.5502,
246.207,4470.3106,
243.296,4469.5786,
240.386,4440.7684,
237.475,4413.9744,
234.565,4389.6333,
231.654,4352.3837,
228.743,4311.1287,
225.833,4251.132,
222.922,4167.1366,
220.012,4095.0096,
217.101,4059.7228,
214.191,4041.8174,
211.280,4022.9034,
208.369,3938.0712,
205.459,3866.7577,
202.548,3817.1156,
199.638,3797.5231,
196.727,3777.9422,
193.816,3748.4386,
190.906,3704.1383,
187.995,3636.804,
185.085,3616.81,
182.174,3620.6959,
179.264,3621.4186,
176.353,3599.0727,
173.442,3598.827,
170.532,3609.4951,
167.621,3515.0473,
164.711,3464.2727,
161.800,3354.7451,
158.890,3100.6813,
155.979,2887.8794,
153.068,2660.2917,
150.158,2412.6182,
147.247,2131.1809,
144.337,1785.2192,
141.426,1405.7553,
138.516,1002.1455,
135.605,739.10102,
132.694,508.74596,
129.784,320.57013,
126.873,218.30656,
123.963,154.25067,
121.052,105.35251,
118.141,64.6601,
115.231,58.815437,
112.320,50.145461,
109.410,41.363645,
106.499,40.65149,
103.589,37.138473,
100.678,33.141891,
97.767,29.587204,
94.857,21.87712,
91.946,24.546663,
89.036,32.822613,
86.125,28.567381,
83.215,22.190796,
80.304,16.063404,
77.393,11.814384,
74.483,14.775675,
71.572,16.137648,
68.662,15.5,
65.751,15.5,
62.840,15.981702,
59.930,14.252566,
57.019,5.7915818,
54.109,5.0971608,
51.198,5.1983907,
48.288,4.5396371,
45.377,9.4632836,
42.466,10.675561,
39.556,8.8092885,
36.645,4.5961472,
33.735,6.6154908,
30.824,7.5120172,
27.914,1.20144,
25.003,-0.74527495,
22.092,-2.4687137,
19.182,-4.2025228,
16.271,4.8908489,
13.361,8.5,
10.450,-22.508958,
7.539,-202.67432,
4.629,-611.44381,
1.718,-1044.3657,
-1.192,-1350.4121,
-4.103,-984.79212,
-7.013,-503.08378,
-9.924,1.5,
