,PL4848~1,
Raman shift [1/cm],Intensity,
3014.167,2.125,
3011.256,-2.5250322,
3008.346,33.288246,
3005.435,77.20274,
3002.525,77.162472,
2999.614,80.560046,
2996.704,77.98376,
2993.793,73.753456,
2990.882,80.16312,
2987.972,89.15527,
2985.061,92.908248,
2982.151,105.97711,
2979.240,110.92347,
2976.329,115.36817,
2973.419,114.54066,
2970.508,110.52496,
2967.598,117.36396,
2964.687,121.64742,
2961.777,130.18492,
2958.866,116.45041,
2955.955,127.125,
2953.045,137.32635,
2950.134,151.97632,
2947.224,147.6695,
2944.313,131.67557,
2941.403,148.50638,
2938.492,147.08162,
2935.581,146.14091,
2932.671,140.16794,
2929.760,159.40193,
2926.850,149.85658,
2923.939,154.36331,
2921.028,163.20738,
2918.118,150.6653,
2915.207,151.94777,
2912.297,168.05307,
2909.386,163.91332,
2906.476,167.99297,
2903.565,173.0939,
2900.654,156.57191,
2897.744,165.82327,
2894.833,154.08354,
2891.923,167.0705,
2889.012,159.16546,
2886.102,150.43988,
2883.191,167.1014,
2880.280,153.94797,
2877.370,137.99714,
2874.459,125.70375,
2871.549,157.87513,
2868.638,161.35181,
2865.727,169.52114,
2862.817,163.19586,
2859.906,165.46688,
2856.996,170.61368,
2854.085,163.44221,
2851.175,174.91114,
2848.264,178.40933,
2845.353,162.34067,
2842.443,168.13196,
2839.532,162.90111,
2836.622,168.40039,
2833.711,162.71838,
2830.801,161.4125,
2827.890,169.49912,
2824.979,168.33498,
2822.069,167.11363,
2819.158,168.40533,
2816.248,166.89526,
2813.337,162.69207,
2810.427,159.95558,
2807.516,170.64281,
2804.605,157.59857,
2801.695,162.63814,
2798.784,155.19892,
2795.874,178.69492,
2792.963,174.33915,
2790.052,168.12564,
2787.142,167.7435,
2784.231,159.09397,
2781.321,152.06214,
2778.410,166.47903,
2775.500,170.51018,
2772.589,170.43234,
2769.678,165.125,
2766.768,165.93665,
2763.857,174.64908,
2760.947,161.15652,
2758.036,167.81928,
2755.126,177.59722,
2752.215,181.21128,
2749.304,174.2527,
2746.394,177.51206,
2743.483,182.42503,
2740.573,171.68914,
2737.662,170.68861,
2734.751,173.33378,
2731.841,173.80083,
2728.930,184.3073,
2726.020,185.02836,
2723.109,197.01158,
2720.199,185.83128,
2717.288,180.03741,
2714.377,188.70402,
2711.467,186.14148,
2708.556,177.43363,
2705.646,174.81515,
2702.735,181.46005,
2699.825,190.95049,
2696.914,185.36271,
2694.003,188.06972,
2691.093,180.37529,
2688.182,191.17982,
2685.272,200.41661,
2682.361,180.55404,
2679.450,199.54063,
2676.540,189.16565,
2673.629,197.4299,
2670.719,190.85512,
2667.808,197.24956,
2664.898,198.125,
2661.987,202.65842,
2659.076,200.01509,
2656.166,192.93026,
2653.255,183.41922,
2650.345,196.18126,
2647.434,201.21074,
2644.524,203.28328,
2641.613,205.125,
2638.702,207.09344,
2635.792,205.46996,
2632.881,197.27974,
2629.971,198.125,
2627.060,216.45813,
2624.149,214.45001,
2621.239,222.14872,
2618.328,210.61635,
2615.418,199.45682,
2612.507,203.84831,
2609.597,200.6759,
2606.686,210.125,
2603.775,212.5258,
2600.865,202.12837,
2597.954,220.55623,
2595.044,225.49081,
2592.133,220.57088,
2589.223,237.28186,
2586.312,223.85864,
2583.401,231.73812,
2580.491,228.7548,
2577.580,226.12335,
2574.670,228.72258,
2571.759,233.72089,
2568.848,228.47858,
2565.938,217.22023,
2563.027,222.14997,
2560.117,219.59227,
2557.206,222.26153,
2554.296,232.61013,
2551.385,228.81099,
2548.474,234.86589,
2545.564,238.125,
2542.653,246.66191,
2539.743,250.06339,
2536.832,228.69508,
2533.922,226.20385,
2531.011,236.07458,
2528.100,256.05533,
2525.190,243.15123,
2522.279,252.43667,
2519.369,225.36984,
2516.458,237.12146,
2513.548,234.74316,
2510.637,246.44869,
2507.726,235.50046,
2504.816,231.87472,
2501.905,250.41464,
2498.995,250.125,
2496.084,251.65811,
2493.173,246.83526,
2490.263,256.07983,
2487.352,250.79113,
2484.442,247.68173,
2481.531,261.23136,
2478.621,250.07282,
2475.710,256.148,
2472.799,260.11154,
2469.889,262.64023,
2466.978,260.68171,
2464.068,255.33662,
2461.157,273.0826,
2458.247,263.80156,
2455.336,270.16805,
2452.425,275.25708,
2449.515,265.57823,
2446.604,283.83006,
2443.694,278.14801,
2440.783,268.26689,
2437.872,282.05207,
2434.962,281.70103,
2432.051,281.24837,
2429.141,273.27798,
2426.230,270.25538,
2423.320,280.02514,
2420.409,276.39419,
2417.498,287.9031,
2414.588,282.49767,
2411.677,283.44369,
2408.767,271.19586,
2405.856,287.71786,
2402.946,293.65494,
2400.035,287.23532,
2397.124,281.58488,
2394.214,289.881,
2391.303,289.01999,
2388.393,285.16684,
2385.482,279.25719,
2382.571,285.60579,
2379.661,292.75291,
2376.750,305.43773,
2373.840,297.86883,
2370.929,299.06002,
2368.019,303.59419,
2365.108,315.35798,
2362.197,321.87573,
2359.287,299.58683,
2356.376,307.09858,
2353.466,315.125,
2350.555,311.56987,
2347.645,300.79653,
2344.734,305.79322,
2341.823,317.95917,
2338.913,312.25636,
2336.002,322.86662,
2333.092,317.3665,
2330.181,315.89737,
2327.270,336.96989,
2324.360,337.36089,
2321.449,316.03317,
2318.539,314.46443,
2315.628,328.74571,
2312.718,315.16023,
2309.807,324.42295,
2306.896,335.57413,
2303.986,319.60555,
2301.075,335.23134,
2298.165,315.78797,
2295.254,322.8234,
2292.344,327.80545,
2289.433,343.13273,
2286.522,332.80367,
2283.612,339.7564,
2280.701,330.81562,
2277.791,344.52388,
2274.880,334.19092,
2271.969,340.61471,
2269.059,328.80075,
2266.148,352.01148,
2263.238,353.82771,
2260.327,348.5732,
2257.417,344.92055,
2254.506,355.1022,
2251.595,352.125,
2248.685,341.07696,
2245.774,379.47592,
2242.864,348.93049,
2239.953,349.08357,
2237.043,355.22858,
2234.132,351.87823,
2231.221,367.62636,
2228.311,381.82344,
2225.400,369.26573,
2222.490,373.19664,
2219.579,372.88594,
2216.669,379.12977,
2213.758,379.42958,
2210.847,401.08215,
2207.937,386.93936,
2205.026,399.56902,
2202.116,411.125,
2199.205,410.30006,
2196.294,423.17496,
2193.384,431.9935,
2190.473,427.69307,
2187.563,425.30867,
2184.652,463.27561,
2181.742,462.94304,
2178.831,469.79819,
2175.920,476.8791,
2173.010,498.50198,
2170.099,531.52233,
2167.189,537.32591,
2164.278,569.82048,
2161.368,600.83884,
2158.457,625.7992,
2155.546,648.80673,
2152.636,647.33777,
2149.725,691.89677,
2146.815,719.49099,
2143.904,723.53391,
2140.993,739.30497,
2138.083,727.05506,
2135.172,733.67118,
2132.262,733.13204,
2129.351,726.3077,
2126.441,719.59101,
2123.530,659.83318,
2120.619,634.53783,
2117.709,627.10487,
2114.798,576.20551,
2111.888,545.76225,
2108.977,530.14485,
2106.067,493.85691,
2103.156,490.52418,
2100.245,458.11371,
2097.335,442.53337,
2094.424,449.11492,
2091.514,422.70572,
2088.603,441.92222,
2085.692,440.21425,
2082.782,446.72734,
2079.871,419.90914,
2076.961,417.80211,
2074.050,431.05833,
2071.140,409.32047,
2068.229,410.5677,
2065.318,430.48351,
2062.408,429.27629,
2059.497,401.08926,
2056.587,408.27585,
2053.676,406.3256,
2050.766,412.43217,
2047.855,409.125,
2044.944,409.65705,
2042.034,410.75503,
2039.123,410.94655,
2036.213,412.85828,
2033.302,404.27705,
2030.391,417.5655,
2027.481,409.22267,
2024.570,389.95397,
2021.660,420.05548,
2018.749,420.7451,
2015.839,409.2418,
2012.928,403.79111,
2010.017,418.98276,
2007.107,400.35677,
2004.196,411.50601,
2001.286,422.29109,
1998.375,420.51673,
1995.465,410.89911,
1992.554,413.38378,
1989.643,388.05822,
1986.733,405.57324,
1983.822,384.75498,
1980.912,420.11469,
1978.001,405.9469,
1975.090,402.96011,
1972.180,383.81517,
1969.269,387.1825,
1966.359,410.99008,
1963.448,381.40768,
1960.538,384.97821,
1957.627,398.04142,
1954.716,399.125,
1951.806,372.96309,
1948.895,408.76264,
1945.985,412.51225,
1943.074,406.19886,
1940.164,385.09591,
1937.253,368.56841,
1934.342,381.19345,
1931.432,404.13447,
1928.521,376.16126,
1925.611,355.84577,
1922.700,375.11947,
1919.790,348.25831,
1916.879,394.28878,
1913.968,346.18894,
1911.058,365.9178,
1908.147,376.46076,
1905.237,381.25741,
1902.326,402.03911,
1899.415,358.4372,
1896.505,368.17328,
1893.594,373.67376,
1890.684,368.15767,
1887.773,366.23714,
1884.863,391.55097,
1881.952,382.01525,
1879.041,393.06322,
1876.131,380.57991,
1873.220,399.66049,
1870.310,383.63176,
1867.399,361.46087,
1864.489,347.83851,
1861.578,386.38902,
1858.667,357.46028,
1855.757,395.74075,
1852.846,385.66344,
1849.936,398.45134,
1847.025,392.00089,
1844.114,404.22612,
1841.204,384.08654,
1838.293,393.61918,
1835.383,409.69449,
1832.472,415.9737,
1829.562,404.18177,
1826.651,392.28723,
1823.740,422.61165,
1820.830,408.88855,
1817.919,432.88568,
1815.009,410.15681,
1812.098,403.32973,
1809.188,413.44281,
1806.277,423.90368,
1803.366,432.07509,
1800.456,427.64116,
1797.545,406.18153,
1794.635,444.44797,
1791.724,437.4162,
1788.813,453.5178,
1785.903,431.35949,
1782.992,430.2472,
1780.082,419.09975,
1777.171,420.46655,
1774.261,440.90479,
1771.350,433.4145,
1768.439,440.61317,
1765.529,438.67225,
1762.618,453.50688,
1759.708,440.26614,
1756.797,433.80682,
1753.887,440.99672,
1750.976,453.09751,
1748.065,436.93299,
1745.155,447.95062,
1742.244,452.53081,
1739.334,448.49441,
1736.423,466.78853,
1733.512,479.21851,
1730.602,460.92854,
1727.691,416.50963,
1724.781,436.58806,
1721.870,472.48706,
1718.960,447.88018,
1716.049,464.61629,
1713.138,471.68999,
1710.228,456.45965,
1707.317,474.47014,
1704.407,464.54744,
1701.496,529.66799,
1698.586,497.31765,
1695.675,519.38913,
1692.764,460.5348,
1689.854,475.30218,
1686.943,538.93283,
1684.033,519.6714,
1681.122,481.77071,
1678.211,539.56348,
1675.301,546.1065,
1672.390,565.04724,
1669.480,539.42181,
1666.569,576.53127,
1663.659,607.81468,
1660.748,590.24334,
1657.837,647.73735,
1654.927,673.48496,
1652.016,607.28762,
1649.106,693.65986,
1646.195,674.69343,
1643.285,657.71745,
1640.374,683.45949,
1637.463,699.8636,
1634.553,740.95256,
1631.642,796.39645,
1628.732,821.48645,
1625.821,882.16818,
1622.911,947.75308,
1620.000,928.37697,
1617.089,1060.4384,
1614.179,1109.7714,
1611.268,1157.3405,
1608.358,1263.0213,
1605.447,1243.6105,
1602.536,1280.3324,
1599.626,1256.4469,
1596.715,1255.9402,
1593.805,1205.1481,
1590.894,1182.3923,
1587.984,1178.3928,
1585.073,1168.766,
1582.162,1160.4459,
1579.252,1195.1302,
1576.341,1168.6793,
1573.431,1147.5942,
1570.520,1144.8894,
1567.610,1115.3206,
1564.699,1098.5997,
1561.788,1066.5478,
1558.878,1068.463,
1555.967,1024.9145,
1553.057,1024.0041,
1550.146,1026.4487,
1547.235,1013.2217,
1544.325,963.31692,
1541.414,934.06563,
1538.504,943.23542,
1535.593,914.98865,
1532.683,898.12259,
1529.772,897.42532,
1526.861,866.10171,
1523.951,863.47949,
1521.040,866.04186,
1518.130,846.41518,
1515.219,821.72458,
1512.309,830.67453,
1509.398,802.09478,
1506.487,760.29811,
1503.577,778.79524,
1500.666,824.75993,
1497.756,789.20963,
1494.845,778.60526,
1491.934,789.90767,
1489.024,723.49567,
1486.113,758.21362,
1483.203,735.36814,
1480.292,732.97351,
1477.382,721.80953,
1474.471,699.94053,
1471.560,720.97465,
1468.650,673.73001,
1465.739,688.11637,
1462.829,706.35046,
1459.918,702.57251,
1457.008,740.71011,
1454.097,711.57424,
1451.186,638.69947,
1448.276,673.16667,
1445.365,707.30115,
1442.455,689.3311,
1439.544,711.27302,
1436.633,688.84396,
1433.723,707.88481,
1430.812,685.93771,
1427.902,695.78675,
1424.991,681.57032,
1422.081,651.76573,
1419.170,607.6501,
1416.259,629.47721,
1413.349,660.29271,
1410.438,628.93734,
1407.528,628.21854,
1404.617,609.52997,
1401.707,607.61304,
1398.796,625.95716,
1395.885,637.80618,
1392.975,628.16575,
1390.064,601.36892,
1387.154,619.33901,
1384.243,571.19342,
1381.332,563.2116,
1378.422,612.70466,
1375.511,623.94603,
1372.601,668.36038,
1369.690,709.84279,
1366.780,736.71791,
1363.869,780.62828,
1360.958,760.13354,
1358.048,781.28358,
1355.137,830.20373,
1352.227,832.73927,
1349.316,813.68032,
1346.406,856.99694,
1343.495,943.12848,
1340.584,934.054,
1337.674,906.76821,
1334.763,913.74812,
1331.853,956.40075,
1328.942,945.6725,
1326.032,1008.559,
1323.121,1054.9865,
1320.210,1064.1272,
1317.300,1048.3692,
1314.389,1091.5705,
1311.479,1129.4552,
1308.568,1127.8518,
1305.657,1150.7535,
1302.747,1138.4856,
1299.836,1138.0072,
1296.926,1239.176,
1294.015,1283.3035,
1291.105,1308.8996,
1288.194,1308.1313,
1285.283,1350.0852,
1282.373,1449.3903,
1279.462,1466.3805,
1276.552,1458.7786,
1273.641,1491.652,
1270.731,1503.0101,
1267.820,1484.6566,
1264.909,1492.3222,
1261.999,1451.8227,
1259.088,1498.3409,
1256.178,1423.1875,
1253.267,1413.961,
1250.356,1394.8074,
1247.446,1341.7072,
1244.535,1279.4108,
1241.625,1224.5177,
1238.714,1192.6818,
1235.804,1179.9601,
1232.893,1127.2421,
1229.982,1162.5117,
1227.072,1144.4055,
1224.161,1127.9959,
1221.251,1086.4105,
1218.340,1058.8731,
1215.430,1045.6196,
1212.519,1036.1446,
1209.608,1034.3775,
1206.698,1045.4442,
1203.787,1050.1401,
1200.877,1026.1339,
1197.966,1074.6885,
1195.055,1089.0705,
1192.145,1121.9301,
1189.234,1145.1008,
1186.324,1166.3082,
1183.413,1194.0235,
1180.503,1208.0544,
1177.592,1201.0039,
1174.681,1206.2278,
1171.771,1132.011,
1168.860,1170.4139,
1165.950,1133.0042,
1163.039,1118.2362,
1160.129,1104.3279,
1157.218,1105.7397,
1154.307,1107.5914,
1151.397,1087.6507,
1148.486,1074.5227,
1145.576,1087.5853,
1142.665,1075.1546,
1139.754,1072.4977,
1136.844,1056.018,
1133.933,1039.7409,
1131.023,1045.3995,
1128.112,1049.8406,
1125.202,1041.096,
1122.291,1061.8635,
1119.380,1032.0297,
1116.470,1022.3219,
1113.559,1055.148,
1110.649,1072.3283,
1107.738,1068.6235,
1104.828,1067.5343,
1101.917,1064.1778,
1099.006,1040.228,
1096.096,1050.125,
1093.185,1050.125,
1090.275,1036.3674,
1087.364,1048.2197,
1084.453,1057.3749,
1081.543,1066.5748,
1078.632,1057.3213,
1075.722,1024.7758,
1072.811,1060.5116,
1069.901,1037.8069,
1066.990,1063.6083,
1064.079,1068.764,
1061.169,1080.8279,
1058.258,1097.0538,
1055.348,1098.6579,
1052.437,1086.0768,
1049.527,1102.7026,
1046.616,1143.5376,
1043.705,1149.6665,
1040.795,1123.9463,
1037.884,1126.8258,
1034.974,1150.8286,
1032.063,1162.3635,
1029.153,1165.3061,
1026.242,1183.4702,
1023.331,1156.6268,
1020.421,1169.9467,
1017.510,1179.2456,
1014.600,1181.8167,
1011.689,1190.1115,
1008.778,1210.403,
1005.868,1241.6192,
1002.957,1296.6819,
1000.047,1337.157,
997.136,1363.8081,
994.226,1389.294,
991.315,1392.5978,
988.404,1353.396,
985.494,1334.1634,
982.583,1335.8765,
979.673,1323.687,
976.762,1333.8026,
973.852,1340.5889,
970.941,1337.3105,
968.030,1340.5759,
965.120,1343.0462,
962.209,1324.2903,
959.299,1345.2055,
956.388,1323.767,
953.477,1313.922,
950.567,1339.3078,
947.656,1349.0082,
944.746,1332.8666,
941.835,1334.5544,
938.925,1345.6538,
936.014,1329.8803,
933.103,1323.6019,
930.193,1346.1299,
927.282,1329.0251,
924.372,1308.7306,
921.461,1271.5142,
918.551,1256.8013,
915.640,1249.6007,
912.729,1248.0288,
909.819,1263.1242,
906.908,1255.5423,
903.998,1240.8084,
901.087,1268.3138,
898.176,1283.739,
895.266,1299.5341,
892.355,1339.9103,
889.445,1344.1066,
886.534,1343.2901,
883.624,1335.7238,
880.713,1335.1871,
877.802,1355.4946,
874.892,1382.6096,
871.981,1357.5726,
869.071,1334.1811,
866.160,1340.4744,
863.250,1336.2136,
860.339,1331.7047,
857.428,1336.0206,
854.518,1326.114,
851.607,1291.1671,
848.697,1303.0082,
845.786,1288.2905,
842.875,1275.5142,
839.965,1296.6931,
837.054,1321.818,
834.144,1294.4692,
831.233,1305.1238,
828.323,1323.0164,
825.412,1306.0801,
822.501,1252.9974,
819.591,1274.4838,
816.680,1232.657,
813.770,1229.643,
810.859,1245.8573,
807.949,1255.164,
805.038,1243.7179,
802.127,1256.888,
799.217,1217.8739,
796.306,1217.1792,
793.396,1221.6746,
790.485,1211.2298,
787.574,1204.2184,
784.664,1206.6787,
781.753,1187.6665,
778.843,1201.6489,
775.932,1212.545,
773.022,1185.6753,
770.111,1208.5675,
767.200,1232.9644,
764.290,1253.9941,
761.379,1236.5543,
758.469,1205.6347,
755.558,1247.885,
752.648,1206.3403,
749.737,1189.6387,
746.826,1179.9966,
743.916,1163.2352,
741.005,1127.3301,
738.095,1058.3205,
735.184,971.46843,
732.274,972.20474,
729.363,1024.6611,
726.452,1085.3042,
723.542,1163.8154,
720.631,1199.4711,
717.721,1211.9892,
714.810,1194.3297,
711.899,1163.8181,
708.989,1171.0804,
706.078,1203.9784,
703.168,1212.125,
700.257,1198.5101,
697.347,1176.9513,
694.436,1169.3214,
691.525,1176.5556,
688.615,1183.1563,
685.704,1183.9665,
682.794,1177.3804,
679.883,1167.7201,
676.973,1225.4188,
674.062,1193.0973,
671.151,1178.2066,
668.241,1188.0278,
665.330,1179.7889,
662.420,1214.9331,
659.509,1205.6168,
656.598,1177.9495,
653.688,1172.7584,
650.777,1233.9369,
647.867,1198.8985,
644.956,1197.3165,
642.046,1182.8827,
639.135,1157.3346,
636.224,1158.3438,
633.314,1202.0104,
630.403,1201.892,
627.493,1201.0383,
624.582,1214.9501,
621.672,1227.622,
618.761,1213.6862,
615.850,1209.125,
612.940,1230.9832,
610.029,1267.9956,
607.119,1237.2,
604.208,1253.2954,
601.297,1249.6591,
598.387,1242.7111,
595.476,1253.3079,
592.566,1244.6502,
589.655,1233.4066,
586.745,1232.0307,
583.834,1225.7066,
580.923,1185.0918,
578.013,1179.5987,
575.102,1168.374,
572.192,1172.9154,
569.281,1194.2656,
566.371,1195.0482,
563.460,1219.8164,
560.549,1238.896,
557.639,1249.4678,
554.728,1252.6816,
551.818,1245.6587,
548.907,1254.485,
545.996,1257.2371,
543.086,1256.9967,
540.175,1284.2493,
537.265,1292.6435,
534.354,1302.6504,
531.444,1305.6665,
528.533,1296.1667,
525.622,1324.8768,
522.712,1326.8777,
519.801,1331.3807,
516.891,1348.9157,
513.980,1377.5646,
511.070,1401.2554,
508.159,1421.5866,
505.248,1433.3739,
502.338,1432.0287,
499.427,1462.902,
496.517,1475.6502,
493.606,1498.978,
490.695,1533.2037,
487.785,1497.7933,
484.874,1533.4833,
481.964,1539.0986,
479.053,1513.2864,
476.143,1505.6068,
473.232,1469.8742,
470.321,1492.1317,
467.411,1514.4229,
464.500,1467.8729,
461.590,1457.9183,
458.679,1467.7818,
455.769,1474.6593,
452.858,1469.0338,
449.947,1487.3682,
447.037,1506.9008,
444.126,1518.9735,
441.216,1516.9658,
438.305,1487.2504,
435.395,1512.6286,
432.484,1526.0412,
429.573,1522.415,
426.663,1519.3744,
423.752,1535.1656,
420.842,1514.2672,
417.931,1500.7327,
415.020,1569.7432,
412.110,1560.4192,
409.199,1583.0198,
406.289,1600.5479,
403.378,1568.2505,
400.468,1605.2942,
397.557,1602.2147,
394.646,1571.9643,
391.736,1528.8976,
388.825,1553.033,
385.915,1548.4167,
383.004,1540.1238,
380.094,1545.816,
377.183,1559.3606,
374.272,1579.9512,
371.362,1619.7315,
368.451,1682.1736,
365.541,1699.4359,
362.630,1692.6539,
359.719,1694.0758,
356.809,1719.8531,
353.898,1715.3604,
350.988,1708.1576,
348.077,1696.736,
345.167,1682.9035,
342.256,1718.0158,
339.345,1707.9306,
336.435,1693.4561,
333.524,1702.1015,
330.614,1701.3564,
327.703,1701.6384,
324.793,1702.6406,
321.882,1704.1863,
318.971,1729.4633,
316.061,1740.5666,
313.150,1735.2726,
310.240,1710.0407,
307.329,1767.7252,
304.418,1789.3012,
301.508,1769.2049,
298.597,1701.827,
295.687,1733.3732,
292.776,1753.625,
289.866,1792.3111,
286.955,1959.263,
284.044,1996.4075,
281.134,2034.8589,
278.223,2091.6518,
275.313,2122.5997,
272.402,2159.9129,
269.492,2202.7204,
266.581,2246.9148,
263.670,2243.9741,
260.760,2285.9604,
257.849,2342.319,
254.939,2391.4892,
252.028,2390.6773,
249.117,2374.5929,
246.207,2348.3592,
243.296,2318.3456,
240.386,2326.8789,
237.475,2299.7007,
234.565,2241.6387,
231.654,2213.1537,
228.743,2197.9191,
225.833,2156.9766,
222.922,2081.1974,
220.012,2125.6393,
217.101,2104.7935,
214.191,2073.1519,
211.280,2089.8835,
208.369,2065.5581,
205.459,2073.4868,
202.548,2095.0999,
199.638,2042.8532,
196.727,2044.8018,
193.816,2048.4056,
190.906,2037.1312,
187.995,2094.3291,
185.085,2117.9078,
182.174,2118.5991,
179.264,2105.5893,
176.353,2081.6977,
173.442,2089.7908,
170.532,2123.9408,
167.621,2105.1955,
164.711,2061.233,
161.800,2005.9723,
158.890,1946.9546,
155.979,1851.0042,
153.068,1727.8073,
150.158,1573.5801,
147.247,1364.656,
144.337,1138.5651,
141.426,897.45119,
138.516,640.08723,
135.605,461.55528,
132.694,313.26208,
129.784,198.27857,
126.873,137.49254,
123.963,92.118932,
121.052,61.742505,
118.141,48.178367,
115.231,33.203023,
112.320,27.548636,
109.410,26.897803,
106.499,20.488406,
103.589,16.323728,
100.678,13.038513,
97.767,10.194763,
94.857,10.125,
91.946,10.125,
89.036,10.237898,
86.125,10.947103,
83.215,12.717761,
80.304,11.730673,
77.393,4.6489738,
74.483,6.0904049,
71.572,7.125,
68.662,6.986465,
65.751,5.5735628,
62.840,7.5335099,
59.930,8.8139966,
57.019,3.8784227,
54.109,1.9306783,
51.198,2.3314371,
48.288,5.1193376,
45.377,4.4159595,
42.466,4.125,
39.556,4.0098814,
36.645,3.3076912,
33.735,-0.50973926,
30.824,-1.2243563,
27.914,7.1897466,
25.003,8.125,
22.092,10.708236,
19.182,16.399594,
16.271,24.793476,
13.361,96.401192,
10.450,245.89305,
7.539,569.91138,
4.629,747.0635,
1.718,765.48972,
-1.192,541.70633,
-4.103,298.61767,
-7.013,110.87338,
-9.924,-1.875,
