,PLDE83~1,
Wavenumbers [1/cm],Intensity,
3014.167,-1.625,
3011.256,0.17495705,
3008.346,74.297623,
3005.435,71.608219,
3002.525,80.204978,
2999.614,87.791918,
2996.704,103.6049,
2993.793,99.870392,
2990.882,99.985705,
2987.972,117.2741,
2985.061,103.13855,
2982.151,111.25567,
2979.240,119.42538,
2976.329,130.89957,
2973.419,130.77474,
2970.508,133.35838,
2967.598,120.42279,
2964.687,125.19565,
2961.777,123.03306,
2958.866,151.71378,
2955.955,136.78651,
2953.045,147.64122,
2950.134,144.98142,
2947.224,158.48888,
2944.313,164.17272,
2941.403,175.93476,
2938.492,186.09858,
2935.581,197.41793,
2932.671,194.09604,
2929.760,205.25578,
2926.850,211.32274,
2923.939,197.375,
2921.028,209.70454,
2918.118,197.49338,
2915.207,176.13439,
2912.297,205.2269,
2909.386,192.78376,
2906.476,181.0576,
2903.565,184.64982,
2900.654,184.77438,
2897.744,170.42529,
2894.833,173.13791,
2891.923,165.6987,
2889.012,148.70448,
2886.102,156.54257,
2883.191,106.41937,
2880.280,87.619002,
2877.370,-108.52566,
2874.459,-202.18434,
2871.549,-56.545087,
2868.638,116.02233,
2865.727,124.11345,
2862.817,157.79075,
2859.906,175.00748,
2856.996,170.84556,
2854.085,216.98642,
2851.175,181.7816,
2848.264,192.01717,
2845.353,180.87104,
2842.443,202.9757,
2839.532,193.83774,
2836.622,202.55469,
2833.711,194.47861,
2830.801,190.08015,
2827.890,200.54284,
2824.979,206.375,
2822.069,197.62519,
2819.158,207.59332,
2816.248,198.83447,
2813.337,216.69452,
2810.427,208.98519,
2807.516,197.11609,
2804.605,205.57933,
2801.695,201.84867,
2798.784,197.44892,
2795.874,195.96077,
2792.963,193.30383,
2790.052,200.37479,
2787.142,199.90146,
2784.231,196.21509,
2781.321,196.94074,
2778.410,198.32044,
2775.500,196.03362,
2772.589,214.45146,
2769.678,209.23165,
2766.768,217.05656,
2763.857,217.11103,
2760.947,211.88446,
2758.036,220.15211,
2755.126,222.47329,
2752.215,217.56595,
2749.304,221.2473,
2746.394,219.49191,
2743.483,230.67499,
2740.573,222.72894,
2737.662,216.375,
2734.751,219.16622,
2731.841,219.59112,
2728.930,219.98927,
2726.020,232.70139,
2723.109,222.94208,
2720.199,229.14071,
2717.288,226.07574,
2714.377,233.375,
2711.467,236.58819,
2708.556,227.11984,
2705.646,216.30456,
2702.735,242.53737,
2699.825,236.41863,
2696.914,241.66092,
2694.003,256.27418,
2691.093,255.23181,
2688.182,243.32018,
2685.272,258.38354,
2682.361,238.13373,
2679.450,252.28443,
2676.540,239.25306,
2673.629,241.00725,
2670.719,258.30199,
2667.808,249.86136,
2664.898,248.89445,
2661.987,250.375,
2659.076,249.50216,
2656.166,238.97237,
2653.255,255.51956,
2650.345,252.83053,
2647.434,248.94717,
2644.524,270.58361,
2641.613,272.34672,
2638.702,263.59593,
2635.792,258.84459,
2632.881,256.99397,
2629.971,259.50251,
2627.060,265.54094,
2624.149,272.75312,
2621.239,263.10277,
2618.328,259.29023,
2615.418,256.71136,
2612.507,262.82161,
2609.597,263.74227,
2606.686,263.07582,
2603.775,278.85516,
2600.865,267.90739,
2597.954,289.80623,
2595.044,292.42814,
2592.133,276.70617,
2589.223,282.39922,
2586.312,296.29966,
2583.401,284.51735,
2580.491,286.92308,
2577.580,280.38325,
2574.670,283.71458,
2571.759,282.67808,
2568.848,290.31425,
2565.938,294.56546,
2563.027,286.49552,
2560.117,276.36567,
2557.206,289.41559,
2554.296,285.09125,
2551.385,296.00303,
2548.474,317.67166,
2545.564,287.60957,
2542.653,322.375,
2539.743,311.51055,
2536.832,299.61986,
2533.922,315.35923,
2531.011,314.92495,
2528.100,307.31225,
2525.190,318.34877,
2522.279,316.20255,
2519.369,291.77126,
2516.458,290.375,
2513.548,300.89303,
2510.637,316.66614,
2507.726,330.4419,
2504.816,317.375,
2501.905,318.18659,
2498.995,320.49444,
2496.084,324.82798,
2493.173,313.79553,
2490.263,319.52079,
2487.352,333.58207,
2484.442,321.35571,
2481.531,333.74205,
2478.621,326.76835,
2475.710,343.352,
2472.799,337.90866,
2469.889,327.95117,
2466.978,333.31307,
2464.068,338.29035,
2461.157,342.41252,
2458.247,341.7868,
2455.336,352.31043,
2452.425,346.4599,
2449.515,346.72428,
2446.604,352.49715,
2443.694,345.375,
2440.783,352.66216,
2437.872,353.57277,
2434.962,333.68836,
2432.051,344.20229,
2429.141,343.54569,
2426.230,349.72309,
2423.320,362.7891,
2420.409,363.94564,
2417.498,368.9312,
2414.588,358.12034,
2411.677,348.73358,
2408.767,358.62795,
2405.856,370.63208,
2402.946,375.84506,
2400.035,370.57688,
2397.124,371.72259,
2394.214,379.4554,
2391.303,365.33638,
2388.393,344.93776,
2385.482,331.77156,
2382.571,313.4883,
2379.661,341.07255,
2376.750,370.89705,
2373.840,382.02189,
2370.929,375.43998,
2368.019,402.30233,
2365.108,403.6551,
2362.197,390.38869,
2359.287,396.35829,
2356.376,401.36972,
2353.466,403.02745,
2350.555,390.56004,
2347.645,391.1909,
2344.734,390.375,
2341.823,401.19258,
2338.913,420.46751,
2336.002,405.71229,
2333.092,412.50142,
2330.181,404.32132,
2327.270,387.20008,
2324.360,421.76181,
2321.449,417.51447,
2318.539,422.71443,
2315.628,413.28267,
2312.718,424.74065,
2309.807,423.49272,
2306.896,441.79283,
2303.986,423.86213,
2301.075,414.22616,
2298.165,422.11585,
2295.254,439.13803,
2292.344,419.41634,
2289.433,441.54863,
2286.522,427.07121,
2283.612,459.96557,
2280.701,459.04765,
2277.791,453.77388,
2274.880,440.65898,
2271.969,453.49846,
2269.059,452.96899,
2266.148,448.21139,
2263.238,455.77268,
2260.327,456.47833,
2257.417,451.49166,
2254.506,471.13852,
2251.595,460.09504,
2248.685,473.05186,
2245.774,469.46308,
2242.864,468.82886,
2239.953,477.19566,
2237.043,482.98536,
2234.132,474.1153,
2231.221,475.19158,
2228.311,479.24484,
2225.400,510.55878,
2222.490,483.11769,
2219.579,484.66548,
2216.669,493.31777,
2213.758,500.15669,
2210.847,487.70247,
2207.937,511.27562,
2205.026,517.37471,
2202.116,525.63721,
2199.205,536.2743,
2196.294,546.44101,
2193.384,534.13849,
2190.473,562.97829,
2187.563,578.3605,
2184.652,575.22439,
2181.742,572.30656,
2178.831,573.09098,
2175.920,574.54622,
2173.010,598.65221,
2170.099,605.90873,
2167.189,599.52569,
2164.278,621.2554,
2161.368,627.23204,
2158.457,618.78432,
2155.546,630.16158,
2152.636,645.49735,
2149.725,659.18707,
2146.815,669.14142,
2143.904,667.58316,
2140.993,686.21099,
2138.083,692.95245,
2135.172,712.8624,
2132.262,704.9868,
2129.351,689.5577,
2126.441,691.67599,
2123.530,675.49846,
2120.619,681.6963,
2117.709,655.53925,
2114.798,646.89403,
2111.888,598.8759,
2108.977,595.26905,
2106.067,574.79827,
2103.156,581.21203,
2100.245,574.37312,
2097.335,571.13416,
2094.424,564.10931,
2091.514,555.95572,
2088.603,567.57778,
2085.692,566.92145,
2082.782,560.89312,
2079.871,557.375,
2076.961,559.24584,
2074.050,582.21136,
2071.140,560.98407,
2068.229,566.38152,
2065.318,569.09201,
2062.408,579.48091,
2059.497,586.2024,
2056.587,567.00337,
2053.676,548.02545,
2050.766,563.91237,
2047.855,573.20413,
2044.944,564.98078,
2042.034,549.84899,
2039.123,557.49621,
2036.213,568.49055,
2033.302,576.61399,
2030.391,567.62969,
2027.481,573.25291,
2024.570,571.63232,
2021.660,559.08455,
2018.749,593.81739,
2015.839,554.64403,
2012.928,563.73071,
2010.017,580.90811,
2007.107,555.32638,
2004.196,547.00597,
2001.286,569.89794,
1998.375,563.97834,
1995.465,545.3625,
1992.554,531.85744,
1989.643,525.54782,
1986.733,535.41184,
1983.822,524.86392,
1980.912,553.67116,
1978.001,525.52714,
1975.090,533.41316,
1972.180,514.5133,
1969.269,536.41532,
1966.359,518.10424,
1963.448,521.48201,
1960.538,534.43255,
1957.627,530.02515,
1954.716,525.48991,
1951.806,544.02725,
1948.895,533.29409,
1945.985,514.77043,
1943.074,542.96185,
1940.164,513.5479,
1937.253,492.91862,
1934.342,482.35789,
1931.432,489.61159,
1928.521,489.23165,
1925.611,486.81654,
1922.700,498.45511,
1919.790,492.76238,
1916.879,472.76999,
1913.968,504.33442,
1911.058,520.79841,
1908.147,482.91367,
1905.237,475.36031,
1902.326,477.57353,
1899.415,450.54937,
1896.505,420.93515,
1893.594,432.54277,
1890.684,468.63638,
1887.773,471.75443,
1884.863,490.06065,
1881.952,480.05522,
1879.041,486.2613,
1876.131,510.10571,
1873.220,490.83951,
1870.310,504.08349,
1867.399,498.48696,
1864.489,459.24429,
1861.578,503.88061,
1858.667,486.881,
1855.757,474.16856,
1852.846,483.38525,
1849.936,494.81643,
1847.025,504.55262,
1844.114,515.06682,
1841.204,537.4729,
1838.293,529.88581,
1835.383,516.81701,
1832.472,516.71239,
1829.562,524.84662,
1826.651,532.16144,
1823.740,531.46312,
1820.830,516.48511,
1817.919,535.99192,
1815.009,502.84447,
1812.098,534.07576,
1809.188,580.5842,
1806.277,516.87997,
1803.366,523.22527,
1800.456,514.97953,
1797.545,529.43153,
1794.635,568.08498,
1791.724,559.20995,
1788.813,562.98091,
1785.903,566.60185,
1782.992,514.35114,
1780.082,463.00583,
1777.171,333.3557,
1774.261,310.65099,
1771.350,428.82651,
1768.439,525.61565,
1765.529,588.92037,
1762.618,583.06061,
1759.708,575.3315,
1756.797,601.3447,
1753.887,611.83564,
1750.976,597.83704,
1748.065,576.94182,
1745.155,592.83932,
1742.244,601.0915,
1739.334,593.26677,
1736.423,606.9189,
1733.512,604.64327,
1730.602,641.76792,
1727.691,639.25413,
1724.781,646.17365,
1721.870,634.08443,
1718.960,664.08652,
1716.049,664.6632,
1713.138,669.35997,
1710.228,637.30371,
1707.317,639.45157,
1704.407,658.34294,
1701.496,704.12929,
1698.586,692.66726,
1695.675,694.18213,
1692.764,649.87907,
1689.854,655.02855,
1686.943,720.11538,
1684.033,703.84689,
1681.122,702.39199,
1678.211,700.39403,
1675.301,755.20541,
1672.390,749.28528,
1669.480,719.91247,
1666.569,786.97171,
1663.659,833.26067,
1660.748,826.74135,
1657.837,845.63744,
1654.927,857.23443,
1652.016,851.64229,
1649.106,862.54637,
1646.195,870.88551,
1643.285,933.08138,
1640.374,963.50043,
1637.463,969.95147,
1634.553,1002.4242,
1631.642,1072.8853,
1628.732,1119.6653,
1625.821,1168.409,
1622.911,1220.082,
1620.000,1326.0269,
1617.089,1450.8675,
1614.179,1532.0907,
1611.268,1584.4417,
1608.358,1725.5388,
1605.447,1804.9756,
1602.536,1805.6475,
1599.626,1831.1331,
1596.715,1885.1083,
1593.805,1859.0734,
1590.894,1787.5634,
1587.984,1819.0813,
1585.073,1715.6196,
1582.162,1700.5494,
1579.252,1662.0965,
1576.341,1590.091,
1573.431,1564.9769,
1570.520,1557.7887,
1567.610,1542.963,
1564.699,1486.8979,
1561.788,1479.3467,
1558.878,1447.5058,
1555.967,1365.6299,
1553.057,1350.2369,
1550.146,1343.1678,
1547.235,1323.5201,
1544.325,1313.9818,
1541.414,1288.1525,
1538.504,1289.4409,
1535.593,1276.7517,
1532.683,1238.2405,
1529.772,1253.6434,
1526.861,1283.996,
1523.951,1280.057,
1521.040,1284.9292,
1518.130,1321.8823,
1515.219,1318.8948,
1512.309,1315.9606,
1509.398,1283.723,
1506.487,1276.7132,
1503.577,1295.6761,
1500.666,1238.2558,
1497.756,1237.7659,
1494.845,1337.1338,
1491.934,1282.9655,
1489.024,1157.8415,
1486.113,1250.7326,
1483.203,1230.8418,
1480.292,1159.4941,
1477.382,1191.8287,
1474.471,1122.5676,
1471.560,1093.2953,
1468.650,1085.9088,
1465.739,1082.7345,
1462.829,1105.6509,
1459.918,1148.4471,
1457.008,1170.375,
1454.097,1151.4265,
1451.186,1137.2764,
1448.276,1132.8783,
1445.365,1091.5867,
1442.455,1053.542,
1439.544,1038.0671,
1436.633,1044.9281,
1433.723,1028.5147,
1430.812,995.40936,
1427.902,1007.6985,
1424.991,979.26563,
1422.081,1000.3945,
1419.170,987.68597,
1416.259,990.23538,
1413.349,963.43108,
1410.438,969.77015,
1407.528,956.41901,
1404.617,922.477,
1401.707,869.27917,
1398.796,827.87852,
1395.885,822.92228,
1392.975,811.31175,
1390.064,782.20102,
1387.154,783.43053,
1384.243,755.65054,
1381.332,743.05905,
1378.422,709.82415,
1375.511,737.92758,
1372.601,853.57129,
1369.690,903.66446,
1366.780,856.51661,
1363.869,934.63758,
1360.958,953.52981,
1358.048,953.68137,
1355.137,996.69857,
1352.227,1016.6494,
1349.316,1027.9819,
1346.406,1074.5681,
1343.495,1080.3785,
1340.584,1101.659,
1337.674,1210.0518,
1334.763,1183.0807,
1331.853,1201.6253,
1328.942,1248.6271,
1326.032,1306.5747,
1323.121,1285.7726,
1320.210,1333.6419,
1317.300,1349.7997,
1314.389,1375.3201,
1311.479,1428.4719,
1308.568,1470.1794,
1305.657,1485.17,
1302.747,1483.1189,
1299.836,1607.1465,
1296.926,1601.1524,
1294.015,1660.9084,
1291.105,1699.4772,
1288.194,1757.8908,
1285.283,1777.819,
1282.373,1790.5,
1279.462,1793.0809,
1276.552,1823.3594,
1273.641,1842.7743,
1270.731,1813.2571,
1267.820,1815.375,
1264.909,1815.2541,
1261.999,1812.9436,
1259.088,1773.7224,
1256.178,1827.0447,
1253.267,1768.0946,
1250.356,1762.2746,
1247.446,1738.2785,
1244.535,1706.9598,
1241.625,1691.7232,
1238.714,1682.7523,
1235.804,1683.5595,
1232.893,1689.1285,
1229.982,1672.0258,
1227.072,1632.1921,
1224.161,1620.1295,
1221.251,1604.9738,
1218.340,1525.2288,
1215.430,1527.3168,
1212.519,1540.6425,
1209.608,1503.7437,
1206.698,1485.907,
1203.787,1490.5308,
1200.877,1492.378,
1197.966,1508.5628,
1195.055,1569.9557,
1192.145,1633.7204,
1189.234,1707.8199,
1186.324,1771.1054,
1183.413,1806.3242,
1180.503,1822.4456,
1177.592,1825.7789,
1174.681,1793.0668,
1171.771,1762.8805,
1168.860,1741.4463,
1165.950,1702.2857,
1163.039,1682.899,
1160.129,1690.1721,
1157.218,1713.2778,
1154.307,1752.0075,
1151.397,1800.0201,
1148.486,1827.2251,
1145.576,1825.4113,
1142.665,1803.2135,
1139.754,1820.0885,
1136.844,1789.3599,
1133.933,1766.1639,
1131.023,1748.1005,
1128.112,1729.0186,
1125.202,1728.5537,
1122.291,1752.6122,
1119.380,1719.7821,
1116.470,1761.2609,
1113.559,1739.3113,
1110.649,1706.4909,
1107.738,1702.4839,
1104.828,1688.7378,
1101.917,1658.6709,
1099.006,1663.7563,
1096.096,1683.2462,
1093.185,1664.8081,
1090.275,1698.1736,
1087.364,1685.7913,
1084.453,1719.6847,
1081.543,1726.2053,
1078.632,1687.9277,
1075.722,1688.2735,
1072.811,1721.6304,
1069.901,1711.1512,
1066.990,1734.6249,
1064.079,1756.0268,
1061.169,1732.9984,
1058.258,1721.0796,
1055.348,1745.43,
1052.437,1761.0631,
1049.527,1753.2673,
1046.616,1724.5959,
1043.705,1743.7272,
1040.795,1753.5675,
1037.884,1750.3176,
1034.974,1739.4162,
1032.063,1736.2901,
1029.153,1759.102,
1026.242,1765.1567,
1023.331,1744.543,
1020.421,1793.3547,
1017.510,1819.1764,
1014.600,1837.8693,
1011.689,1850.6826,
1008.778,1825.2021,
1005.868,1818.6067,
1002.957,1844.4173,
1000.047,1894.239,
997.136,1953.6625,
994.226,1988.2826,
991.315,1981.8923,
988.404,1939.5939,
985.494,1868.0873,
982.583,1855.239,
979.673,1856.3016,
976.762,1844.4588,
973.852,1835.375,
970.941,1840.7099,
968.030,1851.1206,
965.120,1838.4466,
962.209,1855.4974,
959.299,1858.375,
956.388,1877.4138,
953.477,1887.0316,
950.567,1900.5503,
947.656,1954.3588,
944.746,1908.4828,
941.835,1928.24,
938.925,1964.9614,
936.014,1934.839,
933.103,1897.8493,
930.193,1903.3872,
927.282,1863.0084,
924.372,1856.2435,
921.461,1828.1282,
918.551,1809.661,
915.640,1812.2988,
912.729,1828.4003,
909.819,1838.0405,
906.908,1827.9314,
903.998,1852.0313,
901.087,1864.7401,
898.176,1859.7855,
895.266,1856.4056,
892.355,1870.3174,
889.445,1875.353,
886.534,1901.256,
883.624,1897.6282,
880.713,1895.4164,
877.802,1859.1619,
874.892,1749.3187,
871.981,1576.0151,
869.071,1391.3889,
866.160,1444.24,
863.250,1610.2805,
860.339,1757.8767,
857.428,1823.3665,
854.518,1858.4623,
851.607,1757.7819,
848.697,1650.271,
845.786,1611.4509,
842.875,1666.1568,
839.965,1793.1137,
837.054,1924.4866,
834.144,1934.4317,
831.233,1923.7092,
828.323,1928.7502,
825.412,1933.2918,
822.501,1920.1623,
819.591,1930.0791,
816.680,1948.0032,
813.770,1907.2668,
810.859,1880.375,
807.949,1883.6823,
805.038,1891.0807,
802.127,1880.3801,
799.217,1847.3232,
796.306,1832.402,
793.396,1843.0011,
790.485,1862.0586,
787.574,1853.1882,
784.664,1848.2675,
781.753,1876.2273,
778.843,1878.1229,
775.932,1873.3996,
773.022,1887.4443,
770.111,1862.0994,
767.200,1870.2721,
764.290,1878.5759,
761.379,1867.8019,
758.469,1853.3271,
755.558,1883.3264,
752.648,1881.6972,
749.737,1841.5549,
746.826,1828.3008,
743.916,1820.9007,
741.005,1775.0736,
738.095,1745.8461,
735.184,1670.869,
732.274,1630.8053,
729.363,1650.972,
726.452,1718.0992,
723.542,1755.3313,
720.631,1826.1835,
717.721,1823.3155,
714.810,1843.0623,
711.899,1903.0582,
708.989,1897.4097,
706.078,1890.1633,
703.168,1888.375,
700.257,1883.4241,
697.347,1879.4182,
694.436,1891.4006,
691.525,1929.1795,
688.615,1921.0233,
685.704,1892.3805,
682.794,1876.5026,
679.883,1908.5016,
676.973,1955.7824,
674.062,1934.7471,
671.151,1920.4433,
668.241,1922.7073,
665.330,1915.6733,
662.420,1879.7303,
659.509,1883.8038,
656.598,1908.5505,
653.688,1942.4969,
650.777,1973.3507,
647.867,1884.162,
644.956,1817.3196,
642.046,1757.2801,
639.135,1719.4537,
636.224,1742.8166,
633.314,1830.9438,
630.403,1880.5707,
627.493,1925.4921,
624.582,1954.3087,
621.672,1895.7012,
618.761,1891.0952,
615.850,1910.7615,
612.940,1960.5039,
610.029,2019.1141,
607.119,1987.5289,
604.208,2004.2554,
601.297,2040.7905,
598.387,2043.2915,
595.476,1981.8661,
592.566,2018.8583,
589.655,2037.037,
586.745,2036.8655,
583.834,2034.3038,
580.923,2055.4271,
578.013,2064.0592,
575.102,2042.8579,
572.192,2021.0876,
569.281,2016.3276,
566.371,2032.7627,
563.460,2034.375,
560.549,2049.9679,
557.639,2072.0148,
554.728,2088.1141,
551.818,2099.8188,
548.907,2098.1091,
545.996,2079.0458,
543.086,2056.3947,
540.175,2070.4104,
537.265,2063.4079,
534.354,2087.968,
531.444,2099.4915,
528.533,2060.1408,
525.622,2084.9711,
522.712,2098.8695,
519.801,2086.0448,
516.891,2054.1839,
513.980,2043.3438,
511.070,2022.6533,
508.159,2028.702,
505.248,2048.6312,
502.338,2062.0528,
499.427,2085.2077,
496.517,2079.4962,
493.606,2084.1712,
490.695,2108.2725,
487.785,2085.9485,
484.874,2081.7288,
481.964,2067.2555,
479.053,2042.5947,
476.143,2022.6277,
473.232,2050.8706,
470.321,2044.3717,
467.411,2043.863,
464.500,2098.375,
461.590,2098.375,
458.679,2089.5703,
455.769,2093.0872,
452.858,2116.6931,
449.947,2119.7489,
447.037,2110.0601,
444.126,2114.8356,
441.216,2130.2741,
438.305,2106.6542,
435.395,2113.8652,
432.484,2092.7029,
429.573,2047.5649,
426.663,2014.1187,
423.752,1787.5035,
420.842,1529.6215,
417.931,1315.1044,
415.020,1233.2017,
412.110,1619.5932,
409.199,1920.81,
406.289,2085.3911,
403.378,2082.1035,
400.468,2001.9681,
397.557,1993.3419,
394.646,2037.3869,
391.736,2113.3509,
388.825,2112.5966,
385.915,2102.2633,
383.004,2095.9449,
380.094,2103.5267,
377.183,2126.101,
374.272,2170.3696,
371.362,2200.9034,
368.451,2197.7397,
365.541,2203.744,
362.630,2213.5686,
359.719,2218.0073,
356.809,2210.7439,
353.898,2183.7871,
350.988,2212.1791,
348.077,2241.7942,
345.167,2238.4072,
342.256,2199.5597,
339.345,2190.5007,
336.435,2199.5924,
333.524,2218.469,
330.614,2221.4496,
327.703,2271.1485,
324.793,2335.1626,
321.882,2386.3281,
318.971,2366.9986,
316.061,2361.3516,
313.150,2372.3059,
310.240,2404.2169,
307.329,2453.2557,
304.418,2502.012,
301.508,2536.3904,
298.597,2532.6883,
295.687,2541.1791,
292.776,2579.1252,
289.866,2658.7586,
286.955,2812.4135,
284.044,2948.2249,
281.134,3067.3262,
278.223,3166.6442,
275.313,3230.0137,
272.402,3285.7809,
269.492,3307.1863,
266.581,3284.7475,
263.670,3247.9885,
260.760,3316.2549,
257.849,3425.3293,
254.939,3531.0084,
252.028,3498.3543,
249.117,3461.1631,
246.207,3454.3466,
243.296,3539.2629,
240.386,3513.1134,
237.475,3480.5443,
234.565,3445.7212,
231.654,3365.3791,
228.743,3334.5662,
225.833,3275.8965,
222.922,3164.2199,
220.012,3139.449,
217.101,3101.4413,
214.191,3049.6118,
211.280,2980.5028,
208.369,2935.0062,
205.459,2890.2222,
202.548,2857.6396,
199.638,2888.1169,
196.727,2825.2291,
193.816,2785.5128,
190.906,2806.6008,
187.995,2670.4842,
185.085,2669.7149,
182.174,2711.3849,
179.264,2674.5239,
176.353,2658.841,
173.442,2670.8654,
170.532,2691.446,
167.621,2589.0675,
164.711,2561.375,
161.800,2493.7897,
158.890,2295.8646,
155.979,2162.4422,
153.068,2001.2445,
150.158,1809.5093,
147.247,1586.9441,
144.337,1316.5498,
141.426,1042.976,
138.516,786.32898,
135.605,558.24931,
132.694,384.4263,
129.784,257.51126,
126.873,170.98055,
123.963,115.2473,
121.052,77.309745,
118.141,54.464881,
115.231,41.584734,
112.320,31.291369,
109.410,24.784066,
106.499,26.920531,
103.589,21.772455,
100.678,16.016891,
97.767,12.462204,
94.857,13.760978,
91.946,17.599887,
89.036,21.81051,
86.125,18.264484,
83.215,18.436841,
80.304,15.304644,
77.393,3.2657554,
74.483,7.6160797,
71.572,11.462056,
68.662,12.54379,
65.751,4.0663771,
62.840,7.6371258,
59.930,12.502138,
57.019,5.4513182,
54.109,3.1806783,
51.198,2.0733907,
48.288,1.375,
45.377,1.375,
42.466,4.6727547,
39.556,8.7994071,
36.645,5.288456,
33.735,5.4134969,
30.824,4.6079042,
27.914,-1.0014977,
25.003,-5.3608249,
22.092,-5.0417635,
19.182,0.375,
16.271,0.375,
13.361,-18.169151,
10.450,-70.667696,
7.539,-227.78865,
4.629,-564.47921,
1.718,-888.45094,
-1.192,-1041.1256,
-4.103,-800.54246,
-7.013,-440.48286,
-9.924,-0.625,
