,PLDA91~1,
Raman shift [1/cm],Intensity,
3014.167,-1.375,
3011.256,0.92506442,
3008.346,128.88379,
3005.435,148.46952,
3002.525,144.58753,
2999.614,159.57565,
2996.704,166.71366,
2993.793,182.3773,
2990.882,184.57918,
2987.972,181.59473,
2985.061,177.3984,
2982.151,191.95442,
2979.240,198.57462,
2976.329,204.38183,
2973.419,232.01011,
2970.508,215.94164,
2967.598,234.62139,
2964.687,226.08696,
2961.777,237.71901,
2958.866,245.96081,
2955.955,238.83076,
2953.045,244.17534,
2950.134,255.11481,
2947.224,275.93816,
2944.313,278.98469,
2941.403,273.10128,
2938.492,304.90142,
2935.581,279.49621,
2932.671,285.14864,
2929.760,299.88269,
2926.850,304.20695,
2923.939,312.90067,
2921.028,312.21308,
2918.118,317.60611,
2915.207,331.33392,
2912.297,336.61654,
2909.386,346.80749,
2906.476,340.43118,
2903.565,315.35018,
2900.654,329.9071,
2897.744,328.58728,
2894.833,324.38791,
2891.923,326.6795,
2889.012,314.24928,
2886.102,322.06148,
2883.191,329.62122,
2880.280,312.10824,
2877.370,317.09584,
2874.459,311.44889,
2871.549,330.42788,
2868.638,357.08066,
2865.727,339.625,
2862.817,357.84023,
2859.906,332.1948,
2856.996,344.09103,
2854.085,343.70272,
2851.175,344.79068,
2848.264,339.625,
2845.353,352.38776,
2842.443,342.42361,
2839.532,332.75939,
2836.622,310.99023,
2833.711,320.20271,
2830.801,322.52426,
2827.890,314.06382,
2824.979,328.32895,
2822.069,326.52265,
2819.158,322.18565,
2816.248,325.88947,
2813.337,346.81037,
2810.427,328.32335,
2807.516,316.89125,
2804.605,329.91588,
2801.695,340.96709,
2798.784,329.21638,
2795.874,331.77012,
2792.963,330.91074,
2790.052,312.62908,
2787.142,334.49338,
2784.231,320.69023,
2781.321,334.49352,
2778.410,320.94479,
2775.500,321.02983,
2772.589,314.74044,
2769.678,334.65563,
2766.768,342.01527,
2763.857,328.41498,
2760.947,340.67543,
2758.036,346.08358,
2755.126,358.19551,
2752.215,354.77493,
2749.304,346.1358,
2746.394,349.01206,
2743.483,351.17504,
2740.573,345.28652,
2737.662,328.77292,
2734.751,355.85798,
2731.841,342.46199,
2728.930,370.58273,
2726.020,353.84433,
2723.109,348.07867,
2720.199,361.05624,
2717.288,355.01186,
2714.377,379.10371,
2711.467,374.39533,
2708.556,376.41237,
2705.646,375.85036,
2702.735,373.12242,
2699.825,370.625,
2696.914,366.57727,
2694.003,372.13882,
2691.093,377.4108,
2688.182,384.97093,
2685.272,369.50124,
2682.361,385.14247,
2679.450,387.25465,
2676.540,386.21852,
2673.629,373.26173,
2670.719,379.55938,
2667.808,386.09001,
2664.898,375.78064,
2661.987,384.79161,
2659.076,409.68317,
2656.166,391.625,
2653.255,397.40051,
2650.345,401.27291,
2647.434,397.85335,
2644.524,391.94156,
2641.613,413.45404,
2638.702,418.67234,
2635.792,393.24814,
2632.881,394.34546,
2629.971,409.92717,
2627.060,403.29,
2624.149,412.03126,
2621.239,411.88538,
2618.328,395.34558,
2615.418,408.63863,
2612.507,408.83051,
2609.597,403.54316,
2606.686,405.79368,
2603.775,417.34723,
2600.865,423.86049,
2597.954,412.34371,
2595.044,423.32119,
2592.133,441.08385,
2589.223,437.90183,
2586.312,452.23307,
2583.401,440.625,
2580.491,433.3654,
2577.580,434.6349,
2574.670,438.13436,
2571.759,431.07449,
2568.848,432.27142,
2565.938,439.05347,
2563.027,455.91816,
2560.117,452.09227,
2557.206,441.20065,
2554.296,463.879,
2551.385,451.93901,
2548.474,466.29192,
2545.564,462.9099,
2542.653,461.83642,
2539.743,455.46481,
2536.832,455.78761,
2533.922,468.53038,
2531.011,464.82481,
2528.100,475.42292,
2525.190,463.02295,
2522.279,468.46916,
2519.369,477.47455,
2516.458,469.74398,
2513.548,471.34328,
2510.637,466.36279,
2507.726,477.31273,
2504.816,474.93729,
2501.905,476.05976,
2498.995,479.53484,
2496.084,457.66339,
2493.173,481.5197,
2490.263,467.86114,
2487.352,486.33287,
2484.442,489.02326,
2481.531,508.41228,
2478.621,491.57282,
2475.710,514.50998,
2472.799,502.09134,
2469.889,512.04883,
2466.978,488.64586,
2464.068,520.76271,
2461.157,490.39986,
2458.247,497.1395,
2455.336,499.34519,
2452.425,494.79479,
2449.515,516.87032,
2446.604,511.92689,
2443.694,503.1135,
2440.783,520.19933,
2437.872,519.625,
2434.962,523.82776,
2432.051,533.18668,
2429.141,532.76027,
2426.230,541.10347,
2423.320,530.93925,
2420.409,535.65058,
2417.498,534.64185,
2414.588,533.89495,
2411.677,555.51743,
2408.767,548.83071,
2405.856,552.1654,
2402.946,540.55887,
2400.035,538.41374,
2397.124,552.8496,
2394.214,549.75901,
2391.303,550.87906,
2388.393,565.10408,
2385.482,546.5503,
2382.571,572.96687,
2379.661,575.95047,
2376.750,587.78263,
2373.840,581.56566,
2370.929,572.70081,
2368.019,581.28693,
2365.108,591.09097,
2362.197,593.973,
2359.287,588.85174,
2356.376,575.64261,
2353.466,575.20032,
2350.555,583.60007,
2347.645,575.96806,
2344.734,592.26561,
2341.823,587.80742,
2338.913,599.80261,
2336.002,606.92877,
2333.092,610.8665,
2330.181,621.46895,
2327.270,604.89012,
2324.360,601.91035,
2321.449,615.97874,
2318.539,612.58218,
2315.628,639.91757,
2312.718,621.71089,
2309.807,615.05958,
2306.896,634.37304,
2303.986,629.70938,
2301.075,627.7101,
2298.165,626.43263,
2295.254,646.1726,
2292.344,633.88639,
2289.433,638.94545,
2286.522,640.75889,
2283.612,651.83547,
2280.701,645.10484,
2277.791,653.22425,
2274.880,645.76496,
2271.969,659.8143,
2269.059,671.85934,
2266.148,683.10914,
2263.238,651.54008,
2260.327,676.24577,
2257.417,685.33667,
2254.506,683.5794,
2251.595,697.03579,
2248.685,682.9001,
2245.774,662.71308,
2242.864,693.33821,
2239.953,701.1216,
2237.043,686.39072,
2234.132,684.33405,
2231.221,679.25543,
2228.311,697.24095,
2225.400,721.87831,
2222.490,731.18202,
2219.579,730.88977,
2216.669,719.65362,
2213.758,727.32306,
2210.847,734.625,
2207.937,744.21782,
2205.026,787.29088,
2202.116,805.47851,
2199.205,799.09982,
2196.294,811.05498,
2193.384,803.41498,
2190.473,837.95012,
2187.563,843.89084,
2184.652,902.99275,
2181.742,923.48812,
2178.831,921.09974,
2175.920,938.20242,
2173.010,957.40108,
2170.099,986.02233,
2167.189,1031.7613,
2164.278,1048.8642,
2161.368,1052.6233,
2158.457,1094.8267,
2155.546,1105.7462,
2152.636,1150.5238,
2149.725,1181.276,
2146.815,1226.1568,
2143.904,1244.0302,
2140.993,1265.0058,
2138.083,1299.1903,
2135.172,1310.625,
2132.262,1300.6109,
2129.351,1285.5629,
2126.441,1238.4501,
2123.530,1216.0526,
2120.619,1160.1206,
2117.709,1105.8484,
2114.798,1044.798,
2111.888,1007.4387,
2108.977,962.1879,
2106.067,912.18936,
2103.156,909.30319,
2100.245,866.60994,
2097.335,841.78207,
2094.424,828.20517,
2091.514,803.19488,
2088.603,809.16874,
2085.692,814.48748,
2082.782,815.15911,
2079.871,817.44647,
2076.961,795.17487,
2074.050,834.21894,
2071.140,804.53321,
2068.229,795.25781,
2065.318,804.21801,
2062.408,809.16282,
2059.497,790.99402,
2056.587,788.4272,
2053.676,772.84281,
2050.766,781.54727,
2047.855,765.02371,
2044.944,779.42307,
2042.034,780.59604,
2039.123,776.80682,
2036.213,789.31831,
2033.302,778.27724,
2030.391,772.0488,
2027.481,787.7346,
2024.570,802.89618,
2021.660,794.27542,
2018.749,763.49878,
2015.839,787.5082,
2012.928,796.40688,
2010.017,791.14401,
2007.107,797.182,
2004.196,783.48212,
2001.286,780.04196,
1998.375,793.45473,
1995.465,802.55804,
1992.554,757.17246,
1989.643,787.31158,
1986.733,775.60833,
1983.822,757.625,
1980.912,759.67467,
1978.001,761.6083,
1975.090,753.81279,
1972.180,751.38432,
1969.269,760.60782,
1966.359,771.67903,
1963.448,775.00809,
1960.538,757.14877,
1957.627,751.73336,
1954.716,756.48137,
1951.806,725.36373,
1948.895,764.74636,
1945.985,790.89787,
1943.074,738.03815,
1940.164,756.06723,
1937.253,760.38564,
1934.342,763.02661,
1931.432,733.7291,
1928.521,740.10687,
1925.611,736.20956,
1922.700,712.42197,
1919.790,728.29529,
1916.879,737.2065,
1913.968,709.65943,
1911.058,706.47486,
1908.147,734.75057,
1905.237,743.26467,
1902.326,725.84425,
1899.415,733.68841,
1896.505,718.57672,
1893.594,721.2531,
1890.684,727.29827,
1887.773,725.711,
1884.863,736.72751,
1881.952,729.1626,
1879.041,726.89447,
1876.131,711.33742,
1873.220,727.67375,
1870.310,746.40524,
1867.399,732.8649,
1864.489,738.61247,
1861.578,715.30619,
1858.667,731.91841,
1855.757,740.20137,
1852.846,762.6045,
1849.936,755.76413,
1847.025,763.39143,
1844.114,739.12847,
1841.204,731.31381,
1838.293,746.13415,
1835.383,769.04297,
1832.472,761.78674,
1829.562,789.17397,
1826.651,754.40126,
1823.740,772.9431,
1820.830,788.31002,
1817.919,794.14001,
1815.009,779.35656,
1812.098,798.16829,
1809.188,749.03597,
1806.277,757.35942,
1803.366,788.10928,
1800.456,757.625,
1797.545,760.94398,
1794.635,791.81897,
1791.724,787.54722,
1788.813,818.41317,
1785.903,787.72186,
1782.992,801.9916,
1780.082,789.0351,
1777.171,797.2931,
1774.261,823.79543,
1771.350,857.459,
1768.439,843.68758,
1765.529,854.35655,
1762.618,860.85058,
1759.708,835.55975,
1756.797,827.24621,
1753.887,819.8043,
1750.976,798.7559,
1748.065,820.03359,
1745.155,840.98629,
1742.244,824.07158,
1739.334,881.35675,
1736.423,877.71103,
1733.512,863.625,
1730.602,898.7818,
1727.691,860.72706,
1724.781,903.04509,
1721.870,893.67724,
1718.960,904.06964,
1716.049,890.00653,
1713.138,919.96984,
1710.228,896.0349,
1707.317,934.08443,
1704.407,886.61957,
1701.496,888.82893,
1698.586,905.33274,
1695.675,917.8535,
1692.764,962.1742,
1689.854,981.84548,
1686.943,976.82735,
1684.033,1011.7309,
1681.122,999.8459,
1678.211,1017.4537,
1675.301,1030.5849,
1672.390,1039.6071,
1669.480,1034.1625,
1666.569,1101.0694,
1663.659,1136.2456,
1660.748,1173.2972,
1657.837,1157.2811,
1654.927,1186.8827,
1652.016,1197.7465,
1649.106,1205.5627,
1646.195,1322.4332,
1643.285,1314.6706,
1640.374,1316.3741,
1637.463,1306.1923,
1634.553,1391.8467,
1631.642,1407.3851,
1628.732,1476.8146,
1625.821,1508.6976,
1622.911,1618.9995,
1620.000,1729.2265,
1617.089,1857.0578,
1614.179,1942.2279,
1611.268,2054.3867,
1608.358,2163.4745,
1605.447,2244.997,
1602.536,2239.3742,
1599.626,2301.1804,
1596.715,2355.6355,
1593.805,2315.0141,
1590.894,2307.8637,
1587.984,2254.7934,
1585.073,2214.294,
1582.162,2245.36,
1579.252,2147.8825,
1576.341,2119.0176,
1573.431,2120.7577,
1570.520,2103.28,
1567.610,2100.6054,
1564.699,2071.1737,
1561.788,2023.0056,
1558.878,1961.1971,
1555.967,1940.2857,
1553.057,1895.9703,
1550.146,1847.2723,
1547.235,1794.8441,
1544.325,1769.1905,
1541.414,1745.8625,
1538.504,1743.0943,
1535.593,1735.7662,
1532.683,1719.8129,
1529.772,1718.5502,
1526.861,1701.418,
1523.951,1686.2071,
1521.040,1641.3579,
1518.130,1608.2842,
1515.219,1601.0671,
1512.309,1545.7106,
1509.398,1592.4616,
1506.487,1557.9166,
1503.577,1541.7684,
1500.666,1562.8949,
1497.756,1497.439,
1494.845,1541.784,
1491.934,1497.6093,
1489.024,1492.7968,
1486.113,1482.4256,
1483.203,1454.98,
1480.292,1432.1092,
1477.382,1418.926,
1474.471,1385.9298,
1471.560,1378.0763,
1468.650,1363.593,
1465.739,1341.2532,
1462.829,1305.7682,
1459.918,1286.52,
1457.008,1318.6254,
1454.097,1352.9358,
1451.186,1353.1298,
1448.276,1331.5455,
1445.365,1316.0563,
1442.455,1329.4926,
1439.544,1287.15,
1436.633,1314.5277,
1433.723,1301.3848,
1430.812,1279.5116,
1427.902,1288.8436,
1424.991,1213.9703,
1422.081,1193.2755,
1419.170,1207.1781,
1416.259,1196.664,
1413.349,1192.1145,
1410.438,1177.6294,
1407.528,1194.156,
1404.617,1217.1933,
1401.707,1217.7358,
1398.796,1210.2089,
1395.885,1223.0936,
1392.975,1234.0621,
1390.064,1208.973,
1387.154,1179.6429,
1384.243,1131.7262,
1381.332,1080.8223,
1378.422,1134.0547,
1375.511,1200.5661,
1372.601,1264.2918,
1369.690,1342.4889,
1366.780,1445.709,
1363.869,1429.6688,
1360.958,1409.3433,
1358.048,1431.5441,
1355.137,1504.8732,
1352.227,1550.1348,
1349.316,1586.0074,
1346.406,1649.4319,
1343.495,1652.8393,
1340.584,1688.4461,
1337.674,1718.3435,
1334.763,1783.4013,
1331.853,1803.8004,
1328.942,1825.0827,
1326.032,1829.2562,
1323.121,1846.6672,
1320.210,1905.2327,
1317.300,1918.0497,
1314.389,1909.6528,
1311.479,1910.1881,
1308.568,1938.7195,
1305.657,1995.4013,
1302.747,2020.363,
1299.836,2075.9076,
1296.926,2118.1115,
1294.015,2214.6405,
1291.105,2211.5807,
1288.194,2335.2289,
1285.283,2350.8729,
1282.373,2412.3357,
1279.462,2452.174,
1276.552,2468.4203,
1273.641,2493.0783,
1270.731,2500.3907,
1267.820,2504.0507,
1264.909,2541.8222,
1261.999,2499.5584,
1259.088,2497.7342,
1256.178,2489.9169,
1253.267,2419.5774,
1250.356,2372.2121,
1247.446,2339.6763,
1244.535,2308.2813,
1241.625,2264.3843,
1238.714,2200.4047,
1235.804,2143.0959,
1232.893,2138.9979,
1229.982,2146.2026,
1227.072,2074.6829,
1224.161,2078.8705,
1221.251,1986.8168,
1218.340,1928.0647,
1215.430,1925.1862,
1212.519,1906.5539,
1209.608,1873.3338,
1206.698,1881.2635,
1203.787,1904.2079,
1200.877,1925.8538,
1197.966,1961.8202,
1195.055,1977.277,
1192.145,2068.2835,
1189.234,2135.9037,
1186.324,2158.2615,
1183.413,2174.1986,
1180.503,2192.625,
1177.592,2194.019,
1174.681,2195.964,
1171.771,2175.1936,
1168.860,2069.809,
1165.950,2022.5357,
1163.039,2015.0218,
1160.129,1993.2105,
1157.218,1968.0103,
1154.307,1960.9642,
1151.397,1950.9843,
1148.486,1914.5674,
1145.576,1958.0445,
1142.665,1921.6401,
1139.754,1932.4567,
1136.844,1872.5977,
1133.933,1830.9623,
1131.023,1841.8693,
1128.112,1870.2672,
1125.202,1871.8617,
1122.291,1851.6277,
1119.380,1858.9368,
1116.470,1890.7078,
1113.559,1896.1715,
1110.649,1892.0411,
1107.738,1892.8399,
1104.828,1886.4708,
1101.917,1878.6548,
1099.006,1892.5528,
1096.096,1902.2163,
1093.185,1911.8743,
1090.275,1926.3826,
1087.364,1900.8078,
1084.453,1876.9382,
1081.543,1894.48,
1078.632,1921.3571,
1075.722,1909.5056,
1072.811,1916.0737,
1069.901,1894.2422,
1066.990,1911.2166,
1064.079,1959.1779,
1061.169,1996.194,
1058.258,1993.1091,
1055.348,1988.8504,
1052.437,2026.2295,
1049.527,1995.5719,
1046.616,2045.964,
1043.705,2068.5818,
1040.795,2047.4463,
1037.884,2041.7283,
1034.974,2058.0735,
1032.063,2068.4789,
1029.153,2064.5331,
1026.242,2088.7519,
1023.331,2087.1252,
1020.421,2110.3264,
1017.510,2129.0291,
1014.600,2138.1626,
1011.689,2148.7518,
1008.778,2169.9971,
1005.868,2190.6134,
1002.957,2300.7388,
1000.047,2401.345,
997.136,2467.8645,
994.226,2493.9634,
991.315,2471.8775,
988.404,2406.1137,
985.494,2345.3975,
982.583,2290.5779,
979.673,2295.063,
976.762,2283.7732,
973.852,2280.5812,
970.941,2273.7313,
968.030,2241.2899,
965.120,2284.5785,
962.209,2273.4954,
959.299,2287.9147,
956.388,2300.2246,
953.477,2289.006,
950.567,2277.0819,
947.656,2307.6277,
944.746,2315.2737,
941.835,2313.1956,
938.925,2304.7284,
936.014,2328.4454,
933.103,2335.1455,
930.193,2294.0294,
927.282,2277.6544,
924.372,2241.2933,
921.461,2260.9262,
918.551,2216.1791,
915.640,2172.9506,
912.729,2156.6958,
909.819,2136.4085,
906.908,2187.7964,
903.998,2160.4012,
901.087,2207.3645,
898.176,2226.2179,
895.266,2217.7034,
892.355,2241.0327,
889.445,2307.3348,
886.534,2331.8363,
883.624,2318.4585,
880.713,2336.6739,
877.802,2358.8037,
874.892,2341.6973,
871.981,2297.9012,
869.071,2309.597,
866.160,2296.4459,
863.250,2295.9154,
860.339,2296.6134,
857.428,2293.7469,
854.518,2318.614,
851.607,2283.6671,
848.697,2267.3077,
845.786,2261.5871,
842.875,2279.5006,
839.965,2305.1053,
837.054,2262.0716,
834.144,2301.8517,
831.233,2312.9581,
828.323,2268.1353,
825.412,2221.2689,
822.501,2226.9443,
819.591,2250.9098,
816.680,2209.9583,
813.770,2161.4083,
810.859,2141.7837,
807.949,2147.2787,
805.038,2147.6427,
802.127,2114.7176,
799.217,2131.7506,
796.306,2110.814,
793.396,2100.5259,
790.485,2112.9922,
787.574,2096.0609,
784.664,2107.5425,
781.753,2129.7545,
778.843,2132.2738,
775.932,2125.2423,
773.022,2129.9217,
770.111,2151.1788,
767.200,2167.8512,
764.290,2155.8665,
761.379,2150.7146,
758.469,2153.8821,
755.558,2124.625,
752.648,2124.625,
749.737,2122.0138,
746.826,2076.8002,
743.916,2005.1247,
741.005,1932.1094,
738.095,1777.0409,
735.184,1677.1082,
732.274,1636.2106,
729.363,1708.9841,
726.452,1887.5051,
723.542,1997.5826,
720.631,2050.2619,
717.721,2078.3733,
714.810,2092.4318,
711.899,2095.9913,
708.989,2084.6944,
706.078,2062.9898,
703.168,2048.5167,
700.257,2035.1987,
697.347,2022.0166,
694.436,2012.7996,
691.525,2019.23,
688.615,2013.707,
685.704,2019.554,
682.794,2024.6676,
679.883,1998.6971,
676.973,2000.2998,
674.062,2015.3009,
671.151,2038.0899,
668.241,2057.3397,
665.330,2059.8897,
662.420,2065.4808,
659.509,2020.275,
656.598,1993.625,
653.688,2015.249,
650.777,2086.9229,
647.867,2066.2184,
644.956,2061.0058,
642.046,2047.7725,
639.135,2031.0923,
636.224,2036.7802,
633.314,2067.7438,
630.403,2078.5811,
627.493,2074.0957,
624.582,2072.4536,
621.672,2112.0533,
618.761,2099.1862,
615.850,2078.0954,
612.940,2096.0462,
610.029,2160.1761,
607.119,2181.4961,
604.208,2165.8747,
601.297,2163.6102,
598.387,2168.9116,
595.476,2165.4654,
592.566,2121.3895,
589.655,2169.3435,
586.745,2169.2472,
583.834,2116.2304,
580.923,2068.4781,
578.013,2044.1513,
575.102,2034.7571,
572.192,2041.1998,
569.281,2066.1858,
566.371,2119.4042,
563.460,2145.789,
560.549,2163.8833,
557.639,2171.2079,
554.728,2165.3148,
551.818,2176.2392,
548.907,2176.1873,
545.996,2176.1802,
543.086,2174.7665,
540.175,2156.8576,
537.265,2157.0736,
534.354,2180.7028,
531.444,2198.3305,
528.533,2183.7973,
525.622,2172.1581,
522.712,2202.3897,
519.801,2242.719,
516.891,2272.2165,
513.980,2265.2478,
511.070,2273.7815,
508.159,2311.0546,
505.248,2343.1185,
502.338,2330.0091,
499.427,2343.1302,
496.517,2391.8775,
493.606,2420.9046,
490.695,2414.3323,
487.785,2448.2031,
484.874,2465.257,
481.964,2454.1833,
479.053,2424.477,
476.143,2402.974,
473.232,2436.8758,
470.321,2441.38,
467.411,2425.2935,
464.500,2406.4117,
461.590,2397.9885,
458.679,2397.8262,
455.769,2402.1455,
452.858,2407.3069,
449.947,2404.2511,
447.037,2400.5912,
444.126,2404.1705,
441.216,2414.6833,
438.305,2420.7788,
435.395,2436.7046,
432.484,2421.7036,
429.573,2394.9501,
426.663,2417.7543,
423.752,2442.6398,
420.842,2428.8773,
417.931,2423.4647,
415.020,2503.8507,
412.110,2490.5295,
409.199,2494.8939,
406.289,2522.1056,
403.378,2572.5507,
400.468,2550.6269,
397.557,2510.2053,
394.646,2474.0461,
391.736,2460.6592,
388.825,2430.49,
385.915,2391.8222,
383.004,2379.9022,
380.094,2421.9592,
377.183,2546.1178,
374.272,2582.7961,
371.362,2617.001,
368.451,2695.3089,
365.541,2706.5669,
362.630,2690.5066,
359.719,2675.8089,
356.809,2682.5216,
353.898,2746.9182,
350.988,2734.7882,
348.077,2707.8825,
345.167,2703.7007,
342.256,2705.1948,
339.345,2714.6594,
336.435,2725.6785,
333.524,2734.0008,
330.614,2745.9233,
327.703,2762.4601,
324.793,2766.6335,
321.882,2743.7242,
318.971,2784.6135,
316.061,2810.8329,
313.150,2834.2488,
310.240,2868.3861,
307.329,2880.3446,
304.418,2891.0083,
301.508,2894.4896,
298.597,2878.9409,
295.687,2937.8994,
292.776,3014.1253,
289.866,3114.5655,
286.955,3275.6077,
284.044,3401.0899,
281.134,3545.0506,
278.223,3707.3789,
275.313,3835.5917,
272.402,3915.4872,
269.492,3998.3012,
266.581,4098.4612,
263.670,4152.1294,
260.760,4225.6095,
257.849,4284.7841,
254.939,4302.3972,
252.028,4377.181,
249.117,4364.5105,
246.207,4303.8815,
243.296,4258.4952,
240.386,4265.3789,
237.475,4245.5003,
234.565,4183.9542,
231.654,4059.0586,
228.743,3973.9375,
225.833,3883.3661,
222.922,3773.5866,
220.012,3729.8733,
217.101,3660.1741,
214.191,3599.7837,
211.280,3590.3267,
208.369,3580.8784,
205.459,3540.2932,
202.548,3481.9899,
199.638,3460.9461,
196.727,3476.2163,
193.816,3490.324,
190.906,3491.1487,
187.995,3534.5902,
185.085,3530.7108,
182.174,3505.7073,
179.264,3491.252,
176.353,3540.2465,
173.442,3563.5492,
170.532,3550.1726,
167.621,3511.9609,
164.711,3476.3977,
161.800,3395.3788,
158.890,3224.8033,
155.979,3112.5488,
153.068,2903.1823,
150.158,2604.7728,
147.247,2252.9761,
144.337,1852.8671,
141.426,1450.5763,
138.516,1067.0395,
135.605,771.66067,
132.694,527.02333,
129.784,336.16206,
126.873,226.03207,
123.963,157.53032,
121.052,112.42659,
118.141,86.726116,
115.231,62.465608,
112.320,48.812277,
109.410,42.670513,
106.499,37.685427,
103.589,30.462201,
100.678,25.896622,
97.767,26.607559,
94.857,21.774077,
91.946,19.625,
89.036,20.076592,
86.125,22.913413,
83.215,20.970398,
80.304,19.343298,
77.393,21.467808,
74.483,15.07365,
71.572,10.900296,
68.662,9.8328025,
65.751,11.952156,
62.840,12.143298,
59.930,11.625,
57.019,11.625,
54.109,10.430678,
51.198,9.9266093,
48.288,10.664637,
45.377,15.588284,
42.466,15.563903,
39.556,12.625,
36.645,12.625,
33.735,12.105752,
30.824,12.950322,
27.914,17.157373,
25.003,15.757088,
22.092,11.395954,
19.182,4.9682429,
16.271,15.460595,
13.361,47.019768,
10.450,107.22067,
7.539,238.50396,
4.629,384.15119,
1.718,431.32203,
-1.192,244.48729,
-4.103,184.7725,
-7.013,112.6774,
-9.924,0.625,
