,PLFB70~1,
Wavenumbers [1/cm],Intensity,
3014.167,-1.75,
3011.256,1.1499785,
3008.346,18.43259,
3005.435,24.098059,
3002.525,34.042506,
2999.614,32.626636,
2996.704,38.887114,
2993.793,38.259216,
2990.882,31.814882,
2987.972,34.22982,
2985.061,34.683503,
2982.151,41.130673,
2979.240,37.73193,
2976.329,46.75273,
2973.419,46.649742,
2970.508,56.016673,
2967.598,35.488956,
2964.687,43.115489,
2961.777,34.472102,
2958.866,48.921616,
2955.955,57.426972,
2953.045,48.25,
2950.134,45.217924,
2947.224,48.21794,
2944.313,76.755698,
2941.403,68.642792,
2938.492,60.388209,
2935.581,68.814396,
2932.671,69.331559,
2929.760,80.457697,
2926.850,73.772557,
2923.939,69.689247,
2921.028,85.350132,
2918.118,77.889798,
2915.207,67.420777,
2912.297,77.182299,
2909.386,78.439784,
2906.476,54.095532,
2903.565,65.009268,
2900.654,51.367281,
2897.744,54.011128,
2894.833,36.899454,
2891.923,36.006399,
2889.012,23.793352,
2886.102,12.813519,
2883.191,-34.708463,
2880.280,-94.070616,
2877.370,-368.90638,
2874.459,-552.5731,
2871.549,-299.10376,
2868.638,-102.64906,
2865.727,-27.796205,
2862.817,10.008007,
2859.906,34.25,
2856.996,48.684334,
2854.085,72.052537,
2851.175,55.180688,
2848.264,64.323501,
2845.353,53.659774,
2842.443,71.451393,
2839.532,62.488853,
2836.622,74.912763,
2833.711,68.871681,
2830.801,70.358085,
2827.890,68.959803,
2824.979,78.817982,
2822.069,73.500186,
2819.158,88.789077,
2816.248,79.74421,
2813.337,95.52806,
2810.427,83.331259,
2807.516,75.573909,
2804.605,72.045673,
2801.695,78.039488,
2798.784,71.211,
2795.874,78.260568,
2792.963,72.750107,
2790.052,78.249357,
2787.142,76.460771,
2784.231,90.186351,
2781.321,79.124279,
2778.410,78.909895,
2775.500,86.611032,
2772.589,78.827215,
2769.678,85.570808,
2766.768,87.438348,
2763.857,84.72206,
2760.947,78.29413,
2758.036,92.87425,
2755.126,88.299144,
2752.215,90.100072,
2749.304,76.059375,
2746.394,89.943529,
2743.483,99.549986,
2740.573,87.168076,
2737.662,92.229296,
2734.751,86.065417,
2731.841,85.114466,
2728.930,82.660836,
2726.020,98.795717,
2723.109,93.90975,
2720.199,95.85951,
2717.288,83.863145,
2714.377,102.44148,
2711.467,90.709335,
2708.556,73.122421,
2705.646,87.996525,
2702.735,101.23968,
2699.825,91.25,
2696.914,98.535919,
2694.003,100.45163,
2691.093,93.607394,
2688.182,105.59593,
2685.272,104.65683,
2682.361,87.432315,
2679.450,99.867243,
2676.540,70.575185,
2673.629,84.922653,
2670.719,88.030965,
2667.808,96.958186,
2664.898,103.92509,
2661.987,115.54997,
2659.076,102.03018,
2656.166,111.2804,
2653.255,96.431976,
2650.345,95.057621,
2647.434,90.536083,
2644.524,101.16126,
2641.613,103.10732,
2638.702,104.28156,
2635.792,97.499255,
2632.881,107.2916,
2629.971,106.76005,
2627.060,101.9175,
2624.149,109.03123,
2621.239,119.98962,
2618.328,99.377162,
2615.418,103.57727,
2612.507,102.52669,
2609.597,104.79092,
2606.686,109.61346,
2603.775,111.40873,
2600.865,111.07254,
2597.954,108.9208,
2595.044,119.27657,
2592.133,112.02706,
2589.223,114.81632,
2586.312,117.88318,
2583.401,111.69891,
2580.491,116.60576,
2577.580,111.24505,
2574.670,101.33157,
2571.759,103.06848,
2568.848,119.25,
2565.938,126.7263,
2563.027,114.81135,
2560.117,112.89485,
2557.206,120.09871,
2554.296,99.824371,
2551.385,110.49798,
2548.474,135.69499,
2545.564,119.16801,
2542.653,142.25,
2539.743,131.87939,
2536.832,122.00514,
2533.922,129.34462,
2531.011,136.07493,
2528.100,125.98864,
2525.190,123.15574,
2522.279,140.26514,
2519.369,118.74066,
2516.458,116.3619,
2513.548,131.81343,
2510.637,137.80334,
2507.726,148.12361,
2504.816,131.99746,
2501.905,133.29329,
2498.995,115.2055,
2496.084,128.71689,
2493.173,123.0394,
2490.263,133.21612,
2487.352,140.79093,
2484.442,127.68684,
2481.531,131.25522,
2478.621,134.1078,
2475.710,137.28834,
2472.799,138.79712,
2469.889,124.85664,
2466.978,134.96121,
2464.068,144.0807,
2461.157,129.2924,
2458.247,140.27934,
2455.336,140.1639,
2452.425,128.20281,
2449.515,140.21259,
2446.604,146.14176,
2443.694,134.15708,
2440.783,146.7759,
2437.872,146.68758,
2434.962,152.73388,
2432.051,146.5156,
2429.141,154.11473,
2426.230,144.83672,
2423.320,151.60684,
2420.409,155.17325,
2417.498,157.60114,
2414.588,139.00298,
2411.677,148.57272,
2408.767,155.73228,
2405.856,161.56899,
2402.946,158.19013,
2400.035,143.15844,
2397.124,145.59759,
2394.214,160.79159,
2391.303,157.92412,
2388.393,139.03835,
2385.482,124.77874,
2382.571,91.085468,
2379.661,94.715036,
2376.750,122.5085,
2373.840,155.29054,
2370.929,174.09838,
2368.019,159.86453,
2365.108,168.52749,
2362.197,166.33211,
2359.287,171.01491,
2356.376,172.25528,
2353.466,183.50862,
2350.555,168.64501,
2347.645,166.88179,
2344.734,162.09792,
2341.823,176.00125,
2338.913,177.5858,
2336.002,171.55377,
2333.092,177.18112,
2330.181,182.30368,
2327.270,166.35011,
2324.360,178.19103,
2321.449,182.95748,
2318.539,184.84634,
2315.628,185.06535,
2312.718,180.60022,
2309.807,177.65988,
2306.896,183.75391,
2303.986,189.60069,
2301.075,198.95211,
2298.165,190.87481,
2295.254,177.48697,
2292.344,196.19604,
2289.433,190.83681,
2286.522,185.65166,
2283.612,203.01021,
2280.701,203.38453,
2277.791,187.16985,
2274.880,185.67799,
2271.969,188.79733,
2269.059,201.86309,
2266.148,186.17488,
2263.238,185.34652,
2260.327,202.35333,
2257.417,190.96167,
2254.506,192.44088,
2251.595,194.10453,
2248.685,202.14229,
2245.774,196.14025,
2242.864,215.79614,
2239.953,205.60869,
2237.043,192.47072,
2234.132,190.14871,
2231.221,188.5394,
2228.311,209.12626,
2225.400,223.96855,
2222.490,213.13597,
2219.579,209.61762,
2216.669,213.74285,
2213.758,213.29313,
2210.847,191.29285,
2207.937,244.76621,
2205.026,220.13921,
2202.116,217.01857,
2199.205,230.3627,
2196.294,227.936,
2193.384,222.14499,
2190.473,220.10798,
2187.563,249.337,
2184.652,264.08715,
2181.742,245.95451,
2178.831,242.61186,
2175.920,246.82742,
2173.010,252.97506,
2170.099,256.71627,
2167.189,264.25718,
2164.278,266.42387,
2161.368,276.39248,
2158.457,280.01373,
2155.546,273.68942,
2152.636,264.88832,
2149.725,287.88085,
2146.815,271.01749,
2143.904,301.5474,
2140.993,293.38759,
2138.083,291.62688,
2135.172,302.72061,
2132.262,296.8618,
2129.351,301.82248,
2126.441,311.43448,
2123.530,317.08164,
2120.619,299.49782,
2117.709,279.34944,
2114.798,264.64608,
2111.888,245.02541,
2108.977,255.95862,
2106.067,253.5992,
2103.156,259.80802,
2100.245,250.23808,
2097.335,233.77879,
2094.424,248.18106,
2091.514,230.24458,
2088.603,232.64166,
2085.692,241.70355,
2082.782,239.25,
2079.871,248.28617,
2076.961,252.12084,
2074.050,251.71667,
2071.140,240.28456,
2068.229,237.15494,
2065.318,242.25,
2062.408,233.8786,
2059.497,234.86906,
2056.587,236.99425,
2053.676,251.58234,
2050.766,264.48019,
2047.855,225.30696,
2044.944,226.85096,
2042.034,227.33097,
2039.123,241.33081,
2036.213,241.28997,
2033.302,236.14123,
2030.391,229.9452,
2027.481,236.89622,
2024.570,252.20685,
2021.660,242.01868,
2018.749,277.42646,
2015.839,231.38451,
2012.928,235.69799,
2010.017,254.0676,
2007.107,262.807,
2004.196,239.8928,
2001.286,242.1687,
1998.375,244.20374,
1995.465,245.75625,
1992.554,240.2383,
1989.643,233.45738,
1986.733,240.73509,
1983.822,205.70125,
1980.912,249.58553,
1978.001,208.58025,
1975.090,219.85153,
1972.180,213.94017,
1969.269,219.00578,
1966.359,211.68223,
1963.448,214.93825,
1960.538,220.06151,
1957.627,207.76702,
1954.716,218.87655,
1951.806,218.15708,
1948.895,198.65281,
1945.985,209.88399,
1943.074,208.39773,
1940.164,190.38466,
1937.253,192.5283,
1934.342,181.173,
1931.432,207.46451,
1928.521,225.45725,
1925.611,205.39302,
1922.700,222.99309,
1919.790,203.41214,
1916.879,181.57524,
1913.968,166.26721,
1911.058,217.13588,
1908.147,186.71861,
1905.237,177.09555,
1902.326,151.9863,
1899.415,127.3024,
1896.505,85.689848,
1893.594,116.32934,
1890.684,146.47871,
1887.773,163.64629,
1884.863,170.61219,
1881.952,192.56978,
1879.041,186.3637,
1876.131,188.57941,
1873.220,188.50663,
1870.310,195.676,
1867.399,214.94612,
1864.489,166.26253,
1861.578,190.22261,
1858.667,177.46259,
1855.757,166.2321,
1852.846,179.21412,
1849.936,163.38913,
1847.025,164.31328,
1844.114,170.00068,
1841.204,210.50524,
1838.293,211.25333,
1835.383,200.50601,
1832.472,203.92478,
1829.562,213.80521,
1826.651,206.36089,
1823.740,205.16188,
1820.830,201.62004,
1817.919,186.4056,
1815.009,192.66857,
1812.098,197.84055,
1809.188,208.56781,
1806.277,190.67051,
1803.366,174.54945,
1800.456,193.4041,
1797.545,213.06561,
1794.635,210.73399,
1791.724,205.76458,
1788.813,197.64923,
1785.903,185.63573,
1782.992,151.29917,
1780.082,101.07325,
1777.171,-58.449719,
1774.261,-127.3639,
1771.350,32.944528,
1768.439,151.12484,
1765.529,196.61766,
1762.618,228.53064,
1759.708,207.66277,
1756.797,208.14394,
1753.887,235.19898,
1750.976,237.07068,
1748.065,246.08103,
1745.155,257.35964,
1742.244,229.79172,
1739.334,213.56529,
1736.423,239.39202,
1733.512,253.88822,
1730.602,270.95836,
1727.691,210.23119,
1724.781,235.87144,
1721.870,250.6643,
1718.960,278.38366,
1716.049,276.69923,
1713.138,263.28006,
1710.228,249.06584,
1707.317,260.51857,
1704.407,230.8061,
1701.496,265.53501,
1698.586,303.43742,
1695.675,271.62878,
1692.764,229.48768,
1689.854,231.07677,
1686.943,258.30568,
1684.033,281.67877,
1681.122,315.67226,
1678.211,287.526,
1675.301,297.21917,
1672.390,309.20514,
1669.480,294.16978,
1666.569,284.99906,
1663.659,342.71103,
1660.748,310.05718,
1657.837,301.43097,
1654.927,354.29686,
1652.016,355.98271,
1649.106,345.32344,
1646.195,348.94532,
1643.285,378.00196,
1640.374,409.33014,
1637.463,366.89852,
1634.553,402.50122,
1631.642,419.48887,
1628.732,441.32703,
1625.821,454.27748,
1622.911,496.01332,
1620.000,550.55707,
1617.089,564.97139,
1614.179,667.28889,
1611.268,683.72951,
1608.358,734.76838,
1605.447,746.67865,
1602.536,723.02093,
1599.626,759.88718,
1596.715,795.92364,
1593.805,743.80142,
1590.894,724.92062,
1587.984,781.27817,
1585.073,687.30117,
1582.162,672.58954,
1579.252,665.06699,
1576.341,649.63192,
1573.431,655.64809,
1570.520,610.09425,
1567.610,613.87774,
1564.699,605.7494,
1561.788,610.81328,
1558.878,603.64303,
1555.967,567.19876,
1553.057,542.31906,
1550.146,544.00998,
1547.235,526.99825,
1544.325,520.73298,
1541.414,533.19063,
1538.504,534.13958,
1535.593,532.68457,
1532.683,521.00878,
1529.772,501.2313,
1526.861,493.22671,
1523.951,487.25,
1521.040,496.49941,
1518.130,527.33665,
1515.219,541.97107,
1512.309,504.7545,
1509.398,504.75378,
1506.487,508.25798,
1503.577,500.57258,
1500.666,508.13808,
1497.756,505.64811,
1494.845,485.8898,
1491.934,477.10827,
1489.024,433.79609,
1486.113,474.90191,
1483.203,455.15764,
1480.292,425.94614,
1477.382,447.11394,
1474.471,409.5094,
1471.560,410.76332,
1468.650,414.88345,
1465.739,425.77882,
1462.829,460.30042,
1459.918,477.04004,
1457.008,450.37276,
1454.097,436.87964,
1451.186,452.99275,
1448.276,447.91886,
1445.365,420.60545,
1442.455,393.14369,
1439.544,369.53881,
1436.633,354.29866,
1433.723,355.76056,
1430.812,334.35307,
1427.902,373.04705,
1424.991,364.51719,
1422.081,316.54119,
1419.170,332.12339,
1416.259,341.7305,
1413.349,348.53669,
1410.438,322.95859,
1407.528,347.94328,
1404.617,348.28764,
1401.707,300.86375,
1398.796,244.34448,
1395.885,233.6793,
1392.975,256.99982,
1390.064,242.18658,
1387.154,221.74509,
1384.243,222.6661,
1381.332,278.70871,
1378.422,248.3178,
1375.511,210.84656,
1372.601,222.23041,
1369.690,297.82835,
1366.780,273.02435,
1363.869,339.53009,
1360.958,317.41335,
1358.048,299.55637,
1355.137,350.45883,
1352.227,379.3545,
1349.316,400.63343,
1346.406,450.50238,
1343.495,431.27437,
1340.584,411.49991,
1337.674,420.57323,
1334.763,449.27327,
1331.853,476.16297,
1328.942,470.13429,
1326.032,492.08738,
1323.121,482.43071,
1320.210,521.86669,
1317.300,540.70861,
1314.389,559.31986,
1311.479,583.18201,
1308.568,596.1522,
1305.657,604.63085,
1302.747,602.98798,
1299.836,658.0412,
1296.926,693.66006,
1294.015,723.99774,
1291.105,703.23646,
1288.194,756.96076,
1285.283,750.48591,
1282.373,759.96868,
1279.462,768.05396,
1276.552,782.04534,
1273.641,778.99204,
1270.731,733.66491,
1267.820,707.2113,
1264.909,703.97535,
1261.999,709.7826,
1259.088,724.37654,
1256.178,744.09204,
1253.267,726.53572,
1250.356,748.69466,
1247.446,742.30128,
1244.535,724.78126,
1241.625,699.04636,
1238.714,682.44082,
1235.804,717.37622,
1232.893,712.62751,
1229.982,700.94336,
1227.072,691.89024,
1224.161,697.13353,
1221.251,664.00258,
1218.340,636.0547,
1215.430,650.37248,
1212.519,662.91137,
1209.608,637.53122,
1206.698,602.69675,
1203.787,597.74247,
1200.877,612.81019,
1197.966,637.98664,
1195.055,675.08644,
1192.145,692.52015,
1189.234,731.93358,
1186.324,770.88825,
1183.413,764.28551,
1180.503,759.5324,
1177.592,797.25988,
1174.681,762.22261,
1171.771,748.68271,
1168.860,767.43759,
1165.950,717.64747,
1163.039,747.85257,
1160.129,728.49927,
1157.218,727.72901,
1154.307,761.55743,
1151.397,768.33982,
1148.486,765.1924,
1145.576,809.01648,
1142.665,780.60326,
1139.754,756.28202,
1136.844,738.64455,
1133.933,756.12374,
1131.023,746.28473,
1128.112,729.03401,
1125.202,753.87318,
1122.291,765.75135,
1119.380,769.26732,
1116.470,771.03238,
1113.559,758.87802,
1110.649,735.60463,
1107.738,747.75436,
1104.828,750.60602,
1101.917,728.72935,
1099.006,734.17779,
1096.096,742.55121,
1093.185,731.13717,
1090.275,744.81686,
1087.364,755.11123,
1084.453,778.49871,
1081.543,764.01275,
1078.632,737.47238,
1075.722,760.48879,
1072.811,744.18795,
1069.901,743.31469,
1066.990,761.84162,
1064.079,781.22131,
1061.169,780.51778,
1058.258,777.63788,
1055.348,781.66208,
1052.437,774.6744,
1049.527,747.96189,
1046.616,792.27219,
1043.705,808.81148,
1040.795,781.60178,
1037.884,772.84754,
1034.974,779.38789,
1032.063,771.00403,
1029.153,758.09291,
1026.242,790.09629,
1023.331,753.7524,
1020.421,784.59058,
1017.510,801.81028,
1014.600,819.59013,
1011.689,829.28156,
1008.778,785.30672,
1005.868,733.13417,
1002.957,720.22885,
1000.047,776.49002,
997.136,829.96559,
994.226,870.98817,
991.315,883.89852,
988.404,854.73757,
985.494,825.88558,
982.583,809.61101,
979.673,810.90823,
976.762,793.46273,
973.852,809.42268,
970.941,838.24772,
968.030,816.24417,
965.120,799.45764,
962.209,848.90508,
959.299,851.58401,
956.388,848.13007,
953.477,838.61842,
950.567,838.01406,
947.656,873.3668,
944.746,889.50836,
941.835,850.56915,
938.925,855.7271,
936.014,848.58104,
933.103,834.60309,
930.193,834.05146,
927.282,828.88337,
924.372,822.11852,
921.461,817.568,
918.551,811.60253,
915.640,796.77652,
912.729,782.86014,
909.819,794.03349,
906.908,845.42142,
903.998,830.75199,
901.087,823.70398,
898.176,810.32012,
895.266,815.65914,
892.355,851.95174,
889.445,834.32713,
886.534,830.07564,
883.624,821.84885,
880.713,817.73964,
877.802,795.71172,
874.892,704.50833,
871.981,475.67923,
869.071,324.4695,
866.160,355.51665,
863.250,537.98664,
860.339,712.82566,
857.428,778.51974,
854.518,805.92809,
851.607,691.10253,
848.697,612.09773,
845.786,517.26544,
842.875,525.20833,
839.965,678.44477,
837.054,775.77099,
834.144,822.18113,
831.233,871.24711,
828.323,872.95084,
825.412,859.40141,
822.501,870.84576,
819.591,874.15136,
816.680,858.22433,
813.770,851.11749,
810.859,837.96898,
807.949,828.93539,
805.038,837.86503,
802.127,809.8787,
799.217,826.63017,
796.306,828.14185,
793.396,832.81498,
790.485,841.82781,
787.574,825.03204,
784.664,819.29125,
781.753,821.60492,
778.843,835.99214,
775.932,858.20047,
773.022,875.58725,
770.111,858.41811,
767.200,863.3405,
764.290,841.55701,
761.379,854.5778,
758.469,893.50713,
755.558,864.27431,
752.648,865.08892,
749.737,858.72211,
746.826,842.66203,
743.916,820.71093,
741.005,800.51636,
738.095,794.02135,
735.184,745.341,
732.274,693.64436,
729.363,677.69922,
726.452,710.82799,
723.542,747.25069,
720.631,792.82872,
717.721,810.83276,
714.810,840.89755,
711.899,875.97275,
708.989,840.46805,
706.078,839.4487,
703.168,855.64497,
700.257,861.71171,
697.347,855.03263,
694.436,853.28983,
691.525,817.92241,
688.615,836.03536,
685.704,842.18443,
682.794,839.14352,
679.883,868.97087,
676.973,884.99828,
674.062,893.35466,
671.151,883.53843,
668.241,867.01175,
665.330,865.00207,
662.420,838.64392,
659.509,827.53562,
656.598,834.636,
653.688,853.31094,
650.777,868.98089,
647.867,831.55347,
644.956,780.52865,
642.046,725.22813,
639.135,679.21938,
636.224,660.82294,
633.314,775.15008,
630.403,794.79063,
627.493,811.67854,
624.582,845.89514,
621.672,830.84725,
618.761,856.84788,
615.850,864.69901,
612.940,883.71748,
610.029,918.88259,
607.119,904.66924,
604.208,930.94052,
601.297,939.75741,
598.387,924.63818,
595.476,896.14689,
592.566,926.84255,
589.655,929.01055,
586.745,933.32556,
583.834,939.05416,
580.923,930.99884,
578.013,889.40794,
575.102,872.51412,
572.192,879.32582,
569.281,897.844,
566.371,890.01776,
563.460,892.77734,
560.549,924.46127,
557.639,955.71287,
554.728,952.96894,
551.818,932.68073,
548.907,906.92054,
545.996,904.91369,
543.086,918.04936,
540.175,893.91134,
537.265,902.38991,
534.354,909.76183,
531.444,909.9061,
528.533,904.94721,
525.622,956.93568,
522.712,925.77727,
519.801,893.28556,
516.891,885.4065,
513.980,886.1808,
511.070,892.58913,
508.159,896.20513,
505.248,894.99674,
502.338,889.22146,
499.427,922.41023,
496.517,915.97729,
493.606,920.7381,
490.695,951.96619,
487.785,942.7287,
484.874,933.49531,
481.964,919.6986,
479.053,905.69843,
476.143,903.39454,
473.232,914.76046,
470.321,915.35739,
467.411,910.23696,
464.500,907.67665,
461.590,924.52294,
458.679,943.00737,
455.769,941.64743,
452.858,920.05605,
449.947,975.82304,
447.037,930.82127,
444.126,915.69242,
441.216,949.60423,
438.305,934.3656,
435.395,947.32964,
432.484,949.83222,
429.573,921.30476,
426.663,831.60816,
423.752,575.2714,
420.842,263.11136,
417.931,-26.291258,
415.020,-190.09661,
412.110,289.30951,
409.199,623.24005,
406.289,775.91886,
403.378,744.02716,
400.468,678.25565,
397.557,678.33013,
394.646,744.84679,
391.736,872.40896,
388.825,908.61206,
385.915,913.39587,
383.004,918.52956,
380.094,943.02155,
377.183,918.94231,
374.272,922.56283,
371.362,946.55502,
368.451,982.52054,
365.541,970.51197,
362.630,969.43496,
359.719,971.84194,
356.809,972.7516,
353.898,964.51482,
350.988,998.59661,
348.077,1023.4418,
345.167,1007.1687,
342.256,966.07996,
339.345,982.41593,
336.435,1001.6982,
333.524,986.80373,
330.614,972.64577,
327.703,967.73659,
324.793,985.0376,
321.882,1036.25,
318.971,1036.25,
316.061,1030.8785,
313.150,1027.3286,
310.240,1034.0076,
307.329,1053.5452,
304.418,1086.7834,
301.508,1109.7669,
298.597,1081.6311,
295.687,1117.1755,
292.776,1128.1666,
289.866,1134.2861,
286.955,1210.3748,
284.044,1276.9099,
281.134,1349.9817,
278.223,1418.4955,
275.313,1413.3375,
272.402,1412.8309,
269.492,1394.5557,
266.581,1346.5776,
263.670,1239.2413,
260.760,1301.7566,
257.849,1413.426,
254.939,1488.282,
252.028,1440.7524,
249.117,1425.4478,
246.207,1439.0994,
243.296,1477.1653,
240.386,1526.3064,
237.475,1560.2389,
234.565,1571.8787,
231.654,1544.1241,
228.743,1533.6471,
225.833,1498.5408,
222.922,1424.1776,
220.012,1379.7357,
217.101,1383.8972,
214.191,1392.5405,
211.280,1356.8949,
208.369,1334.7384,
205.459,1315.2687,
202.548,1304.3865,
199.638,1328.3329,
196.727,1307.8965,
193.816,1307.0103,
190.906,1345.4058,
187.995,1264.315,
185.085,1245.7071,
182.174,1245.8682,
179.264,1207.5616,
176.353,1228.2404,
173.442,1249.1386,
170.532,1252.0932,
167.621,1173.5069,
164.711,1160.6591,
161.800,1108.5292,
158.890,933.6354,
155.979,905.39336,
153.068,859.11818,
150.158,785.43929,
147.247,674.87465,
144.337,568.83466,
141.426,455.05052,
138.516,326.72699,
135.605,233.92543,
132.694,167.43057,
129.784,117.6579,
126.873,63.308032,
123.963,43.144878,
121.052,28.601191,
118.141,9.3258371,
115.231,16.355704,
112.320,14.166369,
109.410,7.9317763,
106.499,11.492552,
103.589,8.3282187,
100.678,4.4351349,
97.767,2.3023222,
94.857,6.4079343,
91.946,8.6531109,
89.036,8.7984084,
86.125,5.9615873,
83.215,5.7809204,
80.304,5.0528366,
77.393,1.5119869,
74.483,3.2154049,
71.572,3.1629437,
68.662,1.1807325,
65.751,0.47428142,
62.840,0.73170198,
59.930,1.9991448,
57.019,4.8194727,
54.109,1.0698741,
51.198,-0.5435629,
48.288,2.2216878,
45.377,-1.2952025,
42.466,-2.75,
39.556,-2.2895257,
36.645,0.51923517,
33.735,-1.3462423,
30.824,-3.529113,
27.914,-2.8279378,
25.003,-5.2405499,
22.092,-4.8125727,
19.182,-0.58981996,
16.271,4.306611,
13.361,47.552882,
10.450,97.639563,
7.539,59.232218,
4.629,-162.44324,
1.718,-457.82295,
-1.192,-774.32657,
-4.103,-633.66449,
-7.013,-359.57043,
-9.924,0.25,
