,PL1CBE~1,
Raman shift [1/cm],Intensity,
3014.167,-0.5,
3011.256,-1.2999571,
3008.346,129.55685,
3005.435,150.76855,
3002.525,151.46253,
2999.614,163.68832,
2996.704,168.18144,
2993.793,166.72005,
2990.882,187.80535,
2987.972,176.54036,
2985.061,184.05665,
2982.151,191.42606,
2979.240,203.9173,
2976.329,216.27867,
2973.419,201.6846,
2970.508,219.14991,
2967.598,246.4008,
2964.687,230.70856,
2961.777,241.12397,
2958.866,261.50148,
2955.955,255.70576,
2953.045,260.06825,
2950.134,278.17057,
2947.224,287.44306,
2944.313,291.79202,
2941.403,295.15465,
2938.492,301.95801,
2935.581,310.56995,
2932.671,309.90346,
2929.760,317.34229,
2926.850,311.34323,
2923.939,327.81774,
2921.028,320.85868,
2918.118,335.10202,
2915.207,362.68368,
2912.297,350.58463,
2909.386,363.6606,
2906.476,338.63203,
2903.565,335.9674,
2900.654,359.24011,
2897.744,364.34913,
2894.833,347.55164,
2891.923,330.7692,
2889.012,345.04335,
2886.102,341.91621,
2883.191,340.50283,
2880.280,350.39952,
2877.370,362.12203,
2874.459,368.1602,
2871.549,350.38173,
2868.638,377.63813,
2865.727,372.73463,
2862.817,366.22861,
2859.906,370.75356,
2856.996,385.47736,
2854.085,383.45797,
2851.175,370.12046,
2848.264,364.01451,
2845.353,365.41373,
2842.443,356.70836,
2839.532,347.17166,
2836.622,349.16276,
2833.711,335.75903,
2830.801,336.00368,
2827.890,345.39686,
2824.979,347.93202,
2822.069,355.31805,
2819.158,336.45957,
2816.248,366.61394,
2813.337,357.79879,
2810.427,349.27961,
2807.516,343.55766,
2804.605,348.52164,
2801.695,343.44735,
2798.784,356.87369,
2795.874,347.63984,
2792.963,351.14287,
2790.052,348.50064,
2787.142,346.81569,
2784.231,350.69253,
2781.321,336.56286,
2778.410,348.70429,
2775.500,351.48035,
2772.589,355.6919,
2769.678,355.5341,
2766.768,366.55826,
2763.857,352.65993,
2760.947,361.95272,
2758.036,350.26431,
2755.126,377.11966,
2752.215,372.84088,
2749.304,373.9892,
2746.394,374.15721,
2743.483,380.50005,
2740.573,368.83848,
2737.662,367.40384,
2734.751,381.40771,
2731.841,358.63369,
2728.930,392.02972,
2726.020,389.06134,
2723.109,373.99517,
2720.199,379.77504,
2717.288,383.28833,
2714.377,384.53344,
2711.467,393.05715,
2708.556,403.5,
2705.646,403.5,
2702.735,412.50516,
2699.825,414.07635,
2696.914,391.07088,
2694.003,409.47236,
2691.093,398.48195,
2688.182,414.88371,
2685.272,398.85419,
2682.361,414.8941,
2679.450,407.00621,
2676.540,423.07319,
2673.629,406.48204,
2670.719,413.85767,
2667.808,390.66725,
2664.898,414.91537,
2661.987,414.46641,
2659.076,414.97413,
2656.166,419.03246,
2653.255,426.31293,
2650.345,436.20417,
2647.434,420.92869,
2644.524,428.97484,
2641.613,430.38561,
2638.702,431.45266,
2635.792,428.77818,
2632.881,449.03577,
2629.971,446.5,
2627.060,419.4975,
2624.149,435.36563,
2621.239,442.52372,
2618.328,439.13581,
2615.418,445.20454,
2612.507,450.21929,
2609.597,448.96906,
2606.686,439.27912,
2603.775,447.30159,
2600.865,447.14845,
2597.954,470.5,
2595.044,468.84809,
2592.133,460.60823,
2589.223,466.4158,
2586.312,472.64574,
2583.401,471.19344,
2580.491,465.78849,
2577.580,459.53796,
2574.670,485.54411,
2571.759,479.73717,
2568.848,478.3785,
2565.938,482.07139,
2563.027,482.37731,
2560.117,471.59345,
2557.206,497.62177,
2554.296,489.93249,
2551.385,499.49193,
2548.474,490.5,
2545.564,492.43669,
2542.653,478.57383,
2539.743,483.40142,
2536.832,493.76542,
2533.922,505.53154,
2531.011,508.32493,
2528.100,504.63587,
2525.190,505.03402,
2522.279,490.86004,
2519.369,516.08505,
2516.458,497.71317,
2513.548,503.68159,
2510.637,498.54521,
2507.726,509.81597,
2504.816,501.75028,
2501.905,508.36951,
2498.995,525.5,
2496.084,524.88676,
2493.173,525.7106,
2490.263,527.5,
2487.352,518.6268,
2484.442,542.79123,
2481.531,536.39364,
2478.621,530.66112,
2475.710,525.59201,
2472.799,541.19951,
2469.889,549.59141,
2466.978,534.23207,
2464.068,540.9921,
2461.157,550.19493,
2458.247,549.55869,
2455.336,544.71136,
2452.425,550.5,
2449.515,538.23597,
2446.604,550.90317,
2443.694,561.0115,
2440.783,562.54842,
2437.872,564.42707,
2434.962,564.60138,
2432.051,577.32729,
2429.141,581.65298,
2426.230,572.08672,
2423.320,579.02863,
2420.409,574.23081,
2417.498,569.90168,
2414.588,591.57215,
2411.677,591.14142,
2408.767,583.01772,
2405.856,588.43809,
2402.946,590.18454,
2400.035,593.19719,
2397.124,585.06149,
2394.214,589.1756,
2391.303,589.57182,
2388.393,606.9233,
2385.482,611.54406,
2382.571,600.30985,
2379.661,619.17424,
2376.750,630.29067,
2373.840,612.38131,
2370.929,599.59747,
2368.019,619.69273,
2365.108,613.7801,
2362.197,616.04252,
2359.287,629.28997,
2356.376,633.49472,
2353.466,637.98639,
2350.555,623.7953,
2347.645,643.60463,
2344.734,645.34792,
2341.823,619.91458,
2338.913,627.43432,
2336.002,636.21997,
2333.092,652.17829,
2330.181,667.62526,
2327.270,639.5352,
2324.360,637.24762,
2321.449,652.70069,
2318.539,669.16057,
2315.628,676.5,
2312.718,665.01762,
2309.807,675.63663,
2306.896,680.52348,
2303.986,685.58438,
2301.075,674.94683,
2298.165,660.32671,
2295.254,673.15531,
2292.344,670.29257,
2289.433,668.24137,
2286.522,696.22761,
2283.612,706.57016,
2280.701,701.44172,
2277.791,697.97716,
2274.880,671.34381,
2271.969,698.98971,
2269.059,689.96867,
2266.148,695.68865,
2263.238,687.50387,
2260.327,720.60333,
2257.417,710.16055,
2254.506,713.88176,
2251.595,714.92543,
2248.685,713.81732,
2245.774,721.51083,
2242.864,736.14837,
2239.953,742.76902,
2237.043,726.48644,
2234.132,730.36746,
2231.221,731.13043,
2228.311,737.80798,
2225.400,757.47185,
2222.490,755.94298,
2219.579,752.81619,
2216.669,765.93084,
2213.758,764.84508,
2210.847,778.26319,
2207.937,818.03416,
2205.026,827.72274,
2202.116,824.25051,
2199.205,857.79977,
2196.294,874.30197,
2193.384,893.44702,
2190.473,904.36385,
2187.563,910.66917,
2184.652,949.11469,
2181.742,969.20451,
2178.831,997.51958,
2175.920,1020.5109,
2173.010,1054.7285,
2170.099,1061.9678,
2167.189,1102.6722,
2164.278,1130.7553,
2161.368,1173.4978,
2158.457,1231.2088,
2155.546,1255.2269,
2152.636,1301.6116,
2149.725,1328.6544,
2146.815,1346.9327,
2143.904,1376.3178,
2140.993,1419.9656,
2138.083,1413.8405,
2135.172,1421.8195,
2132.262,1432.2342,
2129.351,1409.6413,
2126.441,1404.5,
2123.530,1359.6694,
2120.619,1279.3443,
2117.709,1213.6687,
2114.798,1143.0691,
2111.888,1083.5268,
2108.977,1018.798,
2106.067,987.57407,
2103.156,951.70577,
2100.245,914.49624,
2097.335,904.16493,
2094.424,865.08017,
2091.514,846.50542,
2088.603,850.27882,
2085.692,868.14298,
2082.782,851.98614,
2079.871,822.89207,
2076.961,842.88555,
2074.050,845.17879,
2071.140,853.19008,
2068.229,824.41146,
2065.318,832.21701,
2062.408,827.83285,
2059.497,827.14289,
2056.587,821.63986,
2053.676,804.51722,
2050.766,816.34529,
2047.855,820.64563,
2044.944,794.42627,
2042.034,808.52305,
2039.123,808.82323,
2036.213,825.9066,
2033.302,800.97836,
2030.391,801.9405,
2027.481,834.51193,
2024.570,821.74346,
2021.660,823.14522,
2018.749,808.63971,
2015.839,838.71063,
2012.928,842.59228,
2010.017,825.92888,
2007.107,813.89438,
2004.196,801.86903,
2001.286,797.70848,
1998.375,799.89173,
1995.465,828.03125,
1992.554,789.92392,
1989.643,787.36175,
1986.733,777.28596,
1983.822,772.37149,
1980.912,771.64901,
1978.001,783.72077,
1975.090,762.50763,
1972.180,767.7061,
1969.269,788.95406,
1966.359,791.36477,
1963.448,797.72722,
1960.538,798.25396,
1957.627,779.66717,
1954.716,785.27019,
1951.806,752.69227,
1948.895,778.30563,
1945.985,787.49183,
1943.074,754.66964,
1940.164,764.45179,
1937.253,764.69107,
1934.342,764.37166,
1931.432,736.79968,
1928.521,737.89033,
1925.611,746.38309,
1922.700,713.46824,
1919.790,769.95591,
1916.879,754.45299,
1913.968,699.56517,
1911.058,718.20872,
1908.147,753.57735,
1905.237,730.72792,
1902.326,724.46591,
1899.415,741.95487,
1896.505,723.36743,
1893.594,706.68898,
1890.684,701.27772,
1887.773,707.18971,
1884.863,731.01253,
1881.952,736.43259,
1879.041,707.53582,
1876.131,714.15882,
1873.220,714.88495,
1870.310,742.34748,
1867.399,742.53199,
1864.489,698.55148,
1861.578,724.033,
1858.667,721.11376,
1855.757,728.90573,
1852.846,725.51538,
1849.936,736.91842,
1847.025,749.90875,
1844.114,754.64821,
1841.204,749.61888,
1838.293,749.51663,
1835.383,745.51149,
1832.472,778.96609,
1829.562,780.61354,
1826.651,773.91889,
1823.740,783.50768,
1820.830,789.58664,
1817.919,786.42812,
1815.009,793.20611,
1812.098,776.54726,
1809.188,769.81009,
1806.277,787.10163,
1803.366,824.86782,
1800.456,787.44504,
1797.545,787.32975,
1794.635,792.27495,
1791.724,783.37361,
1788.813,835.8838,
1785.903,802.85259,
1782.992,836.42988,
1780.082,787.65934,
1777.171,821.50054,
1774.261,823.86501,
1771.350,832.01925,
1768.439,836.69054,
1765.529,820.2259,
1762.618,825.51065,
1759.708,821.59764,
1756.797,820.71212,
1753.887,826.47376,
1750.976,813.60341,
1748.065,821.78878,
1745.155,842.2741,
1742.244,826.32522,
1739.334,852.15881,
1736.423,862.43459,
1733.512,852.9512,
1730.602,866.20836,
1727.691,850.0055,
1724.781,897.77378,
1721.870,889.96654,
1718.960,905.87804,
1716.049,899.59333,
1713.138,905.19496,
1710.228,893.44555,
1707.317,906.53771,
1704.407,911.19519,
1701.496,876.86118,
1698.586,923.39516,
1695.675,932.17854,
1692.764,921.13934,
1689.854,966.42129,
1686.943,993.62313,
1684.033,1016.9288,
1681.122,928.04631,
1678.211,1025.5483,
1675.301,1064.3828,
1672.390,1020.6645,
1669.480,1075.5963,
1666.569,1087.9824,
1663.659,1125.549,
1660.748,1128.7121,
1657.837,1140.4404,
1654.927,1182.8046,
1652.016,1196.2047,
1649.106,1225.6506,
1646.195,1271.5719,
1643.285,1274.8646,
1640.374,1291.378,
1637.463,1333.5809,
1634.553,1393.1502,
1631.642,1437.1406,
1628.732,1495.9681,
1625.821,1574.5478,
1622.911,1647.0886,
1620.000,1768.9504,
1617.089,1889.092,
1614.179,2000.3415,
1611.268,2180.6593,
1608.358,2279.005,
1605.447,2357.9863,
1602.536,2383.0015,
1599.626,2433.2564,
1596.715,2438.4076,
1593.805,2417.9304,
1590.894,2389.0799,
1587.984,2333.5345,
1585.073,2330.6049,
1582.162,2288.0859,
1579.252,2263.9523,
1576.341,2262.1021,
1573.431,2216.2927,
1570.520,2232.5463,
1567.610,2219.1467,
1564.699,2160.7479,
1561.788,2103.4722,
1558.878,2048.5825,
1555.967,1980.9501,
1553.057,1979.1032,
1550.146,1959.3146,
1547.235,1891.8642,
1544.325,1846.4928,
1541.414,1818.6781,
1538.504,1816.3451,
1535.593,1809.9973,
1532.683,1789.5812,
1529.772,1768.6628,
1526.861,1706.6928,
1523.951,1672.8815,
1521.040,1692.1397,
1518.130,1653.7249,
1515.219,1633.6194,
1512.309,1643.5991,
1509.398,1594.6029,
1506.487,1540.8462,
1503.577,1567.4068,
1500.666,1602.5753,
1497.756,1562.3558,
1494.845,1546.0186,
1491.934,1486.6165,
1489.024,1522.2288,
1486.113,1482.7025,
1483.203,1405.7821,
1480.292,1426.1979,
1477.382,1370.0731,
1474.471,1360.1043,
1471.560,1368.031,
1468.650,1331.5534,
1465.739,1302.6117,
1462.829,1299.4841,
1459.918,1285.4778,
1457.008,1299.408,
1454.097,1322.7271,
1451.186,1321.5793,
1448.276,1325.6069,
1445.365,1326.5355,
1442.455,1333.2462,
1439.544,1347.5263,
1436.633,1309.1594,
1433.723,1274.7492,
1430.812,1273.1753,
1427.902,1231.2971,
1424.991,1222.7672,
1422.081,1170.2038,
1419.170,1194.8781,
1416.259,1184.9189,
1413.349,1170.1714,
1410.438,1187.4934,
1407.528,1172.6816,
1404.617,1179.4624,
1401.707,1191.3802,
1398.796,1174.8672,
1395.885,1164.2875,
1392.975,1173.5625,
1390.064,1183.7407,
1387.154,1186.2091,
1384.243,1134.5009,
1381.332,1150.7534,
1378.422,1094.2966,
1375.511,1206.7103,
1372.601,1286.8335,
1369.690,1345.7906,
1366.780,1424.1991,
1363.869,1457.0295,
1360.958,1426.1881,
1358.048,1414.6197,
1355.137,1482.5821,
1352.227,1542.2451,
1349.316,1587.4935,
1346.406,1679.3643,
1343.495,1732.2578,
1340.584,1732.2852,
1337.674,1768.9672,
1334.763,1815.3116,
1331.853,1836.6379,
1328.942,1874.8575,
1326.032,1880.3156,
1323.121,1917.5482,
1320.210,1955.805,
1317.300,1962.0074,
1314.389,1997.0702,
1311.479,2023.5778,
1308.568,2034.6434,
1305.657,2093.8288,
1302.747,2140.2051,
1299.836,2183.7826,
1296.926,2224.6619,
1294.015,2292.6919,
1291.105,2297.2611,
1288.194,2418.9089,
1285.283,2435.1799,
1282.373,2482.6561,
1279.462,2529.4213,
1276.552,2563.4056,
1273.641,2591.6757,
1270.731,2606.7328,
1267.820,2634.6018,
1264.909,2656.4332,
1261.999,2590.5999,
1259.088,2593.3362,
1256.178,2566.9499,
1253.267,2570.172,
1250.356,2501.3883,
1247.446,2417.0415,
1244.535,2394.3839,
1241.625,2361.0742,
1238.714,2275.9978,
1235.804,2229.2331,
1232.893,2195.6202,
1229.982,2215.2615,
1227.072,2149.1738,
1224.161,2140.2975,
1221.251,2037.5022,
1218.340,1991.4872,
1215.430,1972.2872,
1212.519,1942.4841,
1209.608,1939.6994,
1206.698,1971.3935,
1203.787,1950.4246,
1200.877,1922.1248,
1197.966,1996.7551,
1195.055,2052.5482,
1192.145,2129.1209,
1189.234,2172.9101,
1186.324,2219.4124,
1183.413,2270.1396,
1180.503,2283.3353,
1177.592,2253.6414,
1174.681,2244.839,
1171.771,2224.3982,
1168.860,2133.3031,
1165.950,2112.4057,
1163.039,2092.0399,
1160.129,2019.6159,
1157.218,2005.2671,
1154.307,2028.4823,
1151.397,1998.7267,
1148.486,1962.6499,
1145.576,1963.9626,
1142.665,1974.6175,
1139.754,1966.5501,
1136.844,1923.1821,
1133.933,1889.6643,
1131.023,1873.779,
1128.112,1878.1415,
1125.202,1893.0845,
1122.291,1889.7615,
1119.380,1919.5693,
1116.470,1926.6295,
1113.559,1908.942,
1110.649,1910.0485,
1107.738,1898.4971,
1104.828,1909.6338,
1101.917,1934.328,
1099.006,1917.7576,
1096.096,1940.4574,
1093.185,1907.0933,
1090.275,1960.3396,
1087.364,1943.3106,
1084.453,1930.6249,
1081.543,1928.8707,
1078.632,1941.7965,
1075.722,1973.7388,
1072.811,1958.4928,
1069.901,1972.465,
1066.990,1935.5084,
1064.079,1970.7334,
1061.169,2004.2029,
1058.258,2024.2402,
1055.348,2045.4369,
1052.437,2056.9565,
1049.527,2020.5811,
1046.616,2074.4485,
1043.705,2122.8921,
1040.795,2118.2604,
1037.884,2100.4082,
1034.974,2095.4794,
1032.063,2097.4001,
1029.153,2092.797,
1026.242,2136.9098,
1023.331,2145.9995,
1020.421,2141.9232,
1017.510,2149.0247,
1014.600,2173.4172,
1011.689,2210.1834,
1008.778,2251.0975,
1005.868,2290.1332,
1002.957,2360.6823,
1000.047,2462.5,
997.136,2559.3439,
994.226,2599.0385,
991.315,2551.4852,
988.404,2454.0408,
985.494,2445.6369,
982.583,2407.0919,
979.673,2383.2088,
976.762,2367.6935,
973.852,2359.2899,
970.941,2339.3099,
968.030,2300.4538,
965.120,2311.6862,
962.209,2356.0183,
959.299,2335.17,
956.388,2332.4594,
953.477,2325.9361,
950.567,2318.0026,
947.656,2355.1792,
944.746,2390.8606,
941.835,2387.6411,
938.925,2421.3767,
936.014,2419.267,
933.103,2391.3788,
930.193,2368.9092,
927.282,2337.4918,
924.372,2318.8884,
921.461,2306.1904,
918.551,2282.7483,
915.640,2248.9526,
912.729,2227.8671,
909.819,2241.8328,
906.908,2236.7782,
903.998,2227.751,
901.087,2233.7746,
898.176,2243.272,
895.266,2257.7046,
892.355,2292.7348,
889.445,2374.1437,
886.534,2338.6005,
883.624,2338.9012,
880.713,2374.6524,
877.802,2409.6687,
874.892,2405.55,
871.981,2352.9537,
869.071,2372.1682,
866.160,2372.0502,
863.250,2356.3465,
860.339,2350.6595,
857.428,2365.6044,
854.518,2373.6575,
851.607,2344.5351,
848.697,2305.1091,
845.786,2309.2207,
842.875,2318.7613,
839.965,2303.7573,
837.054,2309.2209,
834.144,2284.3583,
831.233,2284.8329,
828.323,2276.6194,
825.412,2256.485,
822.501,2234.8191,
819.591,2219.9439,
816.680,2191.4551,
813.770,2176.3555,
810.859,2166.9876,
807.949,2154.0585,
805.038,2133.5044,
802.127,2125.2731,
799.217,2140.8986,
796.306,2123.2296,
793.396,2108.6145,
790.485,2108.4461,
787.574,2090.8701,
784.664,2126.955,
781.753,2133.5,
778.843,2120.7579,
775.932,2106.2655,
773.022,2104.768,
770.111,2112.9438,
767.200,2122.6357,
764.290,2105.8522,
761.379,2106.0731,
758.469,2125.9888,
755.558,2115.649,
752.648,2087.1379,
749.737,2079.5416,
746.826,2061.2498,
743.916,2027.818,
741.005,1978.6526,
738.095,1856.0591,
735.184,1743.5368,
732.274,1747.6236,
729.363,1815.752,
726.452,1895.4266,
723.542,2016.8356,
720.631,2041.8489,
717.721,2065.2582,
714.810,2065.9376,
711.899,2042.8663,
708.989,2031.5694,
706.078,2057.1417,
703.168,2039.2112,
700.257,2034.6394,
697.347,2035.7189,
694.436,1981.8235,
691.525,1956.9056,
688.615,1971.6252,
685.704,1997.3142,
682.794,2002.1597,
679.883,1959.9417,
676.973,1991.9966,
674.062,1990.843,
671.151,1998.7732,
668.241,2011.8793,
665.330,2002.8571,
662.420,1989.2787,
659.509,1983.9603,
656.598,2010.196,
653.688,2046.5,
650.777,2046.554,
647.867,2048.1467,
644.956,2037.9744,
642.046,2026.9394,
639.135,2022.1769,
636.224,2028.4403,
633.314,2016.5312,
630.403,2026.5066,
627.493,2020.5211,
624.582,2016.276,
621.672,2104.9793,
618.761,2090.2615,
615.850,2105.4375,
612.940,2132.746,
610.029,2147.3706,
607.119,2116.575,
604.208,2135.5104,
601.297,2152.4763,
598.387,2161.6465,
595.476,2162.4202,
592.566,2140.3823,
589.655,2137.7958,
586.745,2104.6505,
583.834,2046.6662,
580.923,1997.7085,
578.013,2032.2368,
575.102,2038.0585,
572.192,2059.7953,
569.281,2095.9076,
566.371,2053.6459,
563.460,2128.5124,
560.549,2124.4668,
557.639,2090.6027,
554.728,2106.6679,
551.818,2141.0018,
548.907,2134.4835,
545.996,2133.2758,
543.086,2140.4671,
540.175,2117.1077,
537.265,2148.0926,
534.354,2162.0051,
531.444,2164.0573,
528.533,2165.8863,
525.622,2171.3179,
522.712,2163.3987,
519.801,2174.6846,
516.891,2211.8903,
513.980,2258.3481,
511.070,2262.5,
508.159,2295.9296,
505.248,2345.5188,
502.338,2384.0256,
499.427,2367.8171,
496.517,2371.4192,
493.606,2396.3435,
490.695,2429.5416,
487.785,2401.0593,
484.874,2419.7641,
481.964,2415.4736,
479.053,2391.3161,
476.143,2390.5482,
473.232,2465.318,
470.321,2452.6544,
467.411,2415.5913,
464.500,2435.3752,
461.590,2390.9623,
458.679,2415.3697,
455.769,2425.3359,
452.858,2378.8753,
449.947,2353.6656,
447.037,2361.242,
444.126,2372.4576,
441.216,2383.3207,
438.305,2416.8457,
435.395,2424.1225,
432.484,2425.5,
429.573,2423.015,
426.663,2412.373,
423.752,2453.3451,
420.842,2450.4924,
417.931,2434.9806,
415.020,2468.3484,
412.110,2477.5477,
409.199,2499.5709,
406.289,2521.9598,
403.378,2529.6127,
400.468,2562.8765,
397.557,2567.8444,
394.646,2550.3794,
391.736,2515.5201,
388.825,2453.6732,
385.915,2432.839,
383.004,2426.7879,
380.094,2424.3333,
377.183,2558.274,
374.272,2621.5535,
371.362,2658.805,
368.451,2696.5942,
365.541,2714.6071,
362.630,2715.6763,
359.719,2721.675,
356.809,2742.3673,
353.898,2723.6473,
350.988,2730.4347,
348.077,2724.8179,
345.167,2689.3381,
342.256,2745.3682,
339.345,2730.1455,
336.435,2721.6539,
333.524,2772.2516,
330.614,2796.0966,
327.703,2795.2855,
324.793,2789.8201,
321.882,2796.5973,
318.971,2836.7433,
316.061,2866.1261,
313.150,2889.4286,
310.240,2911.692,
307.329,2943.944,
304.418,2981.1215,
301.508,3008.7277,
298.597,3002.0639,
295.687,3040.1027,
292.776,3138.5004,
289.866,3283.5064,
286.955,3440.1162,
284.044,3577.6149,
281.134,3728.9256,
278.223,3885.3259,
275.313,3973.0117,
272.402,4075.1501,
269.492,4177.3246,
266.581,4269.4969,
263.670,4297.4338,
260.760,4379.156,
257.849,4469.3398,
254.939,4534.6554,
252.028,4538.3954,
249.117,4522.5974,
246.207,4484.1272,
243.296,4413.1196,
240.386,4416.6009,
237.475,4375.6292,
234.565,4289.5718,
231.654,4220.1853,
228.743,4136.4558,
225.833,4021.4718,
222.922,3871.5591,
220.012,3787.0466,
217.101,3693.7441,
214.191,3629.8712,
211.280,3644.4205,
208.369,3546.5965,
205.459,3473.7465,
202.548,3434.6198,
199.638,3423.735,
196.727,3380.5887,
193.816,3382.1074,
190.906,3452.351,
187.995,3362.572,
185.085,3380.677,
182.174,3420.0252,
179.264,3362.9267,
176.353,3398.1506,
173.442,3410.6233,
170.532,3387.4677,
167.621,3352.8608,
164.711,3301.4546,
161.800,3232.7794,
158.890,3142.8135,
155.979,2943.3571,
153.068,2682.7743,
150.158,2377.9766,
147.247,2069.2571,
144.337,1695.4713,
141.426,1329.8142,
138.516,1007.2131,
135.605,714.6595,
132.694,483.18897,
129.784,311.54572,
126.873,214.28806,
123.963,146.12904,
121.052,104.1175,
118.141,90.553367,
115.231,58.524334,
112.320,45.076364,
109.410,43.545513,
106.499,38.560427,
103.589,32.45771,
100.678,27.685135,
97.767,25.552322,
94.857,22.728044,
91.946,20.693778,
89.036,19.612898,
86.125,20.322103,
83.215,21.561841,
80.304,21.542269,
77.393,18.70959,
74.483,11.293515,
71.572,10.761169,
68.662,16.084395,
65.751,11.845689,
62.840,16.280424,
59.930,20.252566,
57.019,11.791582,
54.109,7.5141958,
51.198,6.4048278,
48.288,8.5452995,
45.377,14.172324,
42.466,14.438903,
39.556,11.5,
36.645,11.5,
33.735,13.057745,
30.824,12.512017,
27.914,6.20144,
25.003,14.839562,
22.092,17.593859,
19.182,11.362703,
16.271,7.165762,
13.361,60.289537,
10.450,148.48049,
7.539,223.89855,
4.629,283.77335,
1.718,253.93381,
-1.192,33.636135,
-4.103,-12.122415,
-7.013,-16.507485,
-9.924,-0.5,
