,PLF465~1,
Wavenumbers [1/cm],Intensity,
3014.167,-3.875,
3011.256,2.3250429,
3008.346,86.432148,
3005.435,85.782248,
3002.525,101.33249,
2999.614,101.45229,
2996.704,113.48789,
2993.793,110.51498,
2990.882,108.16312,
2987.972,132.99888,
2985.061,116.10531,
2982.151,120.84096,
2979.240,121.60693,
2976.329,141.89821,
2973.419,155.3096,
2970.508,154.27501,
2967.598,143.02942,
2964.687,146.85598,
2961.777,146.78306,
2958.866,159.11461,
2955.955,164.01882,
2953.045,167.125,
2950.134,168.94425,
2947.224,178.49509,
2944.313,197.86645,
2941.403,206.125,
2938.492,206.98679,
2935.581,218.9851,
2932.671,203.56708,
2929.760,215.19423,
2926.850,219.91598,
2923.939,216.45216,
2921.028,231.4254,
2918.118,219.2245,
2915.207,209.82747,
2912.297,227.03614,
2909.386,219.11041,
2906.476,201.03232,
2903.565,220.19019,
2900.654,210.96018,
2897.744,211.27587,
2894.833,219.82609,
2891.923,206.2051,
2889.012,187.58165,
2886.102,197.95743,
2883.191,158.16559,
2880.280,150.20631,
2877.370,25.485686,
2874.459,-43.478564,
2871.549,51.099426,
2868.638,162.04041,
2865.727,180.52114,
2862.817,197.51135,
2859.906,175.88567,
2856.996,203.63179,
2854.085,232.05363,
2851.175,219.95932,
2848.264,227.0515,
2845.353,198.87985,
2842.443,225.93753,
2839.532,201.93105,
2836.622,206.42839,
2833.711,212.85813,
2830.801,202.73676,
2827.890,214.4799,
2824.979,223.90296,
2822.069,216.15912,
2819.158,218.74495,
2816.248,223.35474,
2813.337,235.31037,
2810.427,224.47073,
2807.516,223.07469,
2804.605,217.3726,
2801.695,220.46709,
2798.784,221.68146,
2795.874,216.25955,
2792.963,210.62468,
2790.052,232.11878,
2787.142,216.03296,
2784.231,211.77098,
2781.321,216.24496,
2778.410,203.125,
2775.500,224.56913,
2772.589,222.27943,
2769.678,232.51748,
2766.768,233.31335,
2763.857,244.01903,
2760.947,232.08717,
2758.036,233.74925,
2755.126,240.41346,
2752.215,235.78412,
2749.304,233.76349,
2746.394,242.81853,
2743.483,243.62502,
2740.573,240.01217,
2737.662,240.68861,
2734.751,240.54256,
2731.841,255.74772,
2728.930,236.59528,
2726.020,250.68634,
2723.109,245.37258,
2720.199,247.83128,
2717.288,255.08851,
2714.377,252.93352,
2711.467,253.74807,
2708.556,248.64626,
2705.646,251.66022,
2702.735,261.78479,
2699.825,263.92867,
2696.914,281.22047,
2694.003,274.09736,
2691.093,267.57145,
2688.182,276.52574,
2685.272,266.85046,
2682.361,257.24836,
2679.450,261.58592,
2676.540,254.42986,
2673.629,264.14745,
2670.719,263.11761,
2667.808,274.78455,
2664.898,275.74854,
2661.987,270.65842,
2659.076,273.25216,
2656.166,274.72237,
2653.255,274.42432,
2650.345,263.77291,
2647.434,277.125,
2644.524,280.98593,
2641.613,287.81073,
2638.702,282.21969,
2635.792,285.93657,
2632.881,292.54763,
2629.971,279.91016,
2627.060,292.29343,
2624.149,279.9625,
2621.239,293.39723,
2618.328,293.20977,
2615.418,295.78864,
2612.507,304.57161,
2609.597,300.95135,
2606.686,290.79972,
2603.775,303.88293,
2600.865,292.53795,
2597.954,294.03537,
2595.044,310.14271,
2592.133,301.23323,
2589.223,306.14922,
2586.312,306.7129,
2583.401,320.98265,
2580.491,304.05773,
2577.580,316.08869,
2574.670,294.95521,
2571.759,312.53937,
2568.848,298.78232,
2565.938,316.26792,
2563.027,304.83184,
2560.117,301.03155,
2557.206,339.19142,
2554.296,317.58038,
2551.385,315.81906,
2548.474,354.08858,
2545.564,320.64447,
2542.653,343.96728,
2539.743,331.72974,
2536.832,331.43155,
2533.922,321.14077,
2531.011,331.19923,
2528.100,338.59882,
2525.190,345.47049,
2522.279,352.42153,
2519.369,343.25676,
2516.458,335.66679,
2513.548,341.16107,
2510.637,332.30945,
2507.726,339.49676,
2504.816,337.31102,
2501.905,334.61768,
2498.995,340.48331,
2496.084,349.19122,
2493.173,343.41407,
2490.263,353.06853,
2487.352,353.6242,
2484.442,348.9601,
2481.531,354.54001,
2478.621,347.1961,
2475.710,378.09433,
2472.799,371.41203,
2469.889,371.85078,
2466.978,378.23843,
2464.068,370.42127,
2461.157,363.74489,
2458.247,378.86024,
2455.336,371.80602,
2452.425,372.01651,
2449.515,375.22896,
2446.604,382.0674,
2443.694,366.75243,
2440.783,392.75113,
2437.872,383.16146,
2434.962,380.97293,
2432.051,384.80425,
2429.141,391.7192,
2426.230,363.88516,
2423.320,382.63896,
2420.409,393.09942,
2417.498,395.9031,
2414.588,391.31516,
2411.677,364.05732,
2408.767,395.44882,
2405.856,413.65595,
2402.946,396.01151,
2400.035,399.8128,
2397.124,391.71856,
2394.214,421.0982,
2391.303,412.94275,
2388.393,398.89941,
2385.482,378.96217,
2382.571,380.82155,
2379.661,368.00874,
2376.750,393.32926,
2373.840,415.47811,
2370.929,422.06002,
2368.019,422.31773,
2365.108,421.93914,
2362.197,430.27847,
2359.287,441.11664,
2356.376,429.14789,
2353.466,431.92809,
2350.555,425.98982,
2347.645,424.63757,
2344.734,451.18957,
2341.823,432.53958,
2338.913,441.28319,
2336.002,439.62011,
2333.092,446.73441,
2330.181,447.68763,
2327.270,446.40003,
2324.360,444.46932,
2321.449,451.18622,
2318.539,453.25345,
2315.628,456.33523,
2312.718,452.47522,
2309.807,472.1003,
2306.896,457.36913,
2303.986,460.7809,
2301.075,473.67817,
2298.165,464.35553,
2295.254,461.125,
2292.344,466.38218,
2289.433,477.70409,
2286.522,469.49988,
2283.612,472.08417,
2280.701,482.70344,
2277.791,485.80627,
2274.880,493.77916,
2271.969,469.70113,
2269.059,484.59367,
2266.148,479.37041,
2263.238,483.32191,
2260.327,485.2973,
2257.417,480.29277,
2254.506,495.67484,
2251.595,499.97221,
2248.685,507.38846,
2245.774,502.61958,
2242.864,531.02277,
2239.953,513.30434,
2237.043,503.61822,
2234.132,496.47306,
2231.221,509.33696,
2228.311,524.69329,
2225.400,533.01242,
2222.490,531.91008,
2219.579,536.60311,
2216.669,537.05346,
2213.758,529.9472,
2210.847,537.47006,
2207.937,568.02562,
2205.026,554.45912,
2202.116,540.46681,
2199.205,557.41276,
2196.294,558.30698,
2193.384,587.99254,
2190.473,593.83509,
2187.563,616.12017,
2184.652,614.07072,
2181.742,608.71598,
2178.831,608.80593,
2175.920,610.62227,
2173.010,625.45096,
2170.099,619.72619,
2167.189,647.25416,
2164.278,665.85867,
2161.368,673.83884,
2158.457,692.02117,
2155.546,704.68558,
2152.636,696.76332,
2149.725,705.60821,
2146.815,726.49099,
2143.904,726.43354,
2140.993,744.56419,
2138.083,748.52615,
2135.172,759.71317,
2132.262,766.02377,
2129.351,756.4904,
2126.441,745.70751,
2123.530,721.18112,
2120.619,725.29935,
2117.709,708.52275,
2114.798,669.90955,
2111.888,662.17491,
2108.977,648.86671,
2106.067,626.4742,
2103.156,626.52418,
2100.245,599.11998,
2097.335,592.4496,
2094.424,603.80045,
2091.514,596.61145,
2088.603,595.95901,
2085.692,602.39276,
2082.782,582.34995,
2079.871,607.87645,
2076.961,598.22282,
2074.050,615.1553,
2071.140,598.5386,
2068.229,607.85938,
2065.318,603.33526,
2062.408,610.61744,
2059.497,613.52977,
2056.587,615.83429,
2053.676,594.07635,
2050.766,594.66312,
2047.855,594.21044,
2044.944,596.19391,
2042.034,589.65101,
2039.123,600.70749,
2036.213,602.57157,
2033.302,611.62443,
2030.391,640.5488,
2027.481,632.42994,
2024.570,626.75366,
2021.660,637.41545,
2018.749,630.39093,
2015.839,630.26476,
2012.928,594.63004,
2010.017,616.9567,
2007.107,608.73062,
2004.196,619.73216,
2001.286,642.85641,
1998.375,623.81101,
1995.465,598.32589,
1992.554,583.73098,
1989.643,623.63876,
1986.733,576.9443,
1983.822,609.68925,
1980.912,604.69857,
1978.001,583.02297,
1975.090,601.31279,
1972.180,582.95482,
1969.269,555.86062,
1966.359,566.44948,
1963.448,595.77098,
1960.538,590.32934,
1957.627,567.50889,
1954.716,550.5559,
1951.806,583.88305,
1948.895,559.74241,
1945.985,561.82271,
1943.074,565.26177,
1940.164,534.59632,
1937.253,546.4033,
1934.342,539.5865,
1931.432,557.6392,
1928.521,549.44797,
1925.611,553.42352,
1922.700,556.95925,
1919.790,569.04393,
1916.879,546.93849,
1913.968,545.125,
1911.058,557.20908,
1908.147,533.4462,
1905.237,553.73528,
1902.326,550.49833,
1899.415,538.75424,
1896.505,482.72117,
1893.594,472.2958,
1890.684,511.68044,
1887.773,535.05586,
1884.863,554.7947,
1881.952,535.22528,
1879.041,548.08918,
1876.131,574.85571,
1873.220,536.41244,
1870.310,535.6945,
1867.399,573.51724,
1864.489,534.05964,
1861.578,560.39398,
1858.667,588.89748,
1855.757,570.72285,
1852.846,564.07887,
1849.936,542.56643,
1847.025,547.36345,
1844.114,548.41446,
1841.204,575.63549,
1838.293,579.62749,
1835.383,563.91601,
1832.472,574.06761,
1829.562,589.125,
1826.651,597.33033,
1823.740,583.6537,
1820.830,576.35334,
1817.919,594.04128,
1815.009,583.56902,
1812.098,594.58956,
1809.188,632.70631,
1806.277,572.54144,
1803.366,576.74237,
1800.456,557.25756,
1797.545,611.03281,
1794.635,608.18997,
1791.724,598.26088,
1788.813,615.5268,
1785.903,612.6832,
1782.992,586.73454,
1780.082,564.6139,
1777.171,480.44618,
1774.261,451.18532,
1771.350,511.18076,
1768.439,583.53253,
1765.529,636.49266,
1762.618,659.22624,
1759.708,625.98339,
1756.797,625.0947,
1753.887,666.61334,
1750.976,680.125,
1748.065,670.90841,
1745.155,686.84098,
1742.244,667.34244,
1739.334,657.28735,
1736.423,677.08199,
1733.512,689.94615,
1730.602,680.90475,
1727.691,693.24587,
1724.781,718.57599,
1721.870,713.66303,
1718.960,762.10339,
1716.049,701.81215,
1713.138,737.71476,
1710.228,733.07055,
1707.317,742.62443,
1704.407,757.60096,
1701.496,758.21345,
1698.586,747.03719,
1695.675,771.38913,
1692.764,717.26841,
1689.854,745.69588,
1686.943,777.07951,
1684.033,765.44787,
1681.122,775.93808,
1678.211,803.85851,
1675.301,807.11575,
1672.390,834.05621,
1669.480,811.34962,
1666.569,839.87406,
1663.659,898.125,
1660.748,898.5492,
1657.837,921.15288,
1654.927,967.17186,
1652.016,968.78481,
1649.106,956.34905,
1646.195,1005.7004,
1643.285,1030.2188,
1640.374,1076.3724,
1637.463,1042.9805,
1634.553,1144.8048,
1631.642,1190.8416,
1628.732,1256.5279,
1625.821,1324.1584,
1622.911,1374.8376,
1620.000,1493.6132,
1617.089,1598.0354,
1614.179,1696.3331,
1611.268,1783.8533,
1608.358,1909.1316,
1605.447,2003.7543,
1602.536,2004.4656,
1599.626,2074.9598,
1596.715,2023.9461,
1593.805,2009.1817,
1590.894,1950.8814,
1587.984,1950.9198,
1585.073,1908.7333,
1582.162,1873.5738,
1579.252,1809.2073,
1576.341,1773.6952,
1573.431,1728.9663,
1570.520,1702.0731,
1567.610,1716.4978,
1564.699,1643.3717,
1561.788,1596.2238,
1558.878,1600.732,
1555.967,1553.9325,
1553.057,1499.0563,
1550.146,1489.885,
1547.235,1440.9956,
1544.325,1413.739,
1541.414,1420.5849,
1538.504,1435.5391,
1535.593,1431.1353,
1532.683,1406.5311,
1529.772,1407.5936,
1526.861,1418.539,
1523.951,1424.3613,
1521.040,1427.0973,
1518.130,1431.3567,
1515.219,1444.0051,
1512.309,1433.4448,
1509.398,1408.4064,
1506.487,1400.133,
1503.577,1394.6519,
1500.666,1417.9231,
1497.756,1438.5231,
1494.845,1417.8443,
1491.934,1386.9959,
1489.024,1347.5337,
1486.113,1365.5965,
1483.203,1363.5723,
1480.292,1332.5786,
1477.382,1312.5765,
1474.471,1258.478,
1471.560,1243.8507,
1468.650,1233.8759,
1465.739,1225.2821,
1462.829,1251.1754,
1459.918,1297.7495,
1457.008,1337.3868,
1454.097,1337.4873,
1451.186,1317.2933,
1448.276,1299.5214,
1445.365,1260.516,
1442.455,1223.3657,
1439.544,1181.8816,
1436.633,1171.6781,
1433.723,1159.0034,
1430.812,1152.6765,
1427.902,1171.9446,
1424.991,1164.3625,
1422.081,1126.5084,
1419.170,1133.4937,
1416.259,1178.8684,
1413.349,1145.321,
1410.438,1133.2243,
1407.528,1107.0878,
1404.617,1092.7121,
1401.707,1048.0801,
1398.796,971.77894,
1395.885,963.36937,
1392.975,997.08283,
1390.064,971.00467,
1387.154,955.04982,
1384.243,933.91788,
1381.332,926.13302,
1378.422,909.83517,
1375.511,904.21448,
1372.601,984.30162,
1369.690,1039.1295,
1366.780,1042.3728,
1363.869,1086.8931,
1360.958,1125.2519,
1358.048,1117.139,
1355.137,1149.3338,
1352.227,1193.3276,
1349.316,1226.2872,
1346.406,1280.1078,
1343.495,1288.1563,
1340.584,1271.3029,
1337.674,1321.4482,
1334.763,1350.4658,
1331.853,1385.7006,
1328.942,1411.1405,
1326.032,1461.431,
1323.121,1455.8238,
1320.210,1456.7842,
1317.300,1486.6854,
1314.389,1541.0979,
1311.479,1596.9695,
1308.568,1613.2717,
1305.657,1608.1396,
1302.747,1660.0433,
1299.836,1709.6361,
1296.926,1758.7742,
1294.015,1815.7723,
1291.105,1866.5548,
1288.194,1894.6911,
1285.283,1927.3331,
1282.373,1952.0468,
1279.462,1963.4191,
1276.552,1970.7707,
1273.641,1971.1901,
1270.731,1964.8892,
1267.820,1967.0476,
1264.909,1959.3668,
1261.999,1960.4592,
1259.088,1942.2168,
1256.178,1951.4025,
1253.267,1912.4636,
1250.356,1854.0717,
1247.446,1827.4312,
1244.535,1797.8617,
1241.625,1751.3436,
1238.714,1743.9203,
1235.804,1786.8823,
1232.893,1764.256,
1229.982,1736.2664,
1227.072,1710.9177,
1224.161,1704.9225,
1221.251,1668.3886,
1218.340,1628.9169,
1215.430,1607.5186,
1212.519,1590.806,
1209.608,1570.7462,
1206.698,1559.6357,
1203.787,1564.0848,
1200.877,1580.125,
1197.966,1580.125,
1195.055,1610.842,
1192.145,1696.5187,
1189.234,1774.3796,
1186.324,1843.5835,
1183.413,1881.2164,
1180.503,1892.8819,
1177.592,1896.9732,
1174.681,1861.3921,
1171.771,1868.8063,
1168.860,1811.6485,
1165.950,1809.3502,
1163.039,1755.6496,
1160.129,1739.7931,
1157.218,1804.2555,
1154.307,1868.8671,
1151.397,1877.6847,
1148.486,1908.7158,
1145.576,1960.1954,
1142.665,1892.714,
1139.754,1892.0068,
1136.844,1844.1038,
1133.933,1832.5091,
1131.023,1804.1899,
1128.112,1779.7657,
1125.202,1813.6129,
1122.291,1832.2368,
1119.380,1798.151,
1116.470,1800.7986,
1113.559,1777.9275,
1110.649,1765.8862,
1107.738,1747.0505,
1104.828,1755.1783,
1101.917,1773.6984,
1099.006,1742.8982,
1096.096,1735.6737,
1093.185,1711.9676,
1090.275,1757.8719,
1087.364,1752.6581,
1084.453,1747.3749,
1081.543,1752.1925,
1078.632,1756.4384,
1075.722,1752.7996,
1072.811,1734.9317,
1069.901,1746.2841,
1066.990,1765.7166,
1064.079,1775.5691,
1061.169,1794.694,
1058.258,1796.2674,
1055.348,1784.8283,
1052.437,1795.961,
1049.527,1795.6621,
1046.616,1809.5633,
1043.705,1791.0851,
1040.795,1806.1957,
1037.884,1802.9529,
1034.974,1798.5528,
1032.063,1818.2711,
1029.153,1823.6709,
1026.242,1811.5615,
1023.331,1798.6258,
1020.421,1844.9221,
1017.510,1875.6497,
1014.600,1902.5798,
1011.689,1918.8625,
1008.778,1894.0047,
1005.868,1899.3876,
1002.957,1928.6396,
1000.047,1988.453,
997.136,2025.5701,
994.226,2033.5558,
991.315,2016.3379,
988.404,1989.3948,
985.494,2000.0509,
982.583,1952.0838,
979.673,1911.4693,
976.762,1882.6861,
973.852,1875.5451,
970.941,1885.8671,
968.030,1893.518,
965.120,1873.1107,
962.209,1869.7005,
959.299,1917.2859,
956.388,1946.6444,
953.477,1959.4684,
950.567,1966.3407,
947.656,1967.6901,
944.746,1994.8759,
941.835,1987.2171,
938.925,2004.8665,
936.014,1981.7405,
933.103,1946.6533,
930.193,1928.941,
927.282,1876.6749,
924.372,1886.8222,
921.461,1846.8866,
918.551,1830.9631,
915.640,1832.6747,
912.729,1851.958,
909.819,1895.4586,
906.908,1897.9859,
903.998,1883.0131,
901.087,1867.6679,
898.176,1862.5566,
895.266,1877.4558,
892.355,1903.612,
889.445,1890.1838,
886.534,1951.0706,
883.624,1929.4834,
880.713,1905.4697,
877.802,1869.9863,
874.892,1802.0496,
871.981,1731.8304,
869.071,1592.3165,
866.160,1598.4832,
863.250,1695.9974,
860.339,1807.9224,
857.428,1869.638,
854.518,1857.3918,
851.607,1797.4828,
848.697,1736.2265,
845.786,1687.1767,
842.875,1709.6149,
839.965,1815.5236,
837.054,1904.86,
834.144,1970.3314,
831.233,2007.1233,
828.323,1996.3747,
825.412,1974.7348,
822.501,1979.6144,
819.591,1987.8784,
816.680,1953.6698,
813.770,1921.3179,
810.859,1897.6489,
807.949,1894.3933,
805.038,1907.9613,
802.127,1840.4648,
799.217,1845.3059,
796.306,1826.4221,
793.396,1839.4917,
790.485,1883.124,
787.574,1868.9346,
784.664,1890.2575,
781.753,1883.3893,
778.843,1894.2977,
775.932,1906.8041,
773.022,1898.393,
770.111,1906.5688,
767.200,1901.0345,
764.290,1893.9241,
761.379,1882.2476,
758.469,1874.1011,
755.558,1888.6874,
752.648,1874.0245,
749.737,1867.2083,
746.826,1870.7197,
743.916,1874.8912,
741.005,1865.1817,
738.095,1830.271,
735.184,1763.9148,
732.274,1698.6309,
729.363,1697.4292,
726.452,1772.8259,
723.542,1804.3923,
720.631,1812.2413,
717.721,1814.125,
714.810,1844.1987,
711.899,1898.0161,
708.989,1918.9962,
706.078,1913.5159,
703.168,1881.764,
700.257,1869.9639,
697.347,1881.3424,
694.436,1882.3869,
691.525,1892.0325,
688.615,1889.7226,
685.704,1898.7807,
682.794,1919.742,
679.883,1939.6028,
676.973,1972.459,
674.062,1954.8779,
671.151,1942.0017,
668.241,1937.6453,
665.330,1918.1964,
662.420,1877.4611,
659.509,1881.8236,
656.598,1912.4935,
653.688,1935.5336,
650.777,1909.3959,
647.867,1887.8951,
644.956,1881.8867,
642.046,1834.69,
639.135,1782.3304,
636.224,1832.2245,
633.314,1852.0729,
630.403,1896.7361,
627.493,1918.3639,
624.582,1901.709,
621.672,1868.4452,
618.761,1861.8054,
615.850,1919.0807,
612.940,1992.3986,
610.029,2038.4945,
607.119,2022.7019,
604.208,2013.3149,
601.297,2033.0568,
598.387,2039.787,
595.476,1999.4221,
592.566,2002.5704,
589.655,2029.0406,
586.745,2057.446,
583.834,2069.7571,
580.923,2047.1582,
578.013,2052.6513,
575.102,2012.8266,
572.192,1995.7018,
569.281,2021.6716,
566.371,2030.2805,
563.460,2033.9469,
560.549,2050.7179,
557.639,2079.2103,
554.728,2111.3859,
551.818,2099.6812,
548.907,2068.4826,
545.996,2063.7326,
543.086,2082.7763,
540.175,2071.8753,
537.265,2057.3637,
534.354,2063.1622,
531.444,2072.4531,
528.533,2068.3457,
525.622,2071.4495,
522.712,2050.8886,
519.801,2034.8337,
516.891,2031.5945,
513.980,2033.9174,
511.070,2057.3685,
508.159,2057.5737,
505.248,2043.1192,
502.338,2032.2772,
499.427,2071.6406,
496.517,2101.923,
493.606,2097.945,
490.695,2068.5768,
487.785,2129.3902,
484.874,2112.6298,
481.964,2088.5736,
479.053,2066.6675,
476.143,2031.3412,
473.232,2034.1608,
470.321,2072.6182,
467.411,2094.6631,
464.500,2046.9395,
461.590,2079.1006,
458.679,2085.3735,
455.769,2079.0292,
452.858,2071.159,
449.947,2081.0901,
447.037,2084.3385,
444.126,2093.628,
441.216,2104.4209,
438.305,2083.0868,
435.395,2086.0257,
432.484,2089.125,
429.573,2081.6699,
426.663,2049.744,
423.752,1932.7483,
420.842,1726.4817,
417.931,1510.3903,
415.020,1405.7369,
412.110,1789.1484,
409.199,2042.6163,
406.289,2142.6444,
403.378,2091.9585,
400.468,2042.8189,
397.557,2049.7476,
394.646,2105.6012,
391.736,2197.8453,
388.825,2157.8711,
385.915,2144.5284,
383.004,2142.2684,
380.094,2141.9677,
377.183,2178.0865,
374.272,2195.1811,
371.362,2205.5399,
368.451,2216.5809,
365.541,2224.0863,
362.630,2231.0412,
359.719,2232.7573,
356.809,2227.3062,
353.898,2230.3014,
350.988,2241.9747,
348.077,2243.284,
345.167,2221.4383,
342.256,2168.3964,
339.345,2219.0226,
336.435,2275.4594,
333.524,2271.219,
330.614,2274.1996,
327.703,2291.0406,
324.793,2316.6944,
321.882,2347.1827,
318.971,2370.9729,
316.061,2387.9147,
313.150,2411.444,
310.240,2457.4552,
307.329,2540.5936,
304.418,2585.4357,
301.508,2606.2296,
298.597,2629.1826,
295.687,2641.2836,
292.776,2701.9586,
289.866,2804.8798,
286.955,2922.3371,
284.044,3009.3324,
281.134,3131.218,
278.223,3278.0708,
275.313,3339.2298,
272.402,3380.0084,
269.492,3433.0777,
266.581,3498.5546,
263.670,3420.6255,
260.760,3479.6168,
257.849,3588.2564,
254.939,3685.8628,
252.028,3696.535,
249.117,3677.7405,
246.207,3651.125,
243.296,3651.125,
240.386,3625.0053,
237.475,3624.1874,
234.565,3629.5954,
231.654,3530.9936,
228.743,3498.6176,
225.833,3459.0256,
222.922,3384.3879,
220.012,3304.2468,
217.101,3259.9685,
214.191,3226.4815,
211.280,3177.7415,
208.369,3090.0233,
205.459,3051.1213,
202.548,3051.7434,
199.638,3037.956,
196.727,3030.5153,
193.816,3015.9872,
190.906,2986.976,
187.995,2897.197,
185.085,2898.752,
182.174,2918.0831,
179.264,2855.2025,
176.353,2870.5523,
173.442,2904.1534,
170.532,2931.9682,
167.621,2853.3819,
164.711,2810.5767,
161.800,2729.1923,
158.890,2547.821,
155.979,2352.1987,
153.068,2164.0125,
150.158,1971.3506,
147.247,1725.8109,
144.337,1444.1658,
141.426,1139.8895,
138.516,815.85461,
135.605,589.83108,
132.694,419.71919,
129.784,292.49828,
126.873,186.65906,
123.963,125.29009,
121.052,81.243828,
118.141,46.26263,
115.231,43.993289,
112.320,37.194097,
109.410,29.261355,
106.499,29.97351,
103.589,26.763473,
100.678,23.038513,
97.767,20.194763,
94.857,13.888099,
91.946,13.543665,
89.036,17.237898,
86.125,17.947103,
83.215,21.310522,
80.304,19.815212,
77.393,7.0681528,
74.483,8.7455398,
71.572,8.3132394,
68.662,5.540605,
65.751,9.7793115,
62.840,7.7530861,
59.930,3.3758552,
57.019,0.55552727,
54.109,2.5136434,
51.198,4.7282186,
48.288,6.1136751,
45.377,4.706919,
42.466,2.4761226,
39.556,0.125,
36.645,0.125,
33.735,0.125,
30.824,-0.53766092,
27.914,-2.6411867,
25.003,-7.8560998,
22.092,-6.6772407,
19.182,2.1707657,
16.271,3.569746,
13.361,-0.93249572,
10.450,-46.576102,
7.539,-271.43365,
4.629,-715.05343,
1.718,-1142.7997,
-1.192,-1361.006,
-4.103,-1007.2586,
-7.013,-530.42604,
-9.924,-2.875,
