,PL328E~1,
Wavenumbers [1/cm],Intensity,
3014.167,-2.375,
3011.256,-0.375,
3008.346,32.889213,
3005.435,5.2045085,
3002.525,13.662472,
2999.614,10.566591,
2996.704,28.943557,
2993.793,23.138824,
2990.882,19.40359,
2987.972,37.483741,
2985.061,16.718605,
2982.151,21.221635,
2979.240,36.840774,
2976.329,35.614079,
2973.419,39.809596,
2970.508,43.091653,
2967.598,19.816165,
2964.687,24.102581,
2961.777,21.001032,
2958.866,42.633908,
2955.955,31.383849,
2953.045,33.560137,
2950.134,42.380093,
2947.224,33.422127,
2944.313,52.085825,
2941.403,43.363138,
2938.492,49.177837,
2935.581,47.66793,
2932.671,51.028465,
2929.760,56.328827,
2926.850,59.841164,
2923.939,50.625,
2921.028,52.166192,
2918.118,64.004092,
2915.207,53.681926,
2912.297,59.59115,
2909.386,61.062944,
2906.476,47.602566,
2903.565,52.092405,
2900.654,57.013272,
2897.744,63.625,
2894.833,58.264275,
2891.923,58.734003,
2889.012,40.075869,
2886.102,64.625,
2883.191,57.631608,
2880.280,120.07955,
2877.370,110.43321,
2874.459,48.788697,
2871.549,46.506194,
2868.638,49.354875,
2865.727,41.255776,
2862.817,47.368308,
2859.906,44.080839,
2856.996,51.606885,
2854.085,70.589313,
2851.175,53.528633,
2848.264,52.120165,
2845.353,46.250444,
2842.443,65.041711,
2839.532,42.087738,
2836.622,46.259767,
2833.711,57.557521,
2830.801,50.344845,
2827.890,50.457158,
2824.979,54.254934,
2822.069,68.488535,
2819.158,60.045489,
2816.248,58.901054,
2813.337,70.129888,
2810.427,58.750337,
2807.516,54.99922,
2804.605,65.012018,
2801.695,58.664466,
2798.784,53.772846,
2795.874,53.759554,
2792.963,62.910745,
2790.052,59.625858,
2787.142,65.21727,
2784.231,67.722845,
2781.321,56.247838,
2778.410,54.774739,
2775.500,58.327415,
2772.589,59.047785,
2769.678,59.730777,
2766.768,60.75509,
2763.857,66.83309,
2760.947,47.128152,
2758.036,74.733444,
2755.126,72.244658,
2752.215,72.752299,
2749.304,70.263494,
2746.394,67.741911,
2743.483,72.325014,
2740.573,78.49672,
2737.662,58.838021,
2734.751,58.207441,
2731.841,62.625,
2728.930,59.400429,
2726.020,68.079283,
2723.109,69.418917,
2720.199,75.372032,
2717.288,62.957125,
2714.377,74.23746,
2711.467,69.838186,
2708.556,64.018685,
2705.646,61.625,
2702.735,81.127579,
2699.825,73.35405,
2696.914,85.292302,
2694.003,85.781094,
2691.093,87.374707,
2688.182,83.443519,
2685.272,78.863975,
2682.361,74.531113,
2679.450,64.332816,
2676.540,74.584352,
2673.629,71.297653,
2670.719,71.836647,
2667.808,86.944102,
2664.898,85.625,
2661.987,82.791611,
2659.076,93.717663,
2656.166,61.8674,
2653.255,76.769562,
2650.345,79.568738,
2647.434,71.540121,
2644.524,96.833607,
2641.613,80.081944,
2638.702,84.498752,
2635.792,92.251117,
2632.881,91.130826,
2629.971,80.047718,
2627.060,82.290003,
2624.149,94.246877,
2621.239,89.619071,
2618.328,83.86203,
2615.418,72.597735,
2612.507,88.968857,
2609.597,79.818612,
2606.686,89.04066,
2603.775,90.946431,
2600.865,89.50894,
2597.954,82.397821,
2595.044,112.66928,
2592.133,94.675875,
2589.223,98.540798,
2586.312,97.283295,
2583.401,86.646868,
2580.491,95.225907,
2577.580,93.603545,
2574.670,79.794788,
2571.759,88.635267,
2568.848,100.91783,
2565.938,111.29176,
2563.027,96.063653,
2560.117,90.353969,
2557.206,87.816882,
2554.296,94.512872,
2551.385,105.81502,
2548.474,126.92166,
2545.564,91.049499,
2542.653,124.08809,
2539.743,121.18045,
2536.832,103.78761,
2533.922,96.971923,
2531.011,117.25012,
2528.100,100.29743,
2525.190,117.08565,
2522.279,114.96843,
2519.369,100.71939,
2516.458,97.513102,
2513.548,103.09764,
2510.637,119.70276,
2507.726,106.56181,
2504.816,101.31158,
2501.905,115.91464,
2498.995,95.341627,
2496.084,109.3846,
2493.173,113.96705,
2490.263,115.01822,
2487.352,110.7502,
2484.442,112.77061,
2481.531,110.625,
2478.621,110.625,
2475.710,130.51765,
2472.799,114.89856,
2469.889,108.1707,
2466.978,112.39814,
2464.068,101.21755,
2461.157,118.89254,
2458.247,115.88976,
2455.336,118.32754,
2452.425,123.75708,
2449.515,114.36097,
2446.604,116.80474,
2443.694,113.36925,
2440.783,119.48311,
2437.872,122.51561,
2434.962,117.26095,
2432.051,121.35359,
2429.141,129.06622,
2426.230,112.66806,
2423.320,128.83939,
2420.409,121.22122,
2417.498,131.1812,
2414.588,117.91788,
2411.677,115.34217,
2408.767,134.625,
2405.856,132.74882,
2402.946,125.83322,
2400.035,138.90905,
2397.124,122.7373,
2394.214,132.38379,
2391.303,144.73001,
2388.393,117.97611,
2385.482,118.27251,
2382.571,120.96687,
2379.661,116.88083,
2376.750,118.51907,
2373.840,130.03746,
2370.929,137.57085,
2368.019,123.81773,
2365.108,132.13547,
2362.197,134.66606,
2359.287,138.20495,
2356.376,150.60739,
2353.466,156.33915,
2350.555,123.46489,
2347.645,124.54552,
2344.734,133.35312,
2341.823,137.57525,
2338.913,153.36229,
2336.002,141.0412,
2333.092,135.60233,
2330.181,129.16974,
2327.270,125.95503,
2324.360,146.49057,
2321.449,146.27126,
2318.539,154.77486,
2315.628,158.13779,
2312.718,152.2087,
2309.807,139.71801,
2306.896,149.83783,
2303.986,138.67048,
2301.075,145.7101,
2298.165,157.2021,
2295.254,141.03432,
2292.344,163.20594,
2289.433,147.56318,
2286.522,149.5936,
2283.612,157.65432,
2280.701,162.27969,
2277.791,147.86545,
2274.880,153.625,
2271.969,158.65381,
2269.059,160.48058,
2266.148,137.38627,
2263.238,134.22345,
2260.327,149.7286,
2257.417,162.25278,
2254.506,163.52532,
2251.595,160.63964,
2248.685,158.9365,
2245.774,161.72392,
2242.864,159.81951,
2239.953,167.85939,
2237.043,184.06643,
2234.132,173.91595,
2231.221,175.44158,
2228.311,175.14562,
2225.400,185.45613,
2222.490,178.13963,
2219.579,175.38594,
2216.669,185.11308,
2213.758,186.32042,
2210.847,177.56456,
2207.937,178.50285,
2205.026,186.17951,
2202.116,204.92332,
2199.205,181.74971,
2196.294,189.311,
2193.384,192.7565,
2190.473,195.34096,
2187.563,209.654,
2184.652,218.48663,
2181.742,223.39634,
2178.831,193.10748,
2175.920,201.44832,
2173.010,216.42545,
2170.099,216.89186,
2167.189,222.68958,
2164.278,230.01093,
2161.368,226.05292,
2158.457,234.9651,
2155.546,247.68465,
2152.636,250.77929,
2149.725,244.79279,
2146.815,272.6573,
2143.904,260.43539,
2140.993,278.87376,
2138.083,261.00188,
2135.172,277.05363,
2132.262,272.48151,
2129.351,280.48371,
2126.441,269.72204,
2123.530,296.35562,
2120.619,270.97369,
2117.709,259.83394,
2114.798,251.40955,
2111.888,237.52518,
2108.977,234.89652,
2106.067,221.21582,
2103.156,236.86121,
2100.245,217.63504,
2097.335,232.66165,
2094.424,223.7102,
2091.514,217.26747,
2088.603,218.04896,
2085.692,232.03757,
2082.782,225.78172,
2079.871,216.33912,
2076.961,228.72091,
2074.050,242.3947,
2071.140,201.68223,
2068.229,218.16927,
2065.318,229.19376,
2062.408,240.68552,
2059.497,233.61904,
2056.587,228.78784,
2053.676,246.40719,
2050.766,253.39406,
2047.855,234.56804,
2044.944,229.56571,
2042.034,210.57299,
2039.123,227.56776,
2036.213,248.43386,
2033.302,232.47295,
2030.391,236.57385,
2027.481,261.22239,
2024.570,244.86846,
2021.660,218.98497,
2018.749,259.16911,
2015.839,246.41437,
2012.928,237.9354,
2010.017,236.59894,
2007.107,238.20631,
2004.196,243.76788,
2001.286,261.70978,
1998.375,248.05314,
1995.465,229.97232,
1992.554,227.625,
1989.643,222.79782,
1986.733,223.8557,
1983.822,247.03563,
1980.912,251.7534,
1978.001,236.11665,
1975.090,237.00058,
1972.180,236.00534,
1969.269,237.64516,
1966.359,238.5438,
1963.448,231.43345,
1960.538,246.04368,
1957.627,242.49187,
1954.716,229.96972,
1951.806,250.78047,
1948.895,232.45702,
1945.985,225.59069,
1943.074,248.77273,
1940.164,232.89433,
1937.253,234.16862,
1934.342,228.65067,
1931.432,248.36633,
1928.521,237.24676,
1925.611,241.92352,
1922.700,250.99931,
1919.790,230.09345,
1916.879,216.39224,
1913.968,219.62008,
1911.058,253.0304,
1908.147,243.16367,
1905.237,230.64704,
1902.326,220.73463,
1899.415,217.76767,
1896.505,210.98056,
1893.594,232.71343,
1890.684,218.52055,
1887.773,223.15029,
1884.863,231.33343,
1881.952,239.87737,
1879.041,247.13798,
1876.131,250.06814,
1873.220,210.52749,
1870.310,257.53522,
1867.399,248.83292,
1864.489,225.58606,
1861.578,227.80058,
1858.667,253.63701,
1855.757,227.01641,
1852.846,233.86091,
1849.936,224.11349,
1847.025,210.74667,
1844.114,222.39922,
1841.204,267.5271,
1838.293,274.11585,
1835.383,262.68352,
1832.472,256.92761,
1829.562,261.3474,
1826.651,261.30878,
1823.740,245.60964,
1820.830,248.11326,
1817.919,262.84065,
1815.009,245.07539,
1812.098,261.37302,
1809.188,286.13658,
1806.277,239.70946,
1803.366,239.67491,
1800.456,243.0097,
1797.545,252.11424,
1794.635,277.01201,
1791.724,278.63472,
1788.813,278.63143,
1785.903,295.57657,
1782.992,290.99014,
1780.082,303.51616,
1777.171,259.6041,
1774.261,211.92061,
1771.350,260.27175,
1768.439,261.71124,
1765.529,306.72233,
1762.618,334.5806,
1759.708,293.54864,
1756.797,295.5947,
1753.887,311.1629,
1750.976,311.11125,
1748.065,293.50519,
1745.155,310.28285,
1742.244,322.32791,
1739.334,300.45324,
1736.423,326.95205,
1733.512,317.61274,
1730.602,342.28576,
1727.691,346.71606,
1724.781,320.24113,
1721.870,343.40136,
1718.960,373.6475,
1716.049,367.71833,
1713.138,385.2899,
1710.228,351.20223,
1707.317,373.04671,
1704.407,366.74263,
1701.496,384.7675,
1698.586,375.53719,
1695.675,393.33917,
1692.764,358.64957,
1689.854,360.45177,
1686.943,376.08539,
1684.033,384.42631,
1681.122,394.45508,
1678.211,435.23479,
1675.301,424.65892,
1672.390,405.55322,
1669.480,381.59291,
1666.569,378.67876,
1663.659,460.36368,
1660.748,445.02992,
1657.837,465.86557,
1654.927,476.83586,
1652.016,485.35771,
1649.106,474.13538,
1646.195,455.9437,
1643.285,509.39713,
1640.374,499.83406,
1637.463,509.58897,
1634.553,508.37867,
1631.642,558.72272,
1628.732,567.78499,
1625.821,594.6407,
1622.911,618.48976,
1620.000,657.13365,
1617.089,666.4459,
1614.179,712.29955,
1611.268,758.87764,
1608.358,837.83233,
1605.447,907.62554,
1602.536,878.07706,
1599.626,912.42231,
1596.715,886.58176,
1593.805,872.89302,
1590.894,871.625,
1587.984,887.21466,
1585.073,817.30557,
1582.162,844.69953,
1579.252,811.70994,
1576.341,775.38884,
1573.431,797.60244,
1570.520,791.10184,
1567.610,753.84018,
1564.699,745.52512,
1561.788,736.76594,
1558.878,744.23197,
1555.967,737.07237,
1553.057,689.1599,
1550.146,665.01046,
1547.235,672.88957,
1544.325,706.90159,
1541.414,684.34031,
1538.504,671.80132,
1535.593,694.16426,
1532.683,670.11468,
1529.772,637.15635,
1526.861,641.90184,
1523.951,669.45213,
1521.040,680.56958,
1518.130,687.21895,
1515.219,701.38569,
1512.309,681.34123,
1509.398,684.03199,
1506.487,655.70358,
1503.577,671.97625,
1500.666,682.15533,
1497.756,659.43068,
1494.845,713.4227,
1491.934,612.69744,
1489.024,634.83478,
1486.113,656.95096,
1483.203,670.17118,
1480.292,627.5024,
1477.382,692.36734,
1474.471,635.18924,
1471.560,639.47465,
1468.650,608.62858,
1465.739,590.26549,
1462.829,595.39954,
1459.918,637.85186,
1457.008,660.99412,
1454.097,641.07105,
1451.186,654.24008,
1448.276,672.06963,
1445.365,624.47966,
1442.455,589.15861,
1439.544,580.68225,
1436.633,600.05201,
1433.723,589.13556,
1430.812,563.51676,
1427.902,550.39169,
1424.991,582.61561,
1422.081,569.86284,
1419.170,557.39222,
1416.259,558.05519,
1413.349,572.21934,
1410.438,605.31597,
1407.528,608.61262,
1404.617,584.24977,
1401.707,545.7178,
1398.796,529.76135,
1395.885,558.12124,
1392.975,560.64467,
1390.064,535.2299,
1387.154,594.52205,
1384.243,585.7281,
1381.332,574.30103,
1378.422,555.23856,
1375.511,547.74431,
1372.601,572.5074,
1369.690,559.195,
1366.780,554.24889,
1363.869,603.02544,
1360.958,597.85721,
1358.048,614.10397,
1355.137,631.52226,
1352.227,633.74267,
1349.316,645.23509,
1346.406,670.31335,
1343.495,695.14763,
1340.584,690.44539,
1337.674,754.22976,
1334.763,717.94257,
1331.853,726.28765,
1328.942,713.28304,
1326.032,736.09362,
1323.121,722.35992,
1320.210,762.23945,
1317.300,776.77152,
1314.389,785.52807,
1311.479,789.13964,
1308.568,776.70257,
1305.657,781.15362,
1302.747,799.55422,
1299.836,847.23926,
1296.926,854.18874,
1294.015,909.34816,
1291.105,894.89471,
1288.194,924.57472,
1285.283,878.92477,
1282.373,886.73427,
1279.462,922.84032,
1276.552,942.34155,
1273.641,945.10657,
1270.731,954.38621,
1267.820,984.91013,
1264.909,985.28351,
1261.999,923.02719,
1259.088,879.24537,
1256.178,904.03161,
1253.267,881.00596,
1250.356,873.97951,
1247.446,888.11972,
1244.535,888.70538,
1241.625,873.16576,
1238.714,862.37955,
1235.804,863.12012,
1232.893,871.38155,
1229.982,842.11562,
1227.072,856.60062,
1224.161,857.625,
1221.251,830.82267,
1218.340,797.00815,
1215.430,786.92821,
1212.519,784.64465,
1209.608,773.30937,
1206.698,776.90192,
1203.787,813.59987,
1200.877,801.78919,
1197.966,788.3018,
1195.055,808.10297,
1192.145,866.47307,
1189.234,903.43998,
1186.324,934.89977,
1183.413,925.24426,
1180.503,923.00153,
1177.592,966.18011,
1174.681,897.73802,
1171.771,892.03711,
1168.860,909.8989,
1165.950,864.86021,
1163.039,869.68826,
1160.129,850.67138,
1157.218,870.12241,
1154.307,909.1409,
1151.397,900.10803,
1148.486,891.51554,
1145.576,944.57974,
1142.665,874.43462,
1139.754,884.89757,
1136.844,885.82379,
1133.933,895.76862,
1131.023,875.77134,
1128.112,853.90937,
1125.202,875.93899,
1122.291,888.48887,
1119.380,859.74626,
1116.470,872.10165,
1113.559,846.56128,
1110.649,849.75738,
1107.738,860.98318,
1104.828,869.3699,
1101.917,866.34062,
1099.006,849.07855,
1096.096,859.60369,
1093.185,842.92164,
1090.275,885.32559,
1087.364,877.09968,
1084.453,866.93761,
1081.543,860.36635,
1078.632,852.05803,
1075.722,857.46385,
1072.811,893.76343,
1069.901,867.56561,
1066.990,851.88337,
1064.079,884.01172,
1061.169,860.85931,
1058.258,856.57505,
1055.348,896.68271,
1052.437,897.52529,
1049.527,876.85997,
1046.616,882.94177,
1043.705,889.79112,
1040.795,902.47958,
1037.884,910.14221,
1034.974,917.95618,
1032.063,923.85594,
1029.153,912.26018,
1026.242,942.53366,
1023.331,915.29348,
1020.421,951.45109,
1017.510,960.10031,
1014.600,969.5422,
1011.689,987.77881,
1008.778,974.74533,
1005.868,970.00339,
1002.957,1012.1607,
1000.047,1023.721,
997.136,1034.4349,
994.226,1035.2712,
991.315,1021.3181,
988.404,999.43683,
985.494,972.93188,
982.583,986.63678,
979.673,973.26042,
976.762,970.56051,
973.852,968.64691,
970.941,960.66119,
968.030,953.47471,
965.120,952.77894,
962.209,989.43825,
959.299,983.58476,
956.388,995.98389,
953.477,1005.5147,
950.567,1010.6048,
947.656,1038.6169,
944.746,1015.6789,
941.835,1013.0054,
938.925,1031.0504,
936.014,1022.9211,
933.103,1005.625,
930.193,1003.0282,
927.282,993.44991,
924.372,1008.6708,
921.461,1010.625,
918.551,985.64486,
915.640,954.87669,
912.729,942.72377,
909.819,960.51717,
906.908,990.00204,
903.998,974.92235,
901.087,991.62971,
898.176,993.6039,
895.266,998.17755,
892.355,1025.6567,
889.445,993.76458,
886.534,1009.4876,
883.624,1028.1001,
880.713,1041.2389,
877.802,1041.7615,
874.892,1031.8896,
871.981,1025.5672,
869.071,896.07816,
866.160,856.37601,
863.250,917.29557,
860.339,991.08018,
857.428,1018.8947,
854.518,1049.0954,
851.607,1030.7899,
848.697,1007.6783,
845.786,955.03184,
842.875,941.88978,
839.965,998.37273,
837.054,1025.0809,
834.144,1065.6897,
831.233,1093.6236,
828.323,1088.7878,
825.412,1081.0301,
822.501,1094.5398,
819.591,1082.9703,
816.680,1086.6314,
813.770,1078.2275,
810.859,1050.063,
807.949,1026.4836,
805.038,1034.4347,
802.127,1016.3259,
799.217,1015.3704,
796.306,1004.2736,
793.396,997.18227,
790.485,1001.7308,
787.574,1010.528,
784.664,1034.3112,
781.753,1059.4255,
778.843,1066.6845,
775.932,1064.5509,
773.022,1067.3858,
770.111,1072.2913,
767.200,1084.806,
764.290,1064.932,
761.379,1060.6226,
758.469,1075.8119,
755.558,1058.6705,
752.648,1093.6984,
749.737,1082.9997,
746.826,1081.0845,
743.916,1099.6771,
741.005,1130.8522,
738.095,1177.1292,
735.184,1181.9099,
732.274,1126.9317,
729.363,1071.9091,
726.452,1057.4091,
723.542,1039.6024,
720.631,1041.6832,
717.721,1063.8203,
714.810,1084.5738,
711.899,1089.0507,
708.989,1073.7192,
706.078,1094.4589,
703.168,1104.4828,
700.257,1094.0101,
697.347,1065.2782,
694.436,1033.0652,
691.525,1086.1164,
688.615,1083.789,
685.704,1079.9419,
682.794,1088.6675,
679.883,1100.2109,
676.973,1135.4712,
674.062,1138.7965,
671.151,1118.2151,
668.241,1103.6784,
665.330,1130.7342,
662.420,1090.7976,
659.509,1090.2442,
656.598,1099.3852,
653.688,1113.4464,
650.777,1138.8689,
647.867,1116.5718,
644.956,1138.8676,
642.046,1121.628,
639.135,1066.2887,
636.224,1038.8916,
633.314,1092.0855,
630.403,1107.3986,
627.493,1112.8498,
624.582,1111.5027,
621.672,1075.071,
618.761,1094.1434,
615.850,1157.9277,
612.940,1218.6279,
610.029,1236.0239,
607.119,1178.3808,
604.208,1204.5756,
601.297,1224.1057,
598.387,1210.5607,
595.476,1162.2591,
592.566,1179.5746,
589.655,1198.1744,
586.745,1207.059,
583.834,1203.8921,
580.923,1190.7056,
578.013,1204.046,
575.102,1203.0363,
572.192,1205.3416,
569.281,1219.843,
566.371,1243.3217,
563.460,1225.8719,
560.549,1236.6289,
557.639,1261.1906,
554.728,1273.9206,
551.818,1278.6025,
548.907,1229.6531,
545.996,1210.4551,
543.086,1230.625,
540.175,1230.625,
537.265,1217.588,
534.354,1218.6453,
531.444,1224.3463,
528.533,1226.2737,
525.622,1263.5192,
522.712,1258.8832,
519.801,1218.1652,
516.891,1173.7633,
513.980,1214.0266,
511.070,1221.1467,
508.159,1224.5353,
505.248,1226.3746,
502.338,1226.0768,
499.427,1241.5135,
496.517,1225.2614,
493.606,1229.1415,
490.695,1266.5552,
487.785,1258.8572,
484.874,1224.6676,
481.964,1207.4556,
479.053,1213.9569,
476.143,1236.2278,
473.232,1236.9056,
470.321,1234.6787,
467.411,1235.1576,
464.500,1242.7995,
461.590,1249.6912,
458.679,1261.5303,
455.769,1256.3923,
452.858,1229.1362,
449.947,1243.6509,
447.037,1246.625,
444.126,1255.128,
441.216,1267.2438,
438.305,1253.529,
435.395,1274.5723,
432.484,1277.8732,
429.573,1260.1224,
426.663,1236.5581,
423.752,1222.7689,
420.842,1199.8142,
417.931,1135.3158,
415.020,982.88579,
412.110,1117.3631,
409.199,1222.4147,
406.289,1281.5768,
403.378,1290.5891,
400.468,1280.0052,
397.557,1262.743,
394.646,1267.1325,
391.736,1314.7216,
388.825,1317.7385,
385.915,1339.9127,
383.004,1347.2033,
380.094,1317.3965,
377.183,1293.3173,
374.272,1313.764,
371.362,1329.5611,
368.451,1313.2177,
365.541,1322.9747,
362.630,1310.8765,
359.719,1291.8177,
356.809,1276.8483,
353.898,1297.0659,
350.988,1314.0172,
348.077,1326.5291,
345.167,1332.2627,
342.256,1305.3682,
339.345,1313.568,
336.435,1327.625,
333.524,1327.9069,
330.614,1336.8487,
327.703,1342.7054,
324.793,1346.3984,
321.882,1348.6412,
318.971,1355.3322,
316.061,1364.4614,
313.150,1378.5536,
310.240,1400.817,
307.329,1440.93,
304.418,1447.9619,
301.508,1444.5173,
298.597,1470.4319,
295.687,1478.7202,
292.776,1509.9585,
289.866,1550.8705,
286.955,1556.7803,
284.044,1550.6675,
281.134,1591.4298,
278.223,1665.9005,
275.313,1654.1108,
272.402,1699.84,
269.492,1744.1306,
266.581,1763.4163,
263.670,1746.5072,
260.760,1745.2817,
257.849,1757.3503,
254.939,1782.3023,
252.028,1771.0435,
249.117,1769.366,
246.207,1773.3826,
243.296,1776.3108,
240.386,1798.1737,
237.475,1798.0994,
234.565,1773.9883,
231.654,1738.1995,
228.743,1740.4063,
225.833,1722.3186,
222.922,1663.5378,
220.012,1640.2241,
217.101,1660.5958,
214.191,1676.5114,
211.280,1632.8636,
208.369,1614.1503,
205.459,1610.6175,
202.548,1615.1208,
199.638,1606.413,
196.727,1592.5245,
193.816,1566.1657,
190.906,1524.5584,
187.995,1494.1494,
185.085,1525.2363,
182.174,1558.3049,
179.264,1509.1568,
176.353,1510.6736,
173.442,1531.3027,
170.532,1550.5441,
167.621,1464.0271,
164.711,1437.9972,
161.800,1389.4213,
158.890,1254.1125,
155.979,1191.4786,
153.068,1093.783,
150.158,962.70692,
147.247,816.24466,
144.337,689.38396,
141.426,558.00437,
138.516,410.32478,
135.605,276.94771,
132.694,185.75308,
129.784,127.26282,
126.873,84.355025,
123.963,60.260106,
121.052,40.409613,
118.141,19.706455,
115.231,20.33557,
112.320,17.235913,
109.410,13.034066,
106.499,15.170531,
103.589,11.703219,
100.678,6.7236481,
97.767,1.747085,
94.857,0.2390219,
91.946,3.2529978,
89.036,8.8507958,
86.125,10.269206,
83.215,11.15592,
80.304,8.7518078,
77.393,0.25376854,
74.483,2.9006748,
71.572,3.1755915,
68.662,0.2786625,
65.751,-3.2535929,
62.840,0.44201983,
59.930,5.4377138,
57.019,4.7326318,
54.109,2.2363566,
51.198,0.32339072,
48.288,-0.34668779,
45.377,3.1702025,
42.466,2.151684,
39.556,-1.375,
36.645,-1.375,
33.735,-3.9712423,
30.824,-7.4794349,
27.914,-10.985311,
25.003,-13.242912,
22.092,-13.406286,
19.182,-11.306351,
16.271,-9.207881,
13.361,-32.398105,
10.450,-133.28221,
7.539,-527.83039,
4.629,-1122.949,
1.718,-1630.5595,
-1.192,-1781.1427,
-4.103,-1299.6553,
-7.013,-678.7371,
-9.924,2.625,
