,PLE5C1~1,
Wavenumbers [1/cm],Intensity,
3014.167,-0.625,
3011.256,1.9250107,
3008.346,40.03341,
3005.435,18.339668,
3002.525,29.412472,
2999.614,37.137336,
2996.704,46.596646,
2993.793,50.393432,
2990.882,40.329177,
2987.972,47.30437,
2985.061,33.375,
2982.151,43.062403,
2979.240,45.439626,
2976.329,52.618175,
2973.419,73.421471,
2970.508,60.375,
2967.598,46.422791,
2964.687,51.673233,
2961.777,48.221071,
2958.866,65.709323,
2955.955,59.06306,
2953.045,67.126691,
2950.134,75.130093,
2947.224,58.944376,
2944.313,79.27386,
2941.403,83.851277,
2938.492,76.247636,
2935.581,84.783586,
2932.671,83.057425,
2929.760,88.959605,
2926.850,76.74079,
2923.939,81.655377,
2921.028,85.769172,
2918.118,95.294394,
2915.207,87.431926,
2912.297,85.375,
2909.386,82.579378,
2906.476,78.731749,
2903.565,87.794259,
2900.654,89.986728,
2897.744,86.551011,
2894.833,93.777184,
2891.923,94.105804,
2889.012,74.15535,
2886.102,90.837183,
2883.191,73.378776,
2880.280,116.32238,
2877.370,35.910199,
2874.459,4.6581685,
2871.549,16.927478,
2868.638,72.29041,
2865.727,63.871184,
2862.817,81.976578,
2859.906,79.007483,
2856.996,83.307069,
2854.085,105.41703,
2851.175,90.444312,
2848.264,87.723163,
2845.353,84.612237,
2842.443,91.781267,
2839.532,79.389968,
2836.622,92.796226,
2833.711,90.996681,
2830.801,78.99411,
2827.890,84.981665,
2824.979,96.733004,
2822.069,96.386372,
2819.158,98.895217,
2816.248,88.674212,
2813.337,107.33355,
2810.427,95.676649,
2807.516,94.48297,
2804.605,92.257221,
2801.695,100.01972,
2798.784,95.301077,
2795.874,93.079472,
2792.963,92.731913,
2790.052,88.374786,
2787.142,87.033078,
2784.231,96.44023,
2781.321,80.689301,
2778.410,87.449869,
2775.500,91.140862,
2772.589,90.259557,
2769.678,97.265747,
2766.768,98.258484,
2763.857,102.74301,
2760.947,92.834022,
2758.036,106.70633,
2755.126,97.853631,
2752.215,100.94785,
2749.304,107.6304,
2746.394,107.52824,
2743.483,111.52497,
2740.573,102.29308,
2737.662,85.715235,
2734.751,95.957441,
2731.841,104.83471,
2728.930,93.090987,
2726.020,104.92593,
2723.109,110.24083,
2720.199,118.14071,
2717.288,111.26916,
2714.377,108.40844,
2711.467,108.55522,
2708.556,108.68363,
2705.646,100.99471,
2702.735,112.87242,
2699.825,111.35319,
2696.914,111.56545,
2694.003,118.65955,
2691.093,119.78536,
2688.182,116.48463,
2685.272,122.18012,
2682.361,113.49836,
2679.450,124.20626,
2676.540,122.07014,
2673.629,106.37949,
2670.719,108.87131,
2667.808,119.93728,
2664.898,120.75146,
2661.987,119.04145,
2659.076,116.48491,
2656.166,119.60014,
2653.255,119.07568,
2650.345,123.45485,
2647.434,102.9183,
2644.524,120.14719,
2641.613,128.91806,
2638.702,131.39078,
2635.792,114.12277,
2632.881,130.79763,
2629.971,130.375,
2627.060,117.53969,
2624.149,128.78126,
2621.239,121.12055,
2618.328,120.79887,
2615.418,126.725,
2612.507,127.44216,
2609.597,125.10953,
2606.686,121.3489,
2603.775,122.49405,
2600.865,130.07811,
2597.954,140.42291,
2595.044,135.42814,
2592.133,120.92912,
2589.223,141.66449,
2586.312,135.52074,
2583.401,127.78375,
2580.491,142.24995,
2577.580,135.3618,
2574.670,128.75869,
2571.759,141.18321,
2568.848,131.08762,
2565.938,161.51806,
2563.027,134.375,
2560.117,137.55258,
2557.206,136.66282,
2554.296,135.77775,
2551.385,146.49899,
2548.474,158.74563,
2545.564,155.6599,
2542.653,157.38506,
2539.743,153.54752,
2536.832,131.06845,
2533.922,144.70615,
2531.011,167.02486,
2528.100,154.31571,
2525.190,143.32787,
2522.279,164.71843,
2519.369,148.05445,
2516.458,138.70715,
2513.548,155.98383,
2510.637,155.98983,
2507.726,165.99954,
2504.816,155.56102,
2501.905,152.0561,
2498.995,151.09163,
2496.084,160.84189,
2493.173,147.97997,
2490.263,166.70047,
2487.352,153.70887,
2484.442,158.81184,
2481.531,152.90159,
2478.621,158.74943,
2475.710,177.24465,
2472.799,155.68895,
2469.889,148.64648,
2466.978,166.478,
2464.068,152.17917,
2461.157,158.75999,
2458.247,170.61041,
2455.336,180.41805,
2452.425,174.80896,
2449.515,172.88435,
2446.604,170.4326,
2443.694,166.56084,
2440.783,167.23311,
2437.872,156.95844,
2434.962,166.59621,
2432.051,160.12827,
2429.141,183.89836,
2426.230,164.13516,
2423.320,188.53212,
2420.409,182.18924,
2417.498,179.34973,
2414.588,171.47772,
2411.677,176.55429,
2408.767,184.41043,
2405.856,196.65832,
2402.946,168.20163,
2400.035,183.9431,
2397.124,160.29477,
2394.214,185.6458,
2391.303,182.87229,
2388.393,171.89592,
2385.482,172.28688,
2382.571,148.03313,
2379.661,150.25874,
2376.750,175.57926,
2373.840,192.23751,
2370.929,187.41832,
2368.019,190.86947,
2365.108,184.32788,
2362.197,193.36131,
2359.287,190.58503,
2356.376,206.34506,
2353.466,206.4367,
2350.555,190.77001,
2347.645,186.04653,
2344.734,191.83124,
2341.823,177.65691,
2338.913,188.77648,
2336.002,193.61173,
2333.092,203.11083,
2330.181,186.07579,
2327.270,186.20998,
2324.360,201.24057,
2321.449,202.96004,
2318.539,200.20373,
2315.628,206.32384,
2312.718,200.00935,
2309.807,186.62934,
2306.896,214.60348,
2303.986,203.76459,
2301.075,203.4601,
2298.165,218.14447,
2295.254,199.84895,
2292.344,202.36659,
2289.433,226.64909,
2286.522,222.66955,
2283.612,223.71427,
2280.701,218.50953,
2277.791,227.05253,
2274.880,200.08291,
2271.969,220.08282,
2269.059,219.90633,
2266.148,213.4568,
2263.238,214.17423,
2260.327,214.61628,
2257.417,206.51,
2254.506,219.84796,
2251.595,215.67326,
2248.685,222.31532,
2245.774,217.562,
2242.864,224.82886,
2239.953,227.05094,
2237.043,214.32321,
2234.132,221.22953,
2231.221,233.61277,
2228.311,231.28609,
2225.400,246.26242,
2222.490,237.73321,
2219.579,227.63212,
2216.669,250.36069,
2213.758,237.72008,
2210.847,222.1206,
2207.937,246.27562,
2205.026,246.15255,
2202.116,251.32617,
2199.205,246.31265,
2196.294,247.30899,
2193.384,256.76951,
2190.473,242.21537,
2187.563,299.404,
2184.652,300.10358,
2181.742,265.35165,
2178.831,259.97036,
2175.920,275.36954,
2173.010,294.87613,
2170.099,277.84424,
2167.189,272.51133,
2164.278,289.90766,
2161.368,286.51724,
2158.457,289.63158,
2155.546,289.82887,
2152.636,295.49735,
2149.725,305.85821,
2146.815,313.20816,
2143.904,307.17797,
2140.993,314.6078,
2138.083,320.11662,
2135.172,331.84561,
2132.262,312.21743,
2129.351,326.31654,
2126.441,322.12253,
2123.530,326.58826,
2120.619,339.32021,
2117.709,300.58394,
2114.798,293.32494,
2111.888,284.35005,
2108.977,298.63329,
2106.067,303.58311,
2103.156,289.17747,
2100.245,275.36496,
2097.335,263.10798,
2094.424,286.54541,
2091.514,269.01205,
2088.603,261.27361,
2085.692,275.19649,
2082.782,274.1863,
2079.871,283.51852,
2076.961,274.21451,
2074.050,272.32652,
2071.140,267.35233,
2068.229,255.35545,
2065.318,282.437,
2062.408,281.46578,
2059.497,285.59525,
2056.587,276.06131,
2053.676,266.92515,
2050.766,303.29577,
2047.855,272.03325,
2044.944,261.83814,
2042.034,268.29403,
2039.123,264.15614,
2036.213,268.29941,
2033.302,274.59216,
2030.391,274.49399,
2027.481,260.67994,
2024.570,279.44587,
2021.660,239.15408,
2018.749,309.62744,
2015.839,267.39272,
2012.928,278.76594,
2010.017,273.375,
2007.107,275.04977,
2004.196,270.20831,
2001.286,291.17,
1998.375,289.19487,
1995.465,274.08214,
1992.554,249.58696,
1989.643,265.68373,
1986.733,269.5557,
1983.822,245.41562,
1980.912,282.07697,
1978.001,238.80728,
1975.090,237.76584,
1972.180,240.89229,
1969.269,229.61922,
1966.359,229.80754,
1963.448,251.90737,
1960.538,244.57934,
1957.627,246.72485,
1954.716,212.40917,
1951.806,240.02725,
1948.895,230.56937,
1945.985,218.93219,
1943.074,247.25325,
1940.164,236.19212,
1937.253,222.23585,
1934.342,216.81939,
1931.432,223.6526,
1928.521,243.11593,
1925.611,254.14117,
1922.700,238.9634,
1919.790,222.31733,
1916.879,232.46826,
1913.968,225.38484,
1911.058,270.384,
1908.147,249.86545,
1905.237,209.16178,
1902.326,210.83723,
1899.415,193.4067,
1896.505,179.58573,
1893.594,191.17693,
1890.684,210.98293,
1887.773,221.90029,
1884.863,237.73719,
1881.952,249.92988,
1879.041,241.75817,
1876.131,250.40506,
1873.220,221.12266,
1870.310,255.36148,
1867.399,273.1351,
1864.489,194.90633,
1861.578,254.66642,
1858.667,224.56065,
1855.757,208.35352,
1852.846,228.3545,
1849.936,212.14277,
1847.025,208.72536,
1844.114,227.61738,
1841.204,247.39598,
1838.293,241.40327,
1835.383,221.6425,
1832.472,231.23587,
1829.562,250.87344,
1826.651,258.74255,
1823.740,248.45544,
1820.830,226.62681,
1817.919,238.47691,
1815.009,240.66253,
1812.098,244.86319,
1809.188,271.6385,
1806.277,242.08322,
1803.366,254.009,
1800.456,233.74893,
1797.545,258.20475,
1794.635,267.27801,
1791.724,277.00602,
1788.813,292.5714,
1785.903,273.40219,
1782.992,233.96214,
1780.082,203.70151,
1777.171,186.35785,
1774.261,146.10048,
1771.350,194.89425,
1768.439,232.76167,
1765.529,281.5593,
1762.618,300.27376,
1759.708,263.0159,
1756.797,267.4053,
1753.887,284.6301,
1750.976,279.39921,
1748.065,279.61617,
1745.155,291.34263,
1742.244,279.84877,
1739.334,245.4103,
1736.423,274.64784,
1733.512,278.2774,
1730.602,285.34327,
1727.691,310.8695,
1724.781,337.03941,
1721.870,294.089,
1718.960,289.77509,
1716.049,297.24782,
1713.138,314.61992,
1710.228,306.93144,
1707.317,316.87443,
1704.407,335.44455,
1701.496,326.43643,
1698.586,303.19937,
1695.675,322.8963,
1692.764,296.92007,
1689.854,290.59153,
1686.943,315.49813,
1684.033,296.87172,
1681.122,364.20252,
1678.211,327.73666,
1675.301,390.18075,
1672.390,348.25836,
1669.480,309.82423,
1666.569,365.92092,
1663.659,408.21168,
1660.748,397.98936,
1657.837,378.28752,
1654.927,374.70301,
1652.016,388.3507,
1649.106,388.08495,
1646.195,416.35102,
1643.285,416.49154,
1640.374,464.33319,
1637.463,462.23088,
1634.553,454.907,
1631.642,490.65731,
1628.732,516.7009,
1625.821,571.36519,
1622.911,556.45953,
1620.000,632.4049,
1617.089,668.65858,
1614.179,725.73934,
1611.268,734.11475,
1608.358,818.25457,
1605.447,859.14673,
1602.536,866.96632,
1599.626,868.29493,
1596.715,886.52702,
1593.805,834.71509,
1590.894,826.61366,
1587.984,859.2865,
1585.073,792.90639,
1582.162,806.25647,
1579.252,768.82334,
1576.341,756.97181,
1573.431,736.01247,
1570.520,724.25998,
1567.610,722.375,
1564.699,698.44902,
1561.788,684.44547,
1558.878,704.90618,
1555.967,659.87916,
1553.057,655.61613,
1550.146,638.6478,
1547.235,602.25553,
1544.325,605.07883,
1541.414,599.63323,
1538.504,609.52372,
1535.593,623.12363,
1532.683,596.83681,
1529.772,582.54992,
1526.861,577.30514,
1523.951,569.06573,
1521.040,594.96698,
1518.130,627.708,
1515.219,642.0163,
1512.309,584.24433,
1509.398,554.25697,
1506.487,590.19391,
1503.577,590.99148,
1500.666,598.69613,
1497.756,587.3583,
1494.845,609.41393,
1491.934,562.25216,
1489.024,524.71494,
1486.113,583.64401,
1483.203,543.96662,
1480.292,560.4363,
1477.382,565.9915,
1474.471,504.98468,
1471.560,502.33965,
1468.650,494.02625,
1465.739,505.30872,
1462.829,526.11771,
1459.918,548.84475,
1457.008,565.43659,
1454.097,556.89673,
1451.186,552.35566,
1448.276,531.32292,
1445.365,466.55273,
1442.455,447.08213,
1439.544,427.08619,
1436.633,446.52098,
1433.723,463.61821,
1430.812,477.01076,
1427.902,448.34464,
1424.991,489.09842,
1422.081,437.16133,
1419.170,454.84057,
1416.259,447.03412,
1413.349,438.33307,
1410.438,421.67963,
1407.528,433.39977,
1404.617,432.80669,
1401.707,386.68934,
1398.796,349.07081,
1395.885,344.96161,
1392.975,355.35462,
1390.064,380.96688,
1387.154,393.44036,
1384.243,386.40875,
1381.332,366.15768,
1378.422,357.53432,
1375.511,380.01706,
1372.601,382.21814,
1369.690,404.66278,
1366.780,406.79093,
1363.869,439.06647,
1360.958,411.10181,
1358.048,424.78708,
1355.137,476.76194,
1352.227,500.54492,
1349.316,502.65212,
1346.406,525.65991,
1343.495,538.94985,
1340.584,490.4453,
1337.674,560.62297,
1334.763,530.68055,
1331.853,564.9881,
1328.942,569.04339,
1326.032,588.9499,
1323.121,608.19429,
1320.210,648.00288,
1317.300,651.79966,
1314.389,660.87536,
1311.479,691.04481,
1308.568,703.06471,
1305.657,695.375,
1302.747,713.16774,
1299.836,787.18339,
1296.926,813.26405,
1294.015,789.36163,
1291.105,793.65825,
1288.194,864.66439,
1285.283,882.375,
1282.373,846.93763,
1279.462,854.92347,
1276.552,897.88689,
1273.641,907.08878,
1270.731,892.13769,
1267.820,910.03691,
1264.909,916.375,
1261.999,914.57746,
1259.088,865.32292,
1256.178,870.08311,
1253.267,836.8512,
1250.356,841.27459,
1247.446,838.40064,
1244.535,822.45538,
1241.625,810.95278,
1238.714,797.72278,
1235.804,776.59345,
1232.893,780.8696,
1229.982,805.86562,
1227.072,820.35062,
1224.161,787.75485,
1221.251,784.35304,
1218.340,759.46252,
1215.430,748.67821,
1212.519,750.92224,
1209.608,742.93311,
1206.698,726.82175,
1203.787,720.77701,
1200.877,729.82374,
1197.966,753.20188,
1195.055,748.40226,
1192.145,796.96366,
1189.234,836.73152,
1186.324,852.10253,
1183.413,857.46637,
1180.503,882.28484,
1177.592,907.11202,
1174.681,853.50171,
1171.771,854.70469,
1168.860,868.99412,
1165.950,838.12342,
1163.039,822.69257,
1160.129,818.78514,
1157.218,834.23929,
1154.307,861.39268,
1151.397,878.11432,
1148.486,879.92256,
1145.576,893.21857,
1142.665,866.58119,
1139.754,870.88403,
1136.844,868.17318,
1133.933,871.65356,
1131.023,836.19104,
1128.112,803.08773,
1125.202,828.17208,
1122.291,849.63377,
1119.380,872.27106,
1116.470,861.68072,
1113.559,832.53803,
1110.649,832.23315,
1107.738,843.87645,
1104.828,842.05301,
1101.917,824.45759,
1099.006,817.56038,
1096.096,848.57982,
1093.185,802.92369,
1090.275,842.26632,
1087.364,841.39703,
1084.453,840.87471,
1081.543,831.22837,
1078.632,821.89647,
1075.722,845.5213,
1072.811,876.12679,
1069.901,872.63375,
1066.990,826.30011,
1064.079,845.31761,
1061.169,863.79341,
1058.258,864.4106,
1055.348,862.43271,
1052.437,861.7994,
1049.527,834.31486,
1046.616,858.64208,
1043.705,859.0627,
1040.795,842.41239,
1037.884,852.08729,
1034.974,866.27835,
1032.063,861.52108,
1029.153,871.80246,
1026.242,900.34602,
1023.331,868.87708,
1020.421,904.20109,
1017.510,927.41748,
1014.600,931.375,
1011.689,937.64655,
1008.778,950.29617,
1005.868,931.97345,
1002.957,887.23503,
1000.047,938.61502,
997.136,977.40745,
994.226,983.57509,
991.315,971.19926,
988.404,951.10635,
985.494,908.81614,
982.583,928.51693,
979.673,918.93701,
976.762,907.32977,
973.852,896.18686,
970.941,885.41119,
968.030,880.77966,
965.120,894.45018,
962.209,912.35356,
959.299,928.12349,
956.388,944.01432,
953.477,942.92137,
950.567,938.2634,
947.656,964.15487,
944.746,970.10177,
941.835,947.70023,
938.925,971.98726,
936.014,963.60117,
933.103,935.78477,
930.193,924.17889,
927.282,911.64997,
924.372,916.72361,
921.461,920.3206,
918.551,916.72753,
915.640,910.40039,
912.729,914.42569,
909.819,935.48536,
906.908,928.74596,
903.998,918.83063,
901.087,923.37657,
898.176,916.87671,
895.266,910.13598,
892.355,921.1603,
889.445,925.35663,
886.534,943.74218,
883.624,931.22703,
880.713,924.90607,
877.802,927.76457,
874.892,920.99882,
871.981,875.62668,
869.071,716.89823,
866.160,730.08262,
863.250,807.08571,
860.339,867.89246,
857.428,891.70568,
854.518,934.36399,
851.607,899.41707,
848.697,838.34963,
845.786,808.18534,
842.875,820.15333,
839.965,866.64242,
837.054,936.50525,
834.144,948.10778,
831.233,968.3737,
828.323,977.375,
825.412,973.83341,
822.501,965.6303,
819.591,961.4983,
816.680,942.94548,
813.770,952.15806,
810.859,926.08071,
807.949,899.80922,
805.038,937.68694,
802.127,915.4625,
799.217,918.59274,
796.306,906.75328,
793.396,902.99339,
790.485,906.21527,
787.574,881.14984,
784.664,927.89624,
781.753,931.00713,
778.843,921.02377,
775.932,921.09092,
773.022,935.33186,
770.111,915.70998,
767.200,934.93044,
764.290,942.53076,
761.379,950.85848,
758.469,951.70239,
755.558,912.27458,
752.648,942.41491,
749.737,948.375,
746.826,943.24657,
743.916,938.4919,
741.005,943.48421,
738.095,962.15738,
735.184,945.06839,
732.274,891.62193,
729.363,861.47061,
726.452,880.88998,
723.542,867.13029,
720.631,900.01472,
717.721,912.66638,
714.810,934.93168,
711.899,961.97894,
708.989,934.54349,
706.078,979.24796,
703.168,956.37063,
700.257,950.46531,
697.347,968.37553,
694.436,949.96038,
691.525,934.68808,
688.615,934.51956,
685.704,929.4679,
682.794,934.65144,
679.883,980.43787,
676.973,959.60223,
674.062,963.67007,
671.151,965.74502,
668.241,962.13675,
665.330,959.44638,
662.420,918.71106,
659.509,945.93114,
656.598,955.1235,
653.688,940.83509,
650.777,942.10498,
647.867,934.1417,
644.956,939.8048,
642.046,920.7429,
639.135,886.74617,
636.224,884.375,
633.314,884.375,
630.403,916.89158,
627.493,937.07055,
624.582,931.25614,
621.672,921.75221,
618.761,949.49275,
615.850,998.04612,
612.940,1021.8366,
610.029,1005.5065,
607.119,1006.2962,
604.208,1013.4751,
601.297,1026.8439,
598.387,1022.1835,
595.476,987.27189,
592.566,1017.9675,
589.655,1000.6988,
586.745,1007.4696,
583.834,1036.7667,
580.923,1052.2755,
578.013,1035.7961,
575.102,998.68047,
572.192,991.88194,
569.281,1025.3434,
566.371,1036.3001,
563.460,1000.6907,
560.549,998.04424,
557.639,1028.8316,
554.728,1074.1085,
551.818,1038.214,
548.907,1018.7961,
545.996,1031.2033,
543.086,1057.5099,
540.175,1034.9292,
537.265,1042.0664,
534.354,1037.8496,
531.444,1016.7208,
528.533,986.39658,
525.622,1057.0078,
522.712,1059.6332,
519.801,1028.0803,
516.891,990.06199,
513.980,988.5134,
511.070,1020.0706,
508.159,1027.6442,
505.248,1018.1203,
502.338,1008.6461,
499.427,1017.9081,
496.517,1034.5164,
493.606,1034.9438,
490.695,1019.9382,
487.785,1059.9673,
484.874,1068.9599,
481.964,1050.4416,
479.053,1018.6978,
476.143,1003.3386,
473.232,1022.5183,
470.321,1026.4824,
467.411,1022.375,
464.500,1022.4332,
461.590,1024.7304,
458.679,1027.0259,
455.769,1017.9779,
452.858,1001.8969,
449.947,1064.5392,
447.037,1051.2843,
444.126,1033.2659,
441.216,1033.7562,
438.305,1047.471,
435.395,1055.9314,
432.484,1055.2075,
429.573,1041.9199,
426.663,1009.994,
423.752,917.40794,
420.842,822.20262,
417.931,735.3364,
415.020,664.8091,
412.110,772.84858,
409.199,926.82231,
406.289,1037.0117,
403.378,1011.3186,
400.468,994.68677,
397.557,1005.3136,
394.646,1020.9137,
391.736,1023.9686,
388.825,1073.7478,
385.915,1074.0058,
383.004,1064.516,
380.094,1071.9911,
377.183,1064.4663,
374.272,1076.4873,
371.362,1089.8466,
368.451,1092.144,
365.541,1071.8796,
362.630,1082.7622,
359.719,1097.8548,
356.809,1100.1063,
353.898,1079.14,
350.988,1077.7149,
348.077,1084.5695,
345.167,1092.0723,
342.256,1086.0957,
339.345,1077.4664,
336.435,1081.3683,
333.524,1107.5394,
330.614,1112.7555,
327.703,1135.4246,
324.793,1147.8991,
321.882,1126.4093,
318.971,1140.5347,
316.061,1138.0503,
313.150,1141.2297,
310.240,1176.1092,
307.329,1250.9826,
304.418,1264.4166,
301.508,1249.9042,
298.597,1266.9338,
295.687,1283.9515,
292.776,1287.2083,
289.866,1298.501,
286.955,1379.7608,
284.044,1410.9825,
281.134,1477.5479,
278.223,1572.1295,
275.313,1577.2875,
272.402,1565.5951,
269.492,1573.1682,
266.581,1605.749,
263.670,1555.0216,
260.760,1588.9566,
257.849,1650.0558,
254.939,1697.7581,
252.028,1688.2412,
249.117,1652.3971,
246.207,1623.6561,
243.296,1659.5259,
240.386,1649.0092,
237.475,1648.6746,
234.565,1653.0128,
231.654,1606.2683,
228.743,1586.0184,
225.833,1561.6057,
222.922,1521.3706,
220.012,1478.3858,
217.101,1483.5129,
214.191,1485.0159,
211.280,1423.9091,
208.369,1418.7022,
205.459,1402.8042,
202.548,1383.5115,
199.638,1407.4579,
196.727,1363.9729,
193.816,1339.2118,
190.906,1362.2164,
187.995,1300.6744,
185.085,1273.2279,
182.174,1278.3239,
179.264,1322.4126,
176.353,1269.0641,
173.442,1264.292,
170.532,1305.7304,
167.621,1240.1216,
164.711,1189.7898,
161.800,1129.4087,
158.890,1038.723,
155.979,1011.0948,
153.068,923.68972,
150.158,792.41933,
147.247,686.88034,
144.337,588.09369,
141.426,475.60238,
138.516,337.95926,
135.605,246.46631,
132.694,175.8936,
129.784,121.59471,
126.873,76.541527,
123.963,52.579177,
121.052,35.142637,
118.141,19.436793,
115.231,19.375,
112.320,14.715005,
109.410,9.1931315,
106.499,13.466063,
103.589,13.254491,
100.678,10.473648,
97.767,5.497085,
94.857,5.375,
91.946,7.3905544,
89.036,9.5847146,
86.125,4.6202777,
83.215,6.0296018,
80.304,5.0229424,
77.393,-4.8914367,
74.483,-0.38392034,
71.572,2.0126479,
68.662,1.3057325,
65.751,0.59928142,
62.840,3.2652119,
59.930,5.0639966,
57.019,0.12842272,
54.109,-2.4164825,
51.198,-2.1169536,
48.288,1.3636751,
45.377,-0.043081017,
42.466,0.61165802,
39.556,1.9145257,
36.645,-0.89423517,
33.735,1.4904908,
30.824,1.9452433,
27.914,-5.7676844,
25.003,-6.0023625,
22.092,-5.625,
19.182,-5.7394143,
16.271,-9.236865,
13.361,-21.582907,
10.450,-85.782611,
7.539,-371.3936,
4.629,-877.27268,
1.718,-1328.6648,
-1.192,-1482.0366,
-4.103,-1076.864,
-7.013,-558.19101,
-9.924,1.375,
