,PLF08B~1,
Raman shift [1/cm],Intensity,
3014.167,1.5,
3011.256,2.9499893,
3008.346,243.54176,
3005.435,301.92049,
3002.525,307.72763,
2999.614,283.49094,
2996.704,312.44742,
2993.793,319.62385,
2990.882,331.23277,
2987.972,324.61099,
2985.061,348.71675,
2982.151,368.23279,
2979.240,391.85268,
2976.329,383.51092,
2973.419,424.91566,
2970.508,415.34999,
2967.598,424.16546,
2964.687,417.97758,
2961.777,417.59401,
2958.866,436.49406,
2955.955,430.08188,
2953.045,453.00338,
2950.134,481.74491,
2947.224,484.29713,
2944.313,520.93804,
2941.403,515.98768,
2938.492,538.5,
2935.581,536.38712,
2932.671,536.70173,
2929.760,559.93464,
2926.850,550.70188,
2923.939,552.29906,
2921.028,560.89417,
2918.118,579.5,
2915.207,588.32922,
2912.297,590.51693,
2909.386,576.09854,
2906.476,558.57025,
2903.565,577.79186,
2900.654,566.56975,
2897.744,559.24856,
2894.833,539.08764,
2891.923,545.7981,
2889.012,553.12428,
2886.102,545.83515,
2883.191,558.48206,
2880.280,540.13635,
2877.370,507.06976,
2874.459,469.72033,
2871.549,528.39504,
2868.638,556.09175,
2865.727,556.66151,
2862.817,569.22861,
2859.906,550.00711,
2856.996,575.97056,
2854.085,571.93696,
2851.175,570.87954,
2848.264,578.26983,
2845.353,569.4353,
2842.443,560.51044,
2839.532,563.14172,
2836.622,553.77539,
2833.711,562.29277,
2830.801,541.41397,
2827.890,549.5,
2824.979,561.69792,
2822.069,562.68195,
2819.158,573.93935,
2816.248,574.71816,
2813.337,562.14998,
2810.427,595.63223,
2807.516,584.92453,
2804.605,587.09135,
2801.695,582.10526,
2798.784,585.98254,
2795.874,587.05935,
2792.963,590.78553,
2790.052,568.50386,
2787.142,587.01312,
2784.231,583.91925,
2781.321,560.82583,
2778.410,597.1599,
2775.500,574.99242,
2772.589,591.49848,
2769.678,581.49652,
2766.768,602.18156,
2763.857,591.02794,
2760.947,609.53152,
2758.036,613.65286,
2755.126,621.26709,
2752.215,611.22277,
2749.304,612.7554,
2746.394,624.52213,
2743.483,640.6,
2740.573,629.96676,
2737.662,618.62721,
2734.751,617.77687,
2731.841,620.98718,
2728.930,638.02972,
2726.020,622.27025,
2723.109,636.89141,
2720.199,624.59677,
2717.288,640.58759,
2714.377,646.72492,
2711.467,639.86044,
2708.556,654.71263,
2705.646,656.96478,
2702.735,652.5,
2699.825,658.85821,
2696.914,671.97637,
2694.003,664.37155,
2691.093,663.5,
2688.182,659.68148,
2685.272,663.29658,
2682.361,671.31769,
2679.450,657.46712,
2676.540,651.96745,
2673.629,675.49551,
2670.719,673.64602,
2667.808,674.35409,
2664.898,664.05836,
2661.987,676.43349,
2659.076,682.5,
2656.166,707.5,
2653.255,701.24319,
2650.345,699.9882,
2647.434,697.01443,
2644.524,710.22186,
2641.613,719.07134,
2638.702,731.27907,
2635.792,717.78116,
2632.881,714.4584,
2629.971,705.39258,
2627.060,719.66719,
2624.149,719.17499,
2621.239,728.00889,
2618.328,736.58477,
2615.418,735.51363,
2612.507,733.84386,
2609.597,759.20459,
2606.686,733.56428,
2603.775,752.57936,
2600.865,757.38057,
2597.954,760.64374,
2595.044,762.17848,
2592.133,750.9394,
2589.223,772.24739,
2586.312,771.86682,
2583.401,781.64235,
2580.491,781.8702,
2577.580,775.45874,
2574.670,759.35559,
2571.759,784.70205,
2568.848,805.4338,
2565.938,774.97616,
2563.027,781.69544,
2560.117,783.59345,
2557.206,809.62177,
2554.296,795.754,
2551.385,803.08621,
2548.474,807.68475,
2545.564,810.12013,
2542.653,798.36241,
2539.743,816.96919,
2536.832,820.25514,
2533.922,816.61038,
2531.011,832.29926,
2528.100,857.09931,
2525.190,826.87705,
2522.279,851.4531,
2519.369,849.59439,
2516.458,838.04887,
2513.548,830.5,
2510.637,842.25407,
2507.726,845.68217,
2504.816,858.12458,
2501.905,835.21036,
2498.995,867.06675,
2496.084,837.75432,
2493.173,849.57981,
2490.263,853.94969,
2487.352,865.71027,
2484.442,892.93041,
2481.531,877.80865,
2478.621,877.01663,
2475.710,889.49233,
2472.799,885.54039,
2469.889,875.0457,
2466.978,900.20078,
2464.068,885.60044,
2461.157,901.96491,
2458.247,905.41164,
2455.336,906.9873,
2452.425,907.47641,
2449.515,910.86799,
2446.604,921.25571,
2443.694,941.89558,
2440.783,933.54504,
2437.872,929.46354,
2434.962,930.07603,
2432.051,939.37663,
2429.141,930.97664,
2426.230,961.02274,
2423.320,929.68505,
2420.409,950.69244,
2417.498,953.26125,
2414.588,946.96775,
2411.677,955.24899,
2408.767,947.23524,
2405.856,949.12854,
2402.946,964.39902,
2400.035,974.79343,
2397.124,969.98126,
2394.214,994.9048,
2391.303,990.03591,
2388.393,994.97908,
2385.482,985.02874,
2382.571,981.84187,
2379.661,983.33712,
2376.750,1010.0221,
2373.840,1014.0875,
2370.929,1022.3809,
2368.019,1039.3689,
2365.108,1012.267,
2362.197,1022.4726,
2359.287,1039.2733,
2356.376,1048.4894,
2353.466,1042.7278,
2350.555,1041.8202,
2347.645,1056.2364,
2344.734,1040.5875,
2341.823,1037.4668,
2338.913,1066.1642,
2336.002,1069.9714,
2333.092,1055.5,
2330.181,1078.1342,
2327.270,1104.3999,
2324.360,1049.4315,
2321.449,1105.9932,
2318.539,1107.2859,
2315.628,1112.1463,
2312.718,1113.2004,
2309.807,1104.7486,
2306.896,1095.2559,
2303.986,1095.7597,
2301.075,1111.3936,
2298.165,1109.7305,
2295.254,1106.5,
2292.344,1108.7074,
2289.433,1135.9518,
2286.522,1145.9645,
2283.612,1140.9911,
2280.701,1130.1906,
2277.791,1187.6184,
2274.880,1165.43,
2271.969,1162.2737,
2269.059,1165.1758,
2266.148,1192.0342,
2263.238,1185.307,
2260.327,1199.4313,
2257.417,1227.3978,
2254.506,1216.913,
2251.595,1197.6382,
2248.685,1202.9731,
2245.774,1218.8184,
2242.864,1219.7967,
2239.953,1240.0931,
2237.043,1240.045,
2234.132,1222.6897,
2231.221,1221.8954,
2228.311,1264.5128,
2225.400,1242.7665,
2222.490,1291.3275,
2219.579,1303.9524,
2216.669,1284.0167,
2213.758,1295.5026,
2210.847,1330.0995,
2207.937,1342.2557,
2205.026,1335.5,
2202.116,1346.7749,
2199.205,1372.7254,
2196.294,1366.186,
2193.384,1402.3146,
2190.473,1398.4824,
2187.563,1471.3502,
2184.652,1449.2355,
2181.742,1499.091,
2178.831,1515.8892,
2175.920,1549.4891,
2173.010,1602.2783,
2170.099,1647.0967,
2167.189,1738.7942,
2164.278,1788.0106,
2161.368,1858.0689,
2158.457,1936.1885,
2155.546,2027.4366,
2152.636,2115.0956,
2149.725,2164.4597,
2146.815,2253.6303,
2143.904,2259.8197,
2140.993,2316.8121,
2138.083,2338.3815,
2135.172,2331.9202,
2132.262,2362.7799,
2129.351,2356.6206,
2126.441,2301.9076,
2123.530,2226.95,
2120.619,2165.7024,
2117.709,2054.3849,
2114.798,1935.2573,
2111.888,1847.0891,
2108.977,1772.7185,
2106.067,1691.3465,
2103.156,1635.5469,
2100.245,1621.4749,
2097.335,1577.6466,
2094.424,1551.6541,
2091.514,1551.7069,
2088.603,1506.749,
2085.692,1487.0501,
2082.782,1482.9499,
2079.871,1465.8209,
2076.961,1476.5959,
2074.050,1469.6939,
2071.140,1472.0518,
2068.229,1462.5951,
2065.318,1454.438,
2062.408,1459.3487,
2059.497,1458.0774,
2056.587,1448.3721,
2053.676,1458.9326,
2050.766,1442.1166,
2047.855,1420.5,
2044.944,1417.7067,
2042.034,1406.6099,
2039.123,1427.4596,
2036.213,1415.9822,
2033.302,1430.9561,
2030.391,1449.5678,
2027.481,1467.8413,
2024.570,1480.3998,
2021.660,1457.9782,
2018.749,1451.2721,
2015.839,1446.7106,
2012.928,1457.2584,
2010.017,1467.7986,
2007.107,1464.6383,
2004.196,1463.6667,
2001.286,1468.6873,
1998.375,1461.9331,
1995.465,1453.9938,
1992.554,1412.1827,
1989.643,1439.3248,
1986.733,1462.8579,
1983.822,1458.8353,
1980.912,1485.2807,
1978.001,1428.2032,
1975.090,1433.3198,
1972.180,1442.3949,
1969.269,1455.9712,
1966.359,1457.0406,
1963.448,1442.6981,
1960.538,1419.4583,
1957.627,1427.983,
1954.716,1428.5287,
1951.806,1397.5929,
1948.895,1414.9292,
1945.985,1401.5294,
1943.074,1429.0759,
1940.164,1394.4809,
1937.253,1409.526,
1934.342,1432.1241,
1931.432,1428.0268,
1928.521,1400.2133,
1925.611,1376.643,
1922.700,1368.9171,
1919.790,1396.9216,
1916.879,1378.2437,
1913.968,1369.5086,
1911.058,1424.9625,
1908.147,1422.5992,
1905.237,1375.8163,
1902.326,1413.3252,
1899.415,1398.0451,
1896.505,1394.7046,
1893.594,1380.0366,
1890.684,1415.0554,
1887.773,1403.7766,
1884.863,1400.721,
1881.952,1409.105,
1879.041,1400.1786,
1876.131,1421.9314,
1873.220,1410.0663,
1870.310,1393.5763,
1867.399,1401.3561,
1864.489,1385.0327,
1861.578,1379.0106,
1858.667,1429.4192,
1855.757,1416.2828,
1852.846,1430.2231,
1849.936,1429.3128,
1847.025,1444.8017,
1844.114,1424.5824,
1841.204,1454.0699,
1838.293,1467.9942,
1835.383,1452.919,
1832.472,1454.6983,
1829.562,1442.2255,
1826.651,1460.6375,
1823.740,1511.8985,
1820.830,1486.917,
1817.919,1470.6137,
1815.009,1507.1743,
1812.098,1490.1614,
1809.188,1527.8332,
1806.277,1512.8984,
1803.366,1523.0675,
1800.456,1496.4558,
1797.545,1484.5848,
1794.635,1537.6629,
1791.724,1494.966,
1788.813,1525.3165,
1785.903,1565.2443,
1782.992,1532.7921,
1780.082,1537.2697,
1777.171,1531.8394,
1774.261,1546.1048,
1771.350,1542.1853,
1768.439,1584.4611,
1765.529,1621.7732,
1762.618,1598.8943,
1759.708,1585.2936,
1756.797,1594.197,
1753.887,1606.2959,
1750.976,1630.8828,
1748.065,1612.4647,
1745.155,1618.4934,
1742.244,1618.9194,
1739.334,1631.6718,
1736.423,1662.4028,
1733.512,1670.0447,
1730.602,1684.4603,
1727.691,1698.7119,
1724.781,1719.5913,
1721.870,1751.0573,
1718.960,1764.0779,
1716.049,1794.0251,
1713.138,1764.4452,
1710.228,1745.4455,
1707.317,1754.9994,
1704.407,1776.2647,
1701.496,1805.8464,
1698.586,1827.9037,
1695.675,1826.6929,
1692.764,1876.6763,
1689.854,1859.4094,
1686.943,1864.2976,
1684.033,1879.1275,
1681.122,1942.4125,
1678.211,1987.0812,
1675.301,2017.4075,
1672.390,2041.6406,
1669.480,2088.9974,
1666.569,2151.084,
1663.659,2197.6433,
1660.748,2266.5,
1657.837,2267.8559,
1654.927,2329.1794,
1652.016,2359.1766,
1649.106,2427.1855,
1646.195,2455.2433,
1643.285,2487.0267,
1640.374,2553.8171,
1637.463,2616.6709,
1634.553,2681.5936,
1631.642,2756.9322,
1628.732,2979.2822,
1625.821,3110.5805,
1622.911,3232.8069,
1620.000,3452.7031,
1617.089,3630.9378,
1614.179,3842.465,
1611.268,4079.5773,
1608.358,4169.52,
1605.447,4335.6727,
1602.536,4475.0323,
1599.626,4444.023,
1596.715,4484.0649,
1593.805,4362.3992,
1590.894,4276.1657,
1587.984,4233.5885,
1585.073,4148.5232,
1582.162,4046.837,
1579.252,3993.4948,
1576.341,3995.9138,
1573.431,3995.3673,
1570.520,3948.6374,
1567.610,3899.4799,
1564.699,3857.7738,
1561.788,3799.3174,
1558.878,3763.7964,
1555.967,3702.3255,
1553.057,3676.4138,
1550.146,3604.9838,
1547.235,3526.4417,
1544.325,3466.1749,
1541.414,3442.9006,
1538.504,3380.7057,
1535.593,3293.1543,
1532.683,3281.7412,
1529.772,3250.2008,
1526.861,3202.1908,
1523.951,3191.9551,
1521.040,3147.49,
1518.130,3150.5584,
1515.219,3096.7007,
1512.309,3087.3559,
1509.398,3115.7361,
1506.487,3047.6651,
1503.577,3064.8835,
1500.666,3059.7531,
1497.756,3086.4059,
1494.845,2999.4594,
1491.934,2974.6543,
1489.024,3021.8165,
1486.113,2982.7025,
1483.203,2946.6378,
1480.292,2954.3792,
1477.382,2880.5247,
1474.471,2871.7085,
1471.560,2873.7743,
1468.650,2840.0196,
1465.739,2812.3307,
1462.829,2807.2905,
1459.918,2769.8256,
1457.008,2755.2541,
1454.097,2740.5354,
1451.186,2731.5309,
1448.276,2777.6173,
1445.365,2792.4645,
1442.455,2769.6279,
1439.544,2725.0369,
1436.633,2792.3342,
1433.723,2752.5181,
1430.812,2709.6873,
1427.902,2698.3951,
1424.991,2651.9547,
1422.081,2604.6261,
1419.170,2595.3156,
1416.259,2630.9528,
1413.349,2641.0105,
1410.438,2580.6192,
1407.528,2539.0502,
1404.617,2537.5455,
1401.707,2502.7545,
1398.796,2499.5978,
1395.885,2537.1536,
1392.975,2499.1233,
1390.064,2406.9585,
1387.154,2330.7221,
1384.243,2210.1176,
1381.332,2137.0333,
1378.422,2190.8229,
1375.511,2371.6216,
1372.601,2614.1083,
1369.690,2684.2189,
1366.780,2759.031,
1363.869,2785.2177,
1360.958,2845.2786,
1358.048,2921.9649,
1355.137,2983.4126,
1352.227,3057.5395,
1349.316,3139.7739,
1346.406,3190.0373,
1343.495,3234.1743,
1340.584,3310.2135,
1337.674,3363.4664,
1334.763,3397.2763,
1331.853,3417.6754,
1328.942,3498.5518,
1326.032,3559.0685,
1323.121,3543.0843,
1320.210,3540.1592,
1317.300,3572.4214,
1314.389,3618.7088,
1311.479,3656.1698,
1308.568,3692.9739,
1305.657,3721.3522,
1302.747,3709.5986,
1299.836,3771.1759,
1296.926,3960.653,
1294.015,4093.0356,
1291.105,4271.0862,
1288.194,4379.9655,
1285.283,4424.4121,
1282.373,4475.2655,
1279.462,4536.8326,
1276.552,4591.193,
1273.641,4613.1855,
1270.731,4612.1448,
1267.820,4628.0071,
1264.909,4611.6092,
1261.999,4562.1325,
1259.088,4579.4628,
1256.178,4469.1607,
1253.267,4386.8228,
1250.356,4303.8381,
1247.446,4231.2556,
1244.535,4150.9555,
1241.625,4061.552,
1238.714,3981.8365,
1235.804,3912.0244,
1232.893,3845.1317,
1229.982,3810.851,
1227.072,3703.1189,
1224.161,3640.0268,
1221.251,3567.7057,
1218.340,3481.071,
1215.430,3447.1516,
1212.519,3438.5393,
1209.608,3413.0337,
1206.698,3401.5216,
1203.787,3434.8266,
1200.877,3414.1248,
1197.966,3488.7551,
1195.055,3563.3196,
1192.145,3651.3857,
1189.234,3758.8966,
1186.324,3838.4124,
1183.413,3899.297,
1180.503,3943.8843,
1177.592,3930.8935,
1174.681,3849.6165,
1171.771,3781.4176,
1168.860,3777.8452,
1165.950,3755.7302,
1163.039,3690.4374,
1160.129,3692.2232,
1157.218,3721.5955,
1154.307,3728.4187,
1151.397,3721.7607,
1148.486,3723.0994,
1145.576,3723.1849,
1142.665,3646.8244,
1139.754,3603.8867,
1136.844,3535.274,
1133.933,3499.5294,
1131.023,3504.7745,
1128.112,3504.5734,
1125.202,3468.6305,
1122.291,3435.7534,
1119.380,3444.9244,
1116.470,3488.1683,
1113.559,3481.128,
1110.649,3462.4386,
1107.738,3452.3567,
1104.828,3457.5737,
1101.917,3456.8487,
1099.006,3435.1803,
1096.096,3452.9838,
1093.185,3460.8858,
1090.275,3463.9278,
1087.364,3472.0474,
1084.453,3458.0636,
1081.543,3454.5791,
1078.632,3460.2919,
1075.722,3443.3716,
1072.811,3435.7697,
1069.901,3397.3462,
1066.990,3482.6081,
1064.079,3503.5,
1061.169,3537.1904,
1058.258,3554.7598,
1055.348,3543.8517,
1052.437,3560.9792,
1049.527,3620.9769,
1046.616,3659.2054,
1043.705,3642.6893,
1040.795,3635.223,
1037.884,3652.2008,
1034.974,3685.5142,
1032.063,3705.5849,
1029.153,3687.0313,
1026.242,3716.4398,
1023.331,3714.1669,
1020.421,3741.3841,
1017.510,3775.3508,
1014.600,3810.686,
1011.689,3839.491,
1008.778,3870.612,
1005.868,3994.5657,
1002.957,4113.2945,
1000.047,4251.6201,
997.136,4327.6283,
994.226,4345.0385,
991.315,4335.5421,
988.404,4312.0704,
985.494,4235.9272,
982.583,4165.6896,
979.673,4098.4316,
976.762,4076.9129,
973.852,4074.2899,
970.941,4070.3145,
968.030,4068.4017,
965.120,4073.5537,
962.209,4086.3418,
959.299,4101.9567,
956.388,4090.7011,
953.477,4114.0814,
950.567,4150.2917,
947.656,4106.1712,
944.746,4118.9145,
941.835,4121.9294,
938.925,4102.1004,
936.014,4098.5816,
933.103,4109.7371,
930.193,4100.1212,
927.282,4027.8878,
924.372,3979.6882,
921.461,3947.726,
918.551,3906.5487,
915.640,3869.4769,
912.729,3846.743,
909.819,3834.7207,
906.908,3821.2419,
903.998,3828.4536,
901.087,3865.5078,
898.176,3908.4054,
895.266,3925.565,
892.355,3920.5936,
889.445,3985.2172,
886.534,4020.5646,
883.624,4005.9694,
880.713,4048.577,
877.802,4087.3413,
874.892,4063.2131,
871.981,4056.0007,
869.071,3992.5093,
866.160,4001.5088,
863.250,4001.0643,
860.339,3984.9825,
857.428,3967.6738,
854.518,3952.1259,
851.607,3973.7597,
848.697,3949.9873,
845.786,3931.2724,
842.875,3930.7432,
839.965,3956.3063,
837.054,4028.3791,
834.144,4017.6053,
831.233,4000.1678,
828.323,4006.348,
825.412,4013.0949,
822.501,3992.1382,
819.591,3962.3878,
816.680,3911.0191,
813.770,3871.5604,
810.859,3826.6206,
807.949,3781.8536,
805.038,3756.5996,
802.127,3757.4227,
799.217,3790.2972,
796.306,3795.8243,
793.396,3784.103,
790.485,3777.9751,
787.574,3797.0988,
784.664,3760.1938,
781.753,3704.5182,
778.843,3730.9785,
775.932,3785.9691,
773.022,3797.2059,
770.111,3833.9969,
767.200,3825.0803,
764.290,3812.8318,
761.379,3777.7477,
758.469,3732.2444,
755.558,3727.111,
752.648,3714.0773,
749.737,3656.0129,
746.826,3577.0806,
743.916,3452.3691,
741.005,3224.1365,
738.095,2760.5548,
735.184,2336.5292,
732.274,2272.5918,
729.363,2571.7657,
726.452,3087.1502,
723.542,3489.4187,
720.631,3604.0092,
717.721,3668.0164,
714.810,3706.6817,
711.899,3724.4307,
708.989,3715.5545,
706.078,3723.513,
703.168,3737.0372,
700.257,3722.2211,
697.347,3695.7168,
694.436,3713.518,
691.525,3677.3468,
688.615,3711.6371,
685.704,3698.9427,
682.794,3654.4148,
679.883,3672.158,
676.973,3709.021,
674.062,3740.7471,
671.151,3752.7467,
668.241,3749.7853,
665.330,3747.6891,
662.420,3751.6827,
659.509,3744.8808,
656.598,3742.6637,
653.688,3746.4202,
650.777,3748.7169,
647.867,3725.6234,
644.956,3731.6447,
642.046,3716.5263,
639.135,3688.8537,
636.224,3701.7626,
633.314,3754.1625,
630.403,3758.0406,
627.493,3752.6522,
624.582,3765.4474,
621.672,3814.5511,
618.761,3833.9786,
615.850,3820.2154,
612.940,3833.5304,
610.029,3891.9989,
607.119,3907.0019,
604.208,3882.9395,
601.297,3893.9363,
598.387,3902.3149,
595.476,3870.7627,
592.566,3884.1429,
589.655,3879.3732,
586.745,3863.7828,
583.834,3827.8591,
580.923,3754.1588,
578.013,3697.658,
575.102,3735.2701,
572.192,3802.7255,
569.281,3853.3594,
566.371,3852.5768,
563.460,3903.9992,
560.549,3943.5293,
557.639,3952.8317,
554.728,3928.5694,
551.818,3961.3427,
548.907,4019.0813,
545.996,4051.1112,
543.086,4055.7006,
540.175,4079.8387,
537.265,4076.43,
534.354,4047.4087,
531.444,4029.1384,
528.533,4053.928,
525.622,4088.0697,
522.712,4095.5,
519.801,4105.4289,
516.891,4125.5691,
513.980,4145.7008,
511.070,4177.0826,
508.159,4226.2726,
505.248,4273.0094,
502.338,4294.7592,
499.427,4371.9424,
496.517,4412.8636,
493.606,4439.6042,
490.695,4458.6114,
487.785,4437.8271,
484.874,4446.7783,
481.964,4486.307,
479.053,4517.4236,
476.143,4454.4507,
473.232,4487.909,
470.321,4503.9597,
467.411,4493.0902,
464.500,4456.1703,
461.590,4443.1527,
458.679,4454.9082,
455.769,4486.4039,
452.858,4530.8405,
449.947,4562.9256,
447.037,4561.0054,
444.126,4539.2333,
441.216,4513.6166,
438.305,4525.8075,
435.395,4506.5196,
432.484,4510.5031,
429.573,4527.0624,
426.663,4508.0589,
423.752,4527.4226,
420.842,4484.4378,
417.931,4441.8922,
415.020,4510.1444,
412.110,4631.0213,
409.199,4715.5757,
406.289,4743.2493,
403.378,4696.3617,
400.468,4655.538,
397.557,4627.0755,
394.646,4588.5282,
391.736,4519.6127,
388.825,4398.1814,
385.915,4321.5211,
383.004,4316.3387,
380.094,4399.719,
377.183,4521.6202,
374.272,4659.1711,
371.362,4780.3476,
368.451,4863.3692,
365.541,4894.1412,
362.630,4895.3989,
359.719,4891.8677,
356.809,4897.0922,
353.898,4890.353,
350.988,4931.8989,
348.077,4961.2398,
345.167,4942.5918,
342.256,4924.6622,
339.345,4914.1857,
336.435,4911.1656,
333.524,4918.9058,
330.614,5026.9533,
327.703,5054.8525,
324.793,5045.1175,
321.882,5032.6767,
318.971,5105.5341,
316.061,5156.869,
313.150,5205.7476,
310.240,5274.0222,
307.329,5343.6759,
304.418,5354.9976,
301.508,5301.2507,
298.597,5168.7161,
295.687,5080.2946,
292.776,5126.8338,
289.866,5313.2493,
286.955,5644.1984,
284.044,5992.5697,
281.134,6300.4333,
278.223,6553.9841,
275.313,6741.8822,
272.402,6941.8293,
269.492,7120.5537,
266.581,7268.2188,
263.670,7432.164,
260.760,7555.2456,
257.849,7635.2783,
254.939,7666.1014,
252.028,7665.7762,
249.117,7686.0572,
246.207,7713.5306,
243.296,7725.2432,
240.386,7665.1188,
237.475,7607.5278,
234.565,7562.6686,
231.654,7531.9925,
228.743,7469.6893,
225.833,7387.0341,
222.922,7288.4911,
220.012,7202.5216,
217.101,7130.8263,
214.191,7047.0334,
211.280,6918.9999,
208.369,6899.4078,
205.459,6883.321,
202.548,6856.4721,
199.638,6798.4202,
196.727,6800.3292,
193.816,6792.4386,
190.906,6751.9729,
187.995,6793.9663,
185.085,6830.7242,
182.174,6844.7264,
179.264,6804.9743,
176.353,6785.1213,
173.442,6782.3009,
170.532,6787.6276,
167.621,6745.811,
164.711,6691.929,
161.800,6568.4655,
158.890,6319.4397,
155.979,5859.6984,
153.068,5340.7048,
150.158,4770.1552,
147.247,4133.3316,
144.337,3402.0753,
141.426,2667.0637,
138.516,1969.5286,
135.605,1392.3143,
132.694,952.37345,
129.784,632.5253,
126.873,422.27712,
123.963,287.31064,
121.052,197.95304,
118.141,148.69381,
115.231,125.76175,
112.320,104.21456,
109.410,83.136632,
106.499,60.347664,
103.589,56.620509,
100.678,54.24054,
97.767,45.709289,
94.857,37.87712,
91.946,34.903111,
89.036,34.709715,
86.125,29.745278,
83.215,24.252637,
80.304,22.654894,
77.393,29.028424,
74.483,31.465405,
71.572,30.325887,
68.662,26.084395,
65.751,21.845689,
62.840,20.5,
59.930,20.874572,
57.019,22.284736,
54.109,22.5,
51.198,19.785517,
48.288,13.516987,
45.377,15.627122,
42.466,16.5,
39.556,16.615119,
36.645,17.317309,
33.735,18.538497,
30.824,19.720887,
27.914,20.422062,
25.003,21.122637,
22.092,22.468714,
19.182,24.934774,
16.271,38.225087,
13.361,123.99847,
10.450,303.96968,
7.539,707.59596,
4.629,1095.4461,
1.718,1291.6509,
-1.192,1067.1704,
-4.103,614.3467,
-7.013,237.13239,
-9.924,0.5,
