,PL273A~1,
Raman shift [1/cm],Intensity,
3014.167,2.75,
3011.256,-1.4500429,
3008.346,402.61766,
3005.435,501.29064,
3002.525,513.33501,
2999.614,539.41365,
2996.704,558.37886,
2993.793,562.74078,
2990.882,570.87976,
2987.972,589.80045,
2985.061,601.5234,
2982.151,636.3349,
2979.240,646.36118,
2976.329,685.51775,
2973.419,691.47246,
2970.508,716.13334,
2967.598,718.98896,
2964.687,736.6447,
2961.777,761.62191,
2958.866,776.08729,
2955.955,803.38049,
2953.045,827.64932,
2950.134,855.49643,
2947.224,869.49019,
2944.313,907.78348,
2941.403,910.71396,
2938.492,925.32453,
2935.581,952.80884,
2932.671,941.43676,
2929.760,976.81923,
2926.850,982.48872,
2923.939,976.1051,
2921.028,1003.5383,
2918.118,1012.9112,
2915.207,1026.8703,
2912.297,1044.6865,
2909.386,1041.115,
2906.476,1050.1292,
2903.565,1060.3959,
2900.654,1056.3142,
2897.744,1049.6494,
2894.833,1053.2962,
2891.923,1038.9358,
2889.012,1029.9639,
2886.102,1007.5216,
2883.191,1032.7236,
2880.280,1006.7883,
2877.370,954.30248,
2874.459,972.68716,
2871.549,1016.2636,
2868.638,1043.7046,
2865.727,1063.073,
2862.817,1074.3636,
2859.906,1083.6873,
2856.996,1093.2749,
2854.085,1071.0252,
2851.175,1084.5843,
2848.264,1080.7597,
2845.353,1085.0167,
2842.443,1054.1458,
2839.532,1039.1232,
2836.622,1059.4466,
2833.711,1055.1205,
2830.801,1031.1676,
2827.890,1044.2273,
2824.979,1050.1579,
2822.069,1035.9547,
2819.158,1056.7904,
2816.248,1073.7037,
2813.337,1063.1829,
2810.427,1063.0516,
2807.516,1084.5844,
2804.605,1067.6418,
2801.695,1077.7369,
2798.784,1054.4462,
2795.874,1069.589,
2792.963,1077.7498,
2790.052,1052.7543,
2787.142,1063.9999,
2784.231,1054.5885,
2781.321,1054.0701,
2778.410,1071.2602,
2775.500,1048.6035,
2772.589,1075.5191,
2769.678,1083.4974,
2766.768,1078.517,
2763.857,1093.17,
2760.947,1080.2216,
2758.036,1101.1642,
2755.126,1097.6944,
2752.215,1114.4954,
2749.304,1110.75,
2746.394,1135.7642,
2743.483,1102.05,
2740.573,1094.8628,
2737.662,1127.1657,
2734.751,1127.8468,
2731.841,1108.9643,
2728.930,1130.1569,
2726.020,1133.3218,
2723.109,1123.5854,
2720.199,1156.6125,
2717.288,1153.2244,
2714.377,1158.1998,
2711.467,1172.095,
2708.556,1155.5155,
2705.646,1151.6232,
2702.735,1201.7345,
2699.825,1191.6409,
2696.914,1179.7495,
2694.003,1199.2817,
2691.093,1189.5899,
2688.182,1202.1678,
2685.272,1209.484,
2682.361,1181.2085,
2679.450,1211.322,
2676.540,1204.5468,
2673.629,1187.7814,
2670.719,1196.2315,
2667.808,1211.6041,
2664.898,1227.036,
2661.987,1243.0506,
2659.076,1248.5474,
2656.166,1246.3129,
2653.255,1245.483,
2650.345,1270.6701,
2647.434,1267.0072,
2644.524,1269.3639,
2641.613,1279.036,
2638.702,1302.4502,
2635.792,1289.5326,
2632.881,1275.8631,
2629.971,1277.24,
2627.060,1276.5841,
2624.149,1284.9906,
2621.239,1307.7619,
2618.328,1291.6228,
2615.418,1297.7091,
2612.507,1299.6157,
2609.597,1281.5763,
2606.686,1319.5813,
2603.775,1321.9524,
2600.865,1341.9821,
2597.954,1361.2229,
2595.044,1353.0627,
2592.133,1369.368,
2589.223,1354.4605,
2586.312,1382.5289,
2583.401,1388.8085,
2580.491,1403.2164,
2577.580,1368.7797,
2574.670,1389.2406,
2571.759,1391.3459,
2568.848,1378.6947,
2565.938,1410.0834,
2563.027,1403.75,
2560.117,1400.5724,
2557.206,1423.1596,
2554.296,1425.0338,
2551.385,1419.378,
2548.474,1450.8987,
2545.564,1428.8579,
2542.653,1449.1695,
2539.743,1484.7377,
2536.832,1455.5444,
2533.922,1480.4977,
2531.011,1470.5245,
2528.100,1495.3458,
2525.190,1487.9385,
2522.279,1507.1555,
2519.369,1484.1079,
2516.458,1498.5227,
2513.548,1473.3321,
2510.637,1482.1352,
2507.726,1475.2481,
2504.816,1495.3768,
2501.905,1507.5616,
2498.995,1511.4959,
2496.084,1494.8162,
2493.173,1528.2772,
2490.263,1535.3907,
2487.352,1542.3311,
2484.442,1522.281,
2481.531,1561.1223,
2478.621,1587.7122,
2475.710,1565.681,
2472.799,1564.8889,
2469.889,1583.9328,
2466.978,1569.8119,
2464.068,1573.4537,
2461.157,1613.0877,
2458.247,1595.0884,
2455.336,1599.3057,
2452.425,1583.4009,
2449.515,1605.1471,
2446.604,1641.6348,
2443.694,1626.1217,
2440.783,1642.0405,
2437.872,1637.6196,
2434.962,1620.3583,
2432.051,1668.9169,
2429.141,1687.7323,
2426.230,1659.8361,
2423.320,1693.3932,
2420.409,1689.0704,
2417.498,1708.1348,
2414.588,1717.4724,
2411.677,1706.7101,
2408.767,1691.9035,
2405.856,1724.6524,
2402.946,1740.3398,
2400.035,1734.5669,
2397.124,1713.5361,
2394.214,1733.6992,
2391.303,1755.7832,
2388.393,1745.2709,
2385.482,1754.2653,
2382.571,1756.7756,
2379.661,1762.7497,
2376.750,1806.5356,
2373.840,1810.9063,
2370.929,1825.5659,
2368.019,1811.2919,
2365.108,1807.8678,
2362.197,1808.2788,
2359.287,1841.1032,
2356.376,1833.7729,
2353.466,1859.9623,
2350.555,1856.75,
2347.645,1841.3566,
2344.734,1880.3953,
2341.823,1870.148,
2338.913,1871.5456,
2336.002,1892.2668,
2333.092,1918.4736,
2330.181,1938.4866,
2327.270,1914.1251,
2324.360,1924.5401,
2321.449,1924.5051,
2318.539,1934.6215,
2315.628,1922.473,
2312.718,1933.8822,
2309.807,1960.5698,
2306.896,1971.498,
2303.986,1984.2371,
2301.075,1993.1117,
2298.165,1973.3843,
2295.254,1920.8272,
2292.344,1984.8579,
2289.433,1986.1709,
2286.522,2018.5044,
2283.612,2029.8202,
2280.701,2030.75,
2277.791,2073.4676,
2274.880,2048.5279,
2271.969,2061.2397,
2269.059,2071.7691,
2266.148,2079.0772,
2263.238,2109.8349,
2260.327,2140.7841,
2257.417,2098.615,
2254.506,2094.5819,
2251.595,2110.739,
2248.685,2139.6365,
2245.774,2110.7067,
2242.864,2121.9918,
2239.953,2167.6121,
2237.043,2172.7118,
2234.132,2203.8201,
2231.221,2225.5666,
2228.311,2207.0039,
2225.400,2223.1722,
2222.490,2245.5482,
2219.579,2284.8786,
2216.669,2285.7929,
2213.758,2300.2324,
2210.847,2361.1127,
2207.937,2342.053,
2205.026,2345.5264,
2202.116,2401.0557,
2199.205,2448.1001,
2196.294,2467.6679,
2193.384,2532.3536,
2190.473,2556.8979,
2187.563,2608.011,
2184.652,2676.9618,
2181.742,2787.8668,
2178.831,2913.7036,
2175.920,3069.444,
2173.010,3246.1848,
2170.099,3415.9361,
2167.189,3677.0846,
2164.278,3892.2706,
2161.368,4147.7406,
2158.457,4411.3776,
2155.546,4674.6051,
2152.636,4917.1486,
2149.725,5134.5217,
2146.815,5300.2118,
2143.904,5373.4674,
2140.993,5423.898,
2138.083,5455.8564,
2135.172,5425.0859,
2132.262,5341.5643,
2129.351,5296.8706,
2126.441,5130.8369,
2123.530,4874.0787,
2120.619,4606.2743,
2117.709,4347.6393,
2114.798,4075.2679,
2111.888,3783.6921,
2108.977,3562.3195,
2106.067,3362.309,
2103.156,3142.1435,
2100.245,3030.7055,
2097.335,2947.106,
2094.424,2843.9793,
2091.514,2789.7283,
2088.603,2737.1372,
2085.692,2721.7054,
2082.782,2696.1839,
2079.871,2678.1782,
2076.961,2699.2001,
2074.050,2618.4409,
2071.140,2589.0491,
2068.229,2568.3893,
2065.318,2569.343,
2062.408,2557.0526,
2059.497,2551.7798,
2056.587,2527.704,
2053.676,2501.5007,
2050.766,2506.1342,
2047.855,2508.8354,
2044.944,2510.5529,
2042.034,2507.9639,
2039.123,2519.649,
2036.213,2500.0211,
2033.302,2481.7718,
2030.391,2498.6477,
2027.481,2521.9084,
2024.570,2531.6498,
2021.660,2528.0456,
2018.749,2552.4841,
2015.839,2539.2933,
2012.928,2497.75,
2010.017,2489.6338,
2007.107,2494.9407,
2004.196,2528.3095,
2001.286,2517.4567,
1998.375,2503.1831,
1995.465,2514.9089,
1992.554,2488.0738,
1989.643,2476.0265,
1986.733,2454.1982,
1983.822,2438.3172,
1980.912,2507.3836,
1978.001,2503.6906,
1975.090,2495.3897,
1972.180,2467.6822,
1969.269,2466.0719,
1966.359,2474.1013,
1963.448,2482.5162,
1960.538,2497.1111,
1957.627,2505.9915,
1954.716,2498.0085,
1951.806,2495.0048,
1948.895,2488.6568,
1945.985,2533.7631,
1943.074,2492.2999,
1940.164,2466.4998,
1937.253,2428.2287,
1934.342,2426.981,
1931.432,2473.955,
1928.521,2423.161,
1925.611,2433.1586,
1922.700,2435.7127,
1919.790,2415.386,
1916.879,2471.3558,
1913.968,2437.7967,
1911.058,2423.9782,
1908.147,2481.2259,
1905.237,2465.9412,
1902.326,2452.2908,
1899.415,2414.8561,
1896.505,2430.045,
1893.594,2427.3751,
1890.684,2445.6193,
1887.773,2467.7407,
1884.863,2471.4425,
1881.952,2481.5823,
1879.041,2467.8118,
1876.131,2467.265,
1873.220,2452.188,
1870.310,2424.6873,
1867.399,2428.654,
1864.489,2403.3592,
1861.578,2467.283,
1858.667,2463.7769,
1855.757,2480.9099,
1852.846,2519.468,
1849.936,2505.2845,
1847.025,2534.4483,
1844.114,2542.9993,
1841.204,2530.9108,
1838.293,2546.2774,
1835.383,2561.447,
1832.472,2568.7726,
1829.562,2553.1948,
1826.651,2585.9389,
1823.740,2596.6542,
1820.830,2554.6237,
1817.919,2590.7982,
1815.009,2620.5871,
1812.098,2602.2067,
1809.188,2641.9592,
1806.277,2588.0336,
1803.366,2634.8831,
1800.456,2643.7942,
1797.545,2657.8779,
1794.635,2629.8122,
1791.724,2700.0606,
1788.813,2698.9335,
1785.903,2660.8817,
1782.992,2698.3849,
1780.082,2680.4361,
1777.171,2690.0926,
1774.261,2722.1949,
1771.350,2735.5588,
1768.439,2762.3244,
1765.529,2781.7538,
1762.618,2791.2562,
1759.708,2766.0434,
1756.797,2782.0303,
1753.887,2830.8287,
1750.976,2808.1152,
1748.065,2806.0142,
1745.155,2848.0208,
1742.244,2853.8044,
1739.334,2834.6865,
1736.423,2865.1967,
1733.512,2888.7541,
1730.602,2921.6707,
1727.691,2963.2241,
1724.781,2968.8171,
1721.870,2991.893,
1718.960,2991.9944,
1716.049,3045.2834,
1713.138,3008.7252,
1710.228,3065.152,
1707.317,3080.0574,
1704.407,3066.3756,
1701.496,3105.7697,
1698.586,3170.733,
1695.675,3199.1427,
1692.764,3221.5779,
1689.854,3215.0965,
1686.943,3284.3218,
1684.033,3373.5396,
1681.122,3312.8375,
1678.211,3352.3598,
1675.301,3426.5218,
1672.390,3507.744,
1669.480,3507.0175,
1666.569,3664.8418,
1663.659,3750.5503,
1660.748,3799.4249,
1657.837,3836.6587,
1654.927,3966.1877,
1652.016,3946.1762,
1649.106,4085.733,
1646.195,4166.5962,
1643.285,4242.069,
1640.374,4259.4712,
1637.463,4435.2272,
1634.553,4517.5972,
1631.642,4643.9748,
1628.732,4938.704,
1625.821,5098.9253,
1622.911,5365.2398,
1620.000,5656.0586,
1617.089,5915.556,
1614.179,6239.5001,
1611.268,6597.2916,
1608.358,6910.0475,
1605.447,7114.2658,
1602.536,7289.7621,
1599.626,7292.5507,
1596.715,7319.8856,
1593.805,7243.1545,
1590.894,7284.8289,
1587.984,7222.4626,
1585.073,7199.8386,
1582.162,7110.9219,
1579.252,7110.9343,
1576.341,7001.8001,
1573.431,6990.9798,
1570.520,6975.8762,
1567.610,6985.3973,
1564.699,6889.2458,
1561.788,6873.9892,
1558.878,6773.8251,
1555.967,6675.8428,
1553.057,6556.0613,
1550.146,6391.7466,
1547.235,6285.5594,
1544.325,6207.1555,
1541.414,6158.1091,
1538.504,6106.563,
1535.593,6005.8334,
1532.683,5935.9403,
1529.772,5888.3693,
1526.861,5783.4356,
1523.951,5697.9046,
1521.040,5652.4098,
1518.130,5528.715,
1515.219,5401.9909,
1512.309,5365.3085,
1509.398,5338.8756,
1506.487,5306.3252,
1503.577,5265.1084,
1500.666,5212.6914,
1497.756,5146.0802,
1494.845,5112.0691,
1491.934,5071.4791,
1489.024,4988.7047,
1486.113,5020.057,
1483.203,4979.2298,
1480.292,4866.8376,
1477.382,4836.4345,
1474.471,4761.6164,
1471.560,4739.75,
1468.650,4693.2874,
1465.739,4664.7046,
1462.829,4667.9118,
1459.918,4605.8986,
1457.008,4645.6743,
1454.097,4687.2991,
1451.186,4630.1659,
1448.276,4646.2467,
1445.365,4687.5383,
1442.455,4713.8302,
1439.544,4703.6665,
1436.633,4705.3607,
1433.723,4659.5189,
1430.812,4608.0662,
1427.902,4511.8176,
1424.991,4514.6609,
1422.081,4479.8859,
1419.170,4432.6829,
1416.259,4440.3311,
1413.349,4465.652,
1410.438,4427.2643,
1407.528,4428.9935,
1404.617,4402.5867,
1401.707,4422.3848,
1398.796,4478.8549,
1395.885,4527.581,
1392.975,4563.8955,
1390.064,4556.285,
1387.154,4564.1323,
1384.243,4515.6797,
1381.332,4497.3538,
1378.422,4625.2619,
1375.511,4673.9745,
1372.601,4883.9465,
1369.690,4975.4711,
1366.780,5118.4358,
1363.869,5253.7303,
1360.958,5300.993,
1358.048,5392.9668,
1355.137,5521.6146,
1352.227,5583.75,
1349.316,5645.5738,
1346.406,5790.6468,
1343.495,5887.02,
1340.584,5886.1774,
1337.674,5975.7933,
1334.763,6096.2785,
1331.853,6189.0016,
1328.942,6203.4236,
1326.032,6323.8306,
1323.121,6426.3284,
1320.210,6504.6918,
1317.300,6582.1002,
1314.389,6688.1542,
1311.479,6801.9341,
1308.568,6894.718,
1305.657,6973.1028,
1302.747,7061.1114,
1299.836,7205.5265,
1296.926,7305.1249,
1294.015,7485.3123,
1291.105,7706.7217,
1288.194,7914.6684,
1285.283,8054.2624,
1282.373,8225.9058,
1279.462,8369.6311,
1276.552,8478.1046,
1273.641,8560.8691,
1270.731,8603.453,
1267.820,8633.6054,
1264.909,8648.1444,
1261.999,8561.9525,
1259.088,8512.6979,
1256.178,8365.0089,
1253.267,8229.5067,
1250.356,8026.4365,
1247.446,7776.7726,
1244.535,7546.2548,
1241.625,7317.2911,
1238.714,7087.9026,
1235.804,6915.1532,
1232.893,6758.881,
1229.982,6727.5491,
1227.072,6603.5213,
1224.161,6414.8822,
1221.251,6341.291,
1218.340,6281.1075,
1215.430,6179.7761,
1212.519,6071.1158,
1209.608,6014.75,
1206.698,6007.0902,
1203.787,5997.5239,
1200.877,6066.4157,
1197.966,6061.0207,
1195.055,6194.71,
1192.145,6355.9972,
1189.234,6438.7312,
1186.324,6546.5766,
1183.413,6660.3795,
1180.503,6693.2009,
1177.592,6646.9922,
1174.681,6600.3048,
1171.771,6499.4725,
1168.860,6444.1009,
1165.950,6363.7651,
1163.039,6264.7353,
1160.129,6202.0268,
1157.218,6144.2911,
1154.307,6088.28,
1151.397,6053.5835,
1148.486,6011.4128,
1145.576,5929.274,
1142.665,5780.1046,
1139.754,5802.736,
1136.844,5761.7288,
1133.933,5669.1962,
1131.023,5633.385,
1128.112,5637.966,
1125.202,5619.8901,
1122.291,5625.4885,
1119.380,5595.75,
1116.470,5595.75,
1113.559,5615.0812,
1110.649,5624.6791,
1107.738,5657.8274,
1104.828,5650.2137,
1101.917,5615.9518,
1099.006,5641.1626,
1096.096,5603.6527,
1093.185,5651.0648,
1090.275,5590.8177,
1087.364,5602.5088,
1084.453,5594.5013,
1081.543,5556.839,
1078.632,5526.5562,
1075.722,5524.0067,
1072.811,5536.2941,
1069.901,5572.0978,
1066.990,5607.8916,
1064.079,5656.5808,
1061.169,5748.1015,
1058.258,5831.7356,
1055.348,5863.1044,
1052.437,5877.2485,
1049.527,5983.3612,
1046.616,6025.065,
1043.705,6011.2516,
1040.795,6011.4965,
1037.884,6042.0598,
1034.974,6061.3015,
1032.063,6062.3418,
1029.153,6107.8272,
1026.242,6125.1264,
1023.331,6145.7487,
1020.421,6200.6384,
1017.510,6218.2678,
1014.600,6234.2048,
1011.689,6284.6959,
1008.778,6373.1926,
1005.868,6540.6805,
1002.957,6755.7691,
1000.047,6972.2061,
997.136,7199.9153,
994.226,7372.426,
991.315,7413.0421,
988.404,7308.1334,
985.494,7175.5582,
982.583,7166.9926,
979.673,7053.0764,
976.762,6992.3756,
973.852,7034.4433,
970.941,7085.4853,
968.030,7047.8657,
965.120,7093.571,
962.209,7050.9439,
959.299,7026.752,
956.388,7029.2694,
953.477,7032.2287,
950.567,7028.3642,
947.656,7049.4535,
944.746,7153.9489,
941.835,7132.836,
938.925,7184.6584,
936.014,7176.813,
933.103,7118.9174,
930.193,7061.5733,
927.282,6983.5126,
924.372,6960.6812,
921.461,6810.4699,
918.551,6725.7987,
915.640,6647.9323,
912.729,6574.0184,
909.819,6569.1898,
906.908,6527.0685,
903.998,6492.1401,
901.087,6567.1323,
898.176,6634.7922,
895.266,6701.1859,
892.355,6801.6189,
889.445,6827.6361,
886.534,6919.5859,
883.624,6998.3049,
880.713,7055.8196,
877.802,7077.5391,
874.892,7072.1623,
871.981,7089.8956,
869.071,7011.3668,
866.160,7000.5098,
863.250,7009.0888,
860.339,6988.186,
857.428,6940.2805,
854.518,6943.9336,
851.607,6846.5815,
848.697,6877.8972,
845.786,6870.6879,
842.875,6820.6798,
839.965,6786.7308,
837.054,6828.0663,
834.144,6856.2439,
831.233,6897.0808,
828.323,6858.8634,
825.412,6790.4813,
822.501,6748.8772,
819.591,6649.7093,
816.680,6557.0063,
813.770,6473.9792,
810.859,6429.6277,
807.949,6417.5451,
805.038,6404.1836,
802.127,6341.6259,
799.217,6289.5358,
796.306,6264.6689,
793.396,6281.109,
790.485,6308.695,
787.574,6273.9404,
784.664,6252.6175,
781.753,6270.8925,
778.843,6285.1806,
775.932,6286.2809,
773.022,6288.865,
770.111,6341.1901,
767.200,6366.0667,
764.290,6365.8155,
761.379,6342.2382,
758.469,6306.6349,
755.558,6279.361,
752.648,6266.3273,
749.737,6223.9299,
746.826,6172.4456,
743.916,6102.8469,
741.005,5997.7104,
738.095,5864.5626,
735.184,5682.8561,
732.274,5640.9413,
729.363,5766.6452,
726.452,5988.1219,
723.542,6078.7739,
720.631,6162.4975,
717.721,6150.6607,
714.810,6145.8294,
711.899,6190.2154,
708.989,6226.527,
706.078,6164.2484,
703.168,6098.3507,
700.257,6060.3866,
697.347,6046.4463,
694.436,6023.2263,
691.525,6003.9349,
688.615,6012.9571,
685.704,6000.4604,
682.794,5995.5157,
679.883,6065.4524,
676.973,6036.6031,
674.062,6030.1119,
671.151,6006.5185,
668.241,5979.3707,
665.330,5988.2038,
662.420,5997.7886,
659.509,6032.1315,
656.598,5992.3288,
653.688,5934.6135,
650.777,5999.7752,
647.867,6059.4998,
644.956,6080.1798,
642.046,6057.8011,
639.135,6026.8767,
636.224,6053.9211,
633.314,6088.0604,
630.403,6115.0775,
627.493,6134.2793,
624.582,6149.8706,
621.672,6172.8384,
618.761,6184.3892,
615.850,6251.6646,
612.940,6318.7775,
610.029,6350.512,
607.119,6367.0942,
604.208,6358.0998,
601.297,6360.2307,
598.387,6360.4441,
595.476,6346.2356,
592.566,6361.9769,
589.655,6358.2711,
586.745,6366.4672,
583.834,6370.7708,
580.923,6331.769,
578.013,6334.9079,
575.102,6320.2631,
572.192,6319.1112,
569.281,6344.3582,
566.371,6381.1415,
563.460,6415.0851,
560.549,6453.5758,
557.639,6493.3725,
554.728,6527.9964,
551.818,6531.8979,
548.907,6599.7854,
545.996,6639.2509,
543.086,6635.0921,
540.175,6641.3213,
537.265,6745.3219,
534.354,6778.7297,
531.444,6784.7323,
528.533,6824.4688,
525.622,6947.0685,
522.712,7078.7183,
519.801,7145.2225,
516.891,7162.3131,
513.980,7259.1001,
511.070,7397.3499,
508.159,7530.5485,
505.248,7656.5576,
502.338,7777.1281,
499.427,7824.2099,
496.517,7988.9115,
493.606,8104.7405,
490.695,8100.2894,
487.785,8082.5842,
484.874,8177.3298,
481.964,8179.6708,
479.053,8113.2657,
476.143,8136.3046,
473.232,8057.1768,
470.321,8063.2164,
467.411,8086.5413,
464.500,8037.2179,
461.590,7976.7245,
458.679,8019.7321,
455.769,8082.2978,
452.858,8114.6133,
449.947,8142.1148,
447.037,8169.5934,
444.126,8158.9803,
441.216,8120.5864,
438.305,8142.6824,
435.395,8181.1544,
432.484,8188.0809,
429.573,8172.2825,
426.663,8174.5629,
423.752,8157.3145,
420.842,8169.8442,
417.931,8229.0869,
415.020,8353.4576,
412.110,8357.75,
409.199,8409.5837,
406.289,8492.5296,
403.378,8580.4939,
400.468,8504.8944,
397.557,8459.1557,
394.646,8455.4494,
391.736,8500.3395,
388.825,8487.5176,
385.915,8466.7198,
383.004,8479.4477,
380.094,8555.5065,
377.183,8687.9423,
374.272,8777.3997,
371.362,8848.5338,
368.451,8915.3943,
365.541,8958.9254,
362.630,9030.2902,
359.719,9115.858,
356.809,9200.4813,
353.898,9179.515,
350.988,9166.6977,
348.077,9174.1088,
345.167,9210.1936,
342.256,9278.1768,
339.345,9289.7785,
336.435,9290.8002,
333.524,9314.8739,
330.614,9413.9796,
327.703,9468.3666,
324.793,9513.4356,
321.882,9578.8401,
318.971,9616.0123,
316.061,9702.9737,
313.150,9786.5238,
310.240,9805.0767,
307.329,9898.6528,
304.418,9939.3976,
301.508,9945.9162,
298.597,9954.0607,
295.687,9969.6493,
292.776,10071.751,
289.866,10271.697,
286.955,10589.349,
284.044,10859.92,
281.134,11101.836,
278.223,11322.869,
275.313,11542.452,
272.402,11789.743,
269.492,12025.687,
266.581,12240.773,
263.670,12506.909,
260.760,12733.674,
257.849,12935.42,
254.939,13120.358,
252.028,13232.051,
249.117,13321.26,
246.207,13405.593,
243.296,13513.203,
240.386,13447.044,
237.475,13374.631,
234.565,13308.53,
231.654,13205.546,
228.743,13175.695,
225.833,13110.905,
222.922,12973.59,
220.012,12905.835,
217.101,12870.991,
214.191,12825.185,
211.280,12716.793,
208.369,12693.275,
205.459,12702.519,
202.548,12722.861,
199.638,12694.561,
196.727,12733.119,
193.816,12757.622,
190.906,12740.985,
187.995,12804.699,
185.085,12832.424,
182.174,12861.081,
179.264,12943.476,
176.353,12987.352,
173.442,12993.698,
170.532,12957.309,
167.621,12841.953,
164.711,12679.884,
161.800,12408.639,
158.890,11960.248,
155.979,11107.51,
153.068,10157.683,
150.158,9098.2967,
147.247,7796.6492,
144.337,6450.0235,
141.426,5098.5912,
138.516,3760.1553,
135.605,2704.0747,
132.694,1844.1538,
129.784,1183.7691,
126.873,799.02923,
123.963,560.84129,
121.052,398.67306,
118.141,295.15727,
115.231,227.24582,
112.320,177.72093,
109.410,145.29561,
106.499,132.47681,
103.589,117.4244,
100.678,105.3054,
97.767,98.906966,
94.857,87.662175,
91.946,78.718891,
89.036,72.75,
86.125,72.75,
83.215,67.971717,
80.304,60.15851,
77.393,49.535961,
74.483,48.75,
71.572,47.300592,
68.662,44.057325,
65.751,36.992814,
62.840,41.012126,
59.930,46.438997,
57.019,41.503423,
54.109,32.389748,
51.198,26.448391,
48.288,25.721688,
45.377,22.204797,
42.466,20.75,
39.556,21.901186,
36.645,28.923088,
33.735,29.192255,
30.824,28.633548,
27.914,31.438249,
25.003,24.900988,
22.092,19.458382,
19.182,16.841531,
16.271,19.639492,
13.361,22.85729,
10.450,24.668292,
7.539,18.383454,
4.629,-56.568146,
1.718,-113.06243,
-1.192,-73.325189,
-4.103,-79.79572,
-7.013,-60.800054,
-9.924,-0.25,
