,PL4CF9~1,
Raman shift [1/cm],Intensity,
3014.167,2.375,
3011.256,-1.5249785,
3008.346,45.922771,
3005.435,46.98984,
3002.525,45.960011,
2999.614,70.939954,
2996.704,60.568822,
2993.793,67.108872,
2990.882,70.901763,
2987.972,60.339685,
2985.061,56.921803,
2982.151,70.18173,
2979.240,71.691539,
2976.329,69.36954,
2973.419,69.082831,
2970.508,78.791584,
2967.598,73.801506,
2964.687,66.673233,
2961.777,93.118811,
2958.866,88.046616,
2955.955,67.715725,
2953.045,83.706078,
2950.134,91.025197,
2947.224,93.375,
2944.313,91.577279,
2941.403,83.291515,
2938.492,98.513209,
2935.581,82.289139,
2932.671,100.45223,
2929.760,90.65193,
2926.850,94.375,
2923.939,97.449727,
2921.028,89.945333,
2918.118,90.194899,
2915.207,101.73591,
2912.297,107.38769,
2909.386,105.34581,
2906.476,100.63061,
2903.565,98.615732,
2900.654,112.25772,
2897.744,104.55101,
2894.833,106.82882,
2891.923,102.53851,
2889.012,95.54263,
2886.102,97.207427,
2883.191,95.37972,
2880.280,82.528104,
2877.370,74.299406,
2874.459,68.959951,
2871.549,93.348894,
2868.638,102.55645,
2865.727,98.978857,
2862.817,102.3897,
2859.906,109.2354,
2856.996,106.84556,
2854.085,108.09348,
2851.175,108.47137,
2848.264,113.09067,
2845.353,118.05149,
2842.443,100.18057,
2839.532,105.46449,
2836.622,100.04362,
2833.711,107.27139,
2830.801,106.27426,
2827.890,105.91696,
2824.979,108.017,
2822.069,108.22716,
2819.158,95.755054,
2816.248,97.122105,
2813.337,116.67379,
2810.427,103.375,
2807.516,103.375,
2804.605,108.35336,
2801.695,106.63816,
2798.784,112.07931,
2795.874,116.67053,
2792.963,102.23202,
2790.052,106.3735,
2787.142,99.151346,
2784.231,91.730604,
2781.321,110.36347,
2778.410,87.014582,
2775.500,100.97017,
2772.589,96.874241,
2769.678,96.050717,
2766.768,102.69344,
2763.857,119.2671,
2760.947,100.89706,
2758.036,98.445028,
2755.126,108.18483,
2752.215,105.77953,
2749.304,102.6304,
2746.394,111.43346,
2743.483,112.62501,
2740.573,98.841764,
2737.662,107.3957,
2734.751,121.93324,
2731.841,103.64422,
2728.930,121.90472,
2726.020,115.0434,
2723.109,104.84942,
2720.199,117.06261,
2717.288,104.09398,
2714.377,113.34156,
2711.467,113.96511,
2708.556,121.06637,
2705.646,121.14964,
2702.735,118.53737,
2699.825,118.77684,
2696.914,110.42226,
2694.003,122.31972,
2691.093,111.9466,
2688.182,124.77574,
2685.272,118.21568,
2682.361,114.79858,
2679.450,123.70006,
2676.540,110.49694,
2673.629,115.37949,
2670.719,120.44062,
2667.808,126.27773,
2664.898,125.15418,
2661.987,122.2749,
2659.076,117.50216,
2656.166,126.02003,
2653.255,128.22534,
2650.345,127.67083,
2647.434,130.23239,
2644.524,135.12798,
2641.613,121.51768,
2638.702,137.07516,
2635.792,121.78078,
2632.881,126.52974,
2629.971,134.35491,
2627.060,119.53969,
2624.149,134.45625,
2621.239,136.38093,
2618.328,129.31532,
2615.418,109.35682,
2612.507,127.30382,
2609.597,130.65045,
2606.686,120.2967,
2603.775,137.65675,
2600.865,138.02345,
2597.954,126.51874,
2595.044,130.36614,
2592.133,132.375,
2589.223,151.09817,
2586.312,138.83733,
2583.401,131.375,
2580.491,142.99035,
2577.580,125.40636,
2574.670,142.99131,
2571.759,138.82449,
2568.848,126.02687,
2565.938,132.37486,
2563.027,149.54547,
2560.117,138.1133,
2557.206,132.47094,
2554.296,151.26287,
2551.385,149.42489,
2548.474,147.3382,
2545.564,165.93182,
2542.653,132.76426,
2539.743,145.27642,
2536.832,148.08902,
2533.922,160.35923,
2531.011,153.60049,
2528.100,145.83844,
2525.190,157.11844,
2522.279,148.4688,
2519.369,150.07313,
2516.458,150.4869,
2513.548,153.80224,
2510.637,153.49797,
2507.726,154.12593,
2504.816,150.81243,
2501.905,143.88232,
2498.995,155.07641,
2496.084,152.52135,
2493.173,149.63791,
2490.263,142.57726,
2487.352,159.45847,
2484.442,158.52704,
2481.531,156.6409,
2478.621,158.3039,
2475.710,163.44401,
2472.799,167.19569,
2469.889,151.375,
2466.978,149.21007,
2464.068,169.44386,
2461.157,153.22003,
2458.247,149.22795,
2455.336,160.92687,
2452.425,151.21932,
2449.515,155.21493,
2446.604,163.79208,
2443.694,158.8635,
2440.783,157.32658,
2437.872,162.66672,
2434.962,170.375,
2432.051,165.0107,
2429.141,162.93378,
2426.230,166.24462,
2423.320,183.9609,
2420.409,170.70203,
2417.498,160.17837,
2414.588,173.27228,
2411.677,179.26743,
2408.767,177.89272,
2405.856,178.62264,
2402.946,171.63684,
2400.035,171.27406,
2397.124,175.83488,
2394.214,186.4018,
2391.303,181.15955,
2388.393,176.13546,
2385.482,167.72749,
2382.571,178.34938,
2379.661,193.95629,
2376.750,196.42923,
2373.840,174.9032,
2370.929,171.36417,
2368.019,183.29127,
2365.108,176.69961,
2362.197,186.375,
2359.287,188.76999,
2356.376,167.41374,
2353.466,171.28244,
2350.555,194.18996,
2347.645,188.23063,
2344.734,192.46718,
2341.823,207.15942,
2338.913,183.66455,
2336.002,189.64525,
2333.092,195.23725,
2330.181,198.6921,
2327.270,191.03506,
2324.360,187.19808,
2321.449,199.55866,
2318.539,191.97134,
2315.628,208.92896,
2312.718,196.70979,
2309.807,214.23837,
2306.896,207.08391,
2303.986,196.59583,
2301.075,208.92817,
2298.165,201.99981,
2295.254,213.0734,
2292.344,198.58663,
2289.433,201.42909,
2286.522,212.80806,
2283.612,219.34568,
2280.701,223.375,
2277.791,203.77388,
2274.880,195.58088,
2271.969,216.44084,
2269.059,206.67199,
2266.148,202.8341,
2263.238,215.06997,
2260.327,225.03013,
2257.417,222.27278,
2254.506,226.75676,
2251.595,222.66228,
2248.685,211.80003,
2245.774,206.57283,
2242.864,222.34755,
2239.953,231.82336,
2237.043,219.49214,
2234.132,223.27371,
2231.221,213.13723,
2228.311,213.72422,
2225.400,240.20613,
2222.490,231.77559,
2219.579,221.74262,
2216.669,227.36069,
2213.758,234.28873,
2210.847,229.92665,
2207.937,245.64208,
2205.026,274.04235,
2202.116,262.4546,
2199.205,281.13759,
2196.294,269.25903,
2193.384,267.76951,
2190.473,284.1027,
2187.563,267.52001,
2184.652,300.08602,
2181.742,314.78402,
2178.831,318.2116,
2175.920,326.70651,
2173.010,310.24858,
2170.099,317.24008,
2167.189,319.3176,
2164.278,312.40214,
2161.368,327.23107,
2158.457,355.72941,
2155.546,349.2394,
2152.636,347.8271,
2149.725,359.03271,
2146.815,380.67425,
2143.904,384.17797,
2140.993,389.27979,
2138.083,384.92818,
2135.172,390.8624,
2132.262,394.87852,
2129.351,393.35429,
2126.441,389.72451,
2123.530,370.03828,
2120.619,340.09978,
2117.709,331.78281,
2114.798,319.97892,
2111.888,321.15041,
2108.977,302.83857,
2106.067,293.58311,
2103.156,310.85154,
2100.245,273.3819,
2097.335,281.36453,
2094.424,261.2898,
2091.514,263.7997,
2088.603,258.3243,
2085.692,268.83219,
2082.782,263.35901,
2079.871,267.41117,
2076.961,254.40825,
2074.050,261.375,
2071.140,259.60503,
2068.229,257.17837,
2065.318,277.28875,
2062.408,271.51117,
2059.497,269.5893,
2056.587,282.88649,
2053.676,261.8765,
2050.766,243.45273,
2047.855,246.77371,
2044.944,261.4391,
2042.034,266.00503,
2039.123,266.53662,
2036.213,269.5505,
2033.302,251.74459,
2030.391,251.01905,
2027.481,259.55785,
2024.570,280.91737,
2021.660,286.25674,
2018.749,278.64093,
2015.839,283.4918,
2012.928,273.90353,
2010.017,277.18064,
2007.107,274.33016,
2004.196,281.79165,
2001.286,266.89446,
1998.375,272.59646,
1995.465,294.89375,
1992.554,271.32818,
1989.643,284.75285,
1986.733,273.85658,
1983.822,281.52862,
1980.912,279.33564,
1978.001,285.92602,
1975.090,275.58568,
1972.180,278.61568,
1969.269,301.09344,
1966.359,287.72603,
1963.448,283.14119,
1960.538,282.31745,
1957.627,284.04992,
1954.716,267.86336,
1951.806,278.02082,
1948.895,292.54298,
1945.985,300.02206,
1943.074,279.78815,
1940.164,296.39412,
1937.253,291.67926,
1934.342,303.42633,
1931.432,290.32452,
1928.521,293.90868,
1925.611,299.77114,
1922.700,283.33771,
1919.790,281.09752,
1916.879,295.32876,
1913.968,292.37992,
1911.058,259.80145,
1908.147,319.18665,
1905.237,298.17647,
1902.326,297.1113,
1899.415,293.42256,
1896.505,276.01944,
1893.594,267.00613,
1890.684,277.89134,
1887.773,287.03857,
1884.863,306.13126,
1881.952,293.84519,
1879.041,314.12163,
1876.131,307.08742,
1873.220,299.88826,
1870.310,297.5185,
1867.399,317.05513,
1864.489,327.7519,
1861.578,309.38622,
1858.667,284.92287,
1855.757,311.57428,
1852.846,308.10322,
1849.936,301.72334,
1847.025,311.43583,
1844.114,301.16794,
1841.204,303.88549,
1838.293,314.86585,
1835.383,327.47949,
1832.472,316.76978,
1829.562,325.81667,
1826.651,305.92124,
1823.740,308.11833,
1820.830,328.26489,
1817.919,316.90185,
1815.009,307.38136,
1812.098,315.35137,
1809.188,298.55334,
1806.277,333.55612,
1803.366,329.67628,
1800.456,289.25431,
1797.545,307.23301,
1794.635,330.47292,
1791.724,304.80208,
1788.813,337.16831,
1785.903,319.65792,
1782.992,316.96214,
1780.082,296.04065,
1777.171,323.03666,
1774.261,320.07032,
1771.350,342.23025,
1768.439,325.01199,
1765.529,320.10373,
1762.618,341.45315,
1759.708,330.36389,
1756.797,334.80682,
1753.887,343.14322,
1750.976,324.88875,
1748.065,332.04934,
1745.155,336.82018,
1742.244,340.67209,
1739.334,368.0244,
1736.423,351.8199,
1733.512,346.9238,
1730.602,359.84724,
1727.691,337.27454,
1724.781,344.31995,
1721.870,359.64173,
1718.960,353.33045,
1716.049,348.85808,
1713.138,350.93999,
1710.228,369.65124,
1707.317,390.951,
1704.407,364.62629,
1701.496,366.84429,
1698.586,389.55063,
1695.675,383.88933,
1692.764,381.48156,
1689.854,435.90653,
1686.943,421.94834,
1684.033,437.95278,
1681.122,429.52793,
1678.211,460.07996,
1675.301,438.44284,
1672.390,427.45276,
1669.480,453.57555,
1666.569,478.27343,
1663.659,471.04463,
1660.748,510.58445,
1657.837,470.79052,
1654.927,489.00013,
1652.016,474.07967,
1649.106,503.35424,
1646.195,542.61476,
1643.285,552.32943,
1640.374,549.35062,
1637.463,502.32977,
1634.553,554.71489,
1631.642,577.54873,
1628.732,593.62979,
1625.821,636.38481,
1622.911,651.29047,
1620.000,679.02224,
1617.089,732.30037,
1614.179,749.89558,
1611.268,797.55328,
1608.358,812.71948,
1605.447,858.63251,
1602.536,845.53292,
1599.626,883.01218,
1596.715,881.83699,
1593.805,861.6997,
1590.894,869.94304,
1587.984,862.71408,
1585.073,843.50785,
1582.162,859.57738,
1579.252,829.82465,
1576.341,811.96118,
1573.431,810.94135,
1570.520,812.90375,
1567.610,818.59077,
1564.699,784.12351,
1561.788,809.10702,
1558.878,770.07118,
1555.967,742.39301,
1553.057,727.97858,
1550.146,725.29135,
1547.235,713.61684,
1544.325,700.54734,
1541.414,686.49374,
1538.504,680.99922,
1535.593,696.08712,
1532.683,710.59076,
1529.772,707.04386,
1526.861,686.51213,
1523.951,673.72949,
1521.040,666.01474,
1518.130,635.38961,
1515.219,645.65341,
1512.309,687.24433,
1509.398,649.52325,
1506.487,652.4855,
1503.577,630.52195,
1500.666,627.00993,
1497.756,596.03647,
1494.845,642.37609,
1491.934,690.17972,
1489.024,630.50516,
1486.113,625.59335,
1483.203,614.71699,
1480.292,616.76905,
1477.382,596.36055,
1474.471,585.23597,
1471.560,579.021,
1468.650,585.57428,
1465.739,586.81304,
1462.829,569.85775,
1459.918,560.47998,
1457.008,568.48278,
1454.097,582.76953,
1451.186,590.54328,
1448.276,597.86129,
1445.365,608.51718,
1442.455,613.22102,
1439.544,642.21512,
1436.633,618.4326,
1433.723,592.11972,
1430.812,602.6757,
1427.902,581.98384,
1424.991,607.57343,
1422.081,550.57394,
1419.170,606.72328,
1416.259,619.61525,
1413.349,570.52909,
1410.438,559.27346,
1407.528,572.96235,
1404.617,604.62151,
1401.707,607.00673,
1398.796,585.35055,
1395.885,599.93819,
1392.975,630.54155,
1390.064,619.19451,
1387.154,586.38312,
1384.243,518.58026,
1381.332,480.13762,
1378.422,511.67924,
1375.511,536.97232,
1372.601,593.59079,
1369.690,656.66613,
1366.780,676.67146,
1363.869,696.81045,
1360.958,672.34483,
1358.048,671.2078,
1355.137,708.18489,
1352.227,719.10695,
1349.316,723.98293,
1346.406,746.79564,
1343.495,734.09802,
1340.584,748.2685,
1337.674,716.23748,
1334.763,797.70458,
1331.853,780.08719,
1328.942,777.59607,
1326.032,746.38142,
1323.121,741.59789,
1320.210,785.65985,
1317.300,750.12249,
1314.389,725.79197,
1311.479,726.83141,
1308.568,711.17096,
1305.657,717.74649,
1302.747,728.59909,
1299.836,737.6207,
1296.926,741.51145,
1294.015,787.47763,
1291.105,784.97229,
1288.194,823.51341,
1285.283,832.659,
1282.373,846.29682,
1279.462,863.15914,
1276.552,880.13095,
1273.641,895.93028,
1270.731,900.72873,
1267.820,885.02674,
1264.909,848.52876,
1261.999,844.40556,
1259.088,900.04494,
1256.178,892.24107,
1253.267,878.09987,
1250.356,841.86681,
1247.446,830.48209,
1244.535,828.91519,
1241.625,795.71212,
1238.714,753.375,
1235.804,754.24878,
1232.893,753.8804,
1229.982,728.08712,
1227.072,690.06401,
1224.161,688.2155,
1221.251,675.71834,
1218.340,658.41876,
1215.430,630.45466,
1212.519,609.75292,
1209.608,614.23439,
1206.698,637.77944,
1203.787,657.66143,
1200.877,648.82077,
1197.966,656.01404,
1195.055,711.83616,
1192.145,716.86694,
1189.234,730.94602,
1186.324,743.19355,
1183.413,749.46637,
1180.503,754.72402,
1177.592,759.46595,
1174.681,768.02226,
1171.771,777.76778,
1168.860,708.1068,
1165.950,716.6945,
1163.039,707.80375,
1160.129,692.93732,
1157.218,697.43193,
1154.307,687.48451,
1151.397,650.375,
1148.486,651.72371,
1145.576,659.02807,
1142.665,651.03686,
1139.754,619.45711,
1136.844,605.37197,
1133.933,611.17259,
1131.023,634.84255,
1128.112,652.23245,
1125.202,645.95955,
1122.291,636.87095,
1119.380,626.39232,
1116.470,628.15738,
1113.559,609.04377,
1110.649,609.26861,
1107.738,619.87645,
1104.828,635.52919,
1101.917,638.01953,
1099.006,618.45734,
1096.096,641.40744,
1093.185,625.60339,
1090.275,644.60676,
1087.364,611.63824,
1084.453,601.12457,
1081.543,609.88077,
1078.632,615.62858,
1075.722,623.26457,
1072.811,644.31295,
1069.901,643.43969,
1066.990,613.46674,
1064.079,630.8735,
1061.169,655.07793,
1058.258,681.89094,
1055.348,694.38042,
1052.437,664.14344,
1049.527,633.44913,
1046.616,661.25167,
1043.705,685.18566,
1040.795,690.7365,
1037.884,686.3291,
1034.974,688.70618,
1032.063,695.08284,
1029.153,683.55611,
1026.242,701.72019,
1023.331,696.54204,
1020.421,673.76485,
1017.510,673.89969,
1014.600,681.375,
1011.689,687.0764,
1008.778,703.57417,
1005.868,716.45994,
1002.957,725.92384,
1000.047,778.33502,
997.136,813.82012,
994.226,819.57509,
991.315,802.63243,
988.404,780.21287,
985.494,778.74206,
982.583,750.4757,
979.673,736.86359,
976.762,732.2008,
973.852,728.72294,
970.941,733.0809,
968.030,747.9183,
965.120,728.52894,
962.209,765.18825,
959.299,762.87601,
956.388,761.05489,
953.477,748.81109,
950.567,743.7533,
947.656,783.26089,
944.746,774.76533,
941.835,749.27079,
938.925,761.80041,
936.014,772.38665,
933.103,772.31572,
930.193,763.18375,
927.282,734.74163,
924.372,741.50648,
921.461,731.329,
918.551,720.4038,
915.640,707.30107,
912.729,697.98514,
909.819,704.26548,
906.908,718.58671,
903.998,709.83063,
901.087,702.28295,
898.176,716.07683,
895.266,730.24881,
892.355,726.40091,
889.445,753.25746,
886.534,770.07244,
883.624,758.57269,
880.713,747.80251,
877.802,744.375,
874.892,738.12421,
871.981,709.78316,
869.071,684.72077,
866.160,705.90351,
863.250,718.94761,
860.339,739.34764,
857.428,764.38348,
854.518,726.66386,
851.607,736.64869,
848.697,736.31155,
845.786,728.62844,
842.875,737.75513,
839.965,758.8311,
837.054,724.6448,
834.144,748.67862,
831.233,734.70968,
828.323,721.41843,
825.412,718.34089,
822.501,723.05592,
819.591,737.9311,
816.680,708.72751,
813.770,702.0015,
810.859,698.76507,
807.949,695.20183,
805.038,699.2666,
802.127,714.90602,
799.217,714.88422,
796.306,704.15871,
793.396,701.0468,
790.485,702.26817,
787.574,678.78339,
784.664,663.20125,
781.753,689.89829,
778.843,705.84525,
775.932,698.1159,
773.022,679.40376,
770.111,692.48501,
767.200,723.06619,
764.290,712.14927,
761.379,704.46462,
758.469,710.56186,
755.558,691.69424,
752.648,668.88534,
749.737,661.76384,
746.826,652.44924,
743.916,618.52398,
741.005,545.02109,
738.095,462.20966,
735.184,321.51907,
732.274,277.78936,
729.363,343.20664,
726.452,480.90959,
723.542,611.22191,
720.631,657.36649,
717.721,683.12329,
714.810,689.94889,
711.899,686.44431,
708.989,695.32049,
706.078,698.58021,
703.168,688.44502,
700.257,676.42414,
697.347,666.54921,
694.436,656.24407,
691.525,651.42124,
688.615,649.74609,
685.704,650.23839,
682.794,646.6942,
679.883,632.204,
676.973,650.63552,
674.062,640.33719,
671.151,645.08657,
668.241,660.18376,
665.330,658.00109,
662.420,692.34656,
659.509,660.64421,
656.598,645.299,
653.688,662.42649,
650.777,688.75394,
647.867,670.4384,
644.956,679.9963,
642.046,671.79107,
639.135,651.72875,
636.224,664.38296,
633.314,665.97083,
630.403,658.68926,
627.493,666.43353,
624.582,690.37671,
621.672,703.84061,
618.761,680.05694,
615.850,675.12994,
612.940,689.67025,
610.029,711.00759,
607.119,696.79424,
604.208,674.78461,
601.297,681.33053,
598.387,703.5408,
595.476,717.95816,
592.566,681.75302,
589.655,701.93849,
586.745,693.80863,
583.834,651.19996,
580.923,604.49347,
578.013,624.11182,
575.102,627.65424,
572.192,639.59453,
569.281,661.6878,
566.371,652.29632,
563.460,692.99762,
560.549,710.375,
557.639,707.15224,
554.728,698.22719,
551.818,695.88624,
548.907,709.3915,
545.996,716.43105,
543.086,709.68422,
540.175,692.55401,
537.265,719.62189,
534.354,729.87331,
531.444,726.86708,
528.533,719.768,
525.622,711.23258,
522.712,709.375,
519.801,719.68576,
516.891,741.53966,
513.980,767.09143,
511.070,745.42719,
508.159,754.47766,
505.248,764.35905,
502.338,732.03017,
499.427,754.4133,
496.517,785.26386,
493.606,787.55041,
490.695,755.97977,
487.785,767.52663,
484.874,813.96445,
481.964,825.0861,
479.053,794.79194,
476.143,746.4103,
473.232,790.13624,
470.321,811.78103,
467.411,808.03045,
464.500,785.96774,
461.590,769.8872,
458.679,788.48737,
455.769,780.90961,
452.858,728.6243,
449.947,779.04377,
447.037,802.11697,
444.126,794.10834,
441.216,767.96246,
438.305,777.10564,
435.395,786.24264,
432.484,768.28714,
429.573,748.02512,
426.663,793.63356,
423.752,761.10921,
420.842,725.28082,
417.931,705.46891,
415.020,719.87771,
412.110,727.69113,
409.199,758.73683,
406.289,791.32675,
403.378,800.2956,
400.468,776.85977,
397.557,768.3467,
394.646,757.67856,
391.736,730.84381,
388.825,714.25072,
385.915,685.42628,
383.004,671.79913,
380.094,693.36935,
377.183,752.0625,
374.272,804.74129,
371.362,846.26511,
368.451,870.36899,
365.541,837.3454,
362.630,858.96447,
359.719,884.96694,
356.809,885.69536,
353.898,874.46339,
350.988,876.25738,
348.077,878.92296,
345.167,874.35328,
342.256,854.18243,
339.345,870.69517,
336.435,891.48537,
333.524,894.86825,
330.614,910.51652,
327.703,898.94603,
324.793,876.67243,
321.882,857.51922,
318.971,916.99464,
316.061,927.60872,
313.150,911.6012,
310.240,893.04831,
307.329,910.95556,
304.418,903.32854,
301.508,874.5442,
298.597,833.82128,
295.687,836.47016,
292.776,853.12507,
289.866,891.83631,
286.955,984.177,
284.044,1047.3424,
281.134,1109.3306,
278.223,1175.0753,
275.313,1241.3923,
272.402,1295.4573,
269.492,1325.3256,
266.581,1325.5357,
263.670,1299.8044,
260.760,1343.0462,
257.849,1398.357,
254.939,1424.0428,
252.028,1448.9857,
249.117,1417.2605,
246.207,1369.5115,
243.296,1373.9037,
240.386,1418.1254,
237.475,1426.3917,
234.565,1397.4285,
231.654,1366.022,
228.743,1316.7978,
225.833,1268.9106,
222.922,1231.0013,
220.012,1222.9872,
217.101,1185.5342,
214.191,1166.8598,
211.280,1225.0568,
208.369,1174.8771,
205.459,1153.166,
202.548,1165.6396,
199.638,1196.1169,
196.727,1178.1739,
193.816,1170.0077,
190.906,1192.0195,
187.995,1181.8831,
185.085,1200.5992,
182.174,1217.5397,
179.264,1188.629,
176.353,1220.6178,
173.442,1214.2708,
170.532,1171.9873,
167.621,1202.9893,
164.711,1165.6506,
161.800,1110.6122,
158.890,1070.3074,
155.979,1016.3369,
153.068,938.6953,
150.158,843.25154,
147.247,748.48184,
144.337,617.52006,
141.426,485.57324,
138.516,368.71997,
135.605,253.39627,
132.694,174.16505,
129.784,122.29156,
126.873,80.814024,
123.963,53.595686,
121.052,38.525132,
118.141,36.383426,
115.231,20.742452,
112.320,16.916816,
109.410,19.284158,
106.499,13.586916,
103.589,12.375,
100.678,10.74527,
97.767,6.4796443,
94.857,1.5240767,
91.946,0.98744348,
89.036,4.2781833,
86.125,9.9518254,
83.215,9.2513186,
80.304,5.9384039,
77.393,1.6893843,
74.483,7.2712146,
71.572,7.4761831,
68.662,2.1671975,
65.751,0.047844268,
62.840,6.6005298,
59.930,12.87671,
57.019,7.2360545,
54.109,3.3891958,
51.198,2.2798278,
48.288,4.4202995,
45.377,10.047324,
42.466,11.962781,
39.556,10.684289,
36.645,6.4711472,
33.735,10.048236,
30.824,14.375,
27.914,14.375,
25.003,12.507088,
22.092,14.281141,
19.182,21.107252,
16.271,43.490936,
13.361,207.89299,
10.450,518.7287,
7.539,1084.3642,
4.629,1487.9885,
1.718,1562.2391,
-1.192,1020.5578,
-4.103,556.9975,
-7.013,210.86427,
-9.924,1.375,
