,PL51DF~1,
Wavenumbers [1/cm],Intensity,
3014.167,2,
3011.256,-2,
3008.346,15.081623,
3005.435,9.5795085,
3002.525,16.452461,
2999.614,13.089627,
2996.704,27.088658,
2993.793,16.486176,
2990.882,24.175588,
2987.972,36.828471,
2985.061,6.9901529,
2982.151,24.329422,
2979.240,20.431547,
2976.329,35.259556,
2973.419,40.861876,
2970.508,31.933307,
2967.598,27.474297,
2964.687,26.55163,
2961.777,32.470039,
2958.866,25.671616,
2955.955,36.453518,
2953.045,34.183446,
2950.134,36.212831,
2947.224,25.024877,
2944.313,54.157407,
2941.403,49.607208,
2938.492,44.436318,
2935.581,52.930051,
2932.671,41.922772,
2929.760,52.257687,
2926.850,49,
2923.939,46.640188,
2921.028,48.311788,
2918.118,58.658688,
2915.207,39.170777,
2912.297,54.906911,
2909.386,49.810216,
2906.476,39.488783,
2903.565,52.322966,
2900.654,44.164816,
2897.744,49.075433,
2894.833,56.649454,
2891.923,48.458296,
2889.012,44.66474,
2886.102,57.644588,
2883.191,75.986784,
2880.280,122.14834,
2877.370,95.209499,
2874.459,83.905346,
2871.549,26.907832,
2868.638,43.047406,
2865.727,38.153878,
2862.817,38.114962,
2859.906,47.632483,
2856.996,48.44792,
2854.085,67.922283,
2851.175,58.331358,
2848.264,61.485495,
2845.353,46.517609,
2842.443,64.809052,
2839.532,54.671656,
2836.622,50.455078,
2833.711,47.740966,
2830.801,45.697795,
2827.890,49.606665,
2824.979,58.790022,
2822.069,64.874907,
2819.158,52.859837,
2816.248,51.747105,
2813.337,75.370747,
2810.427,54.169415,
2807.516,51.899376,
2804.605,53.225965,
2801.695,58.565791,
2798.784,48.813154,
2795.874,52.139838,
2792.963,45.356913,
2790.052,50.997641,
2787.142,52.815924,
2784.231,53.517098,
2781.321,42.440022,
2778.410,50.244922,
2775.500,59.658618,
2772.589,55.115443,
2769.678,58.320808,
2766.768,62.623303,
2763.857,58.262041,
2760.947,48.496848,
2758.036,59.859944,
2755.126,76.006406,
2752.215,66.445546,
2749.304,66.021591,
2746.394,60.963676,
2743.483,68.150016,
2740.573,71.210204,
2737.662,51.680469,
2734.751,56.534047,
2731.841,72.622718,
2728.930,55.69485,
2726.020,62.775463,
2723.109,64.546333,
2720.199,68.903228,
2717.288,63.244533,
2714.377,72.74164,
2711.467,59.573629,
2708.556,68.606315,
2705.646,56.633765,
2702.735,80.659789,
2699.825,71.065443,
2696.914,76.905012,
2694.003,72.77073,
2691.093,74.874854,
2688.182,77.10963,
2685.272,92.41537,
2682.361,54.546944,
2679.450,75.571956,
2676.540,57.304861,
2673.629,67.686122,
2670.719,67.350283,
2667.808,75.805458,
2664.898,77.740273,
2661.987,74.166611,
2659.076,72,
2656.166,77.740342,
2653.255,66.181976,
2650.345,83.62432,
2647.434,66.971994,
2644.524,83.366885,
2641.613,78.742929,
2638.702,70.157811,
2635.792,74.281157,
2632.881,76.154742,
2629.971,71.765069,
2627.060,73.333125,
2624.149,80.512492,
2621.239,83.994071,
2618.328,59.974906,
2615.418,84.654549,
2612.507,86.276694,
2609.597,76.734531,
2606.686,75.895598,
2603.775,88.158728,
2600.865,85.529015,
2597.954,69.149938,
2595.044,88.035427,
2592.133,65.936164,
2589.223,77.506334,
2586.312,96.87443,
2583.401,68.408747,
2580.491,84.326866,
2577.580,87.976895,
2574.670,74,
2571.759,81.156674,
2568.848,88.646417,
2565.938,105.38107,
2563.027,83.047771,
2560.117,74.813092,
2557.206,77,
2554.296,85.231122,
2551.385,94.685987,
2548.474,110.59294,
2545.564,90.886355,
2542.653,111.6208,
2539.743,104.16019,
2536.832,82.693454,
2533.922,103.92115,
2531.011,100.64986,
2528.100,99.13587,
2525.190,116.13606,
2522.279,111.87445,
2519.369,86.585052,
2516.458,84.335693,
2513.548,96.708955,
2510.637,97.430379,
2507.726,104.62454,
2504.816,105.43743,
2501.905,99.318902,
2498.995,91.194379,
2496.084,109.38676,
2493.173,105.7894,
2490.263,111.97741,
2487.352,104.79133,
2484.442,99.715204,
2481.531,102.68613,
2478.621,94.48337,
2475.710,105.03834,
2472.799,106.05386,
2469.889,99.33242,
2466.978,95.618645,
2464.068,112.11118,
2461.157,103.73246,
2458.247,115.26476,
2455.336,119.68102,
2452.425,105.62734,
2449.515,111.36799,
2446.604,111.88481,
2443.694,108.58142,
2440.783,114.66779,
2437.872,107.40111,
2434.962,109.33181,
2432.051,97.191584,
2429.141,115.69404,
2426.230,102.10825,
2423.320,117.72835,
2420.409,116.41046,
2417.498,111.56462,
2414.588,115.09508,
2411.677,99.896458,
2408.767,121.47047,
2405.856,125.72613,
2402.946,121.20197,
2400.035,107.60563,
2397.124,123.97862,
2394.214,111.244,
2391.303,106.74594,
2388.393,110.43724,
2385.482,119.77969,
2382.571,130.24139,
2379.661,99.511655,
2376.750,102.20933,
2373.840,112.27497,
2370.929,126.85921,
2368.019,126.03634,
2365.108,122.39529,
2362.197,128.97263,
2359.287,122.62172,
2356.376,128.98415,
2353.466,135.24319,
2350.555,118.07479,
2347.645,119.65694,
2344.734,126.21198,
2341.823,131.9005,
2338.913,140.51342,
2336.002,134.19134,
2333.092,134.55187,
2330.181,136.29921,
2327.270,114.43014,
2324.360,139.4033,
2321.449,142,
2318.539,138.42507,
2315.628,140.57954,
2312.718,120.91849,
2309.807,141.61482,
2306.896,144.96087,
2303.986,132.61041,
2301.075,137.23404,
2298.165,156.35611,
2295.254,120.88326,
2292.344,141.15347,
2289.433,149.60227,
2286.522,145.32133,
2283.612,152.85969,
2280.701,149.26906,
2277.791,146.04007,
2274.880,146.14402,
2271.969,137.58436,
2269.059,148.55043,
2266.148,134.08848,
2263.238,136.4942,
2260.327,147.62077,
2257.417,152.67889,
2254.506,150.0912,
2251.595,153.43641,
2248.685,157.3115,
2245.774,158.29675,
2242.864,142.10223,
2239.953,156.86209,
2237.043,154.16893,
2234.132,157.65194,
2231.221,156.15761,
2228.311,155.86984,
2225.400,185.57782,
2222.490,171.55702,
2219.579,177.07714,
2216.669,179.01908,
2213.758,175,
2210.847,155.65494,
2207.937,174.98205,
2205.026,180.33412,
2202.116,165.29298,
2199.205,173.92564,
2196.294,167.18198,
2193.384,177.68401,
2190.473,167.98826,
2187.563,208.93233,
2184.652,193.19266,
2181.742,180.93156,
2178.831,179.51752,
2175.920,184.58288,
2173.010,200.95125,
2170.099,204.4003,
2167.189,212.13633,
2164.278,232.46734,
2161.368,236.14344,
2158.457,225.27088,
2155.546,223.63653,
2152.636,211.94151,
2149.725,235.46306,
2146.815,247.76642,
2143.904,252.49443,
2140.993,239.93121,
2138.083,247.74162,
2135.172,264.92443,
2132.262,257.10123,
2129.351,278.71743,
2126.441,261.61157,
2123.530,265.92143,
2120.619,257.34869,
2117.709,244.09944,
2114.798,232.89227,
2111.888,215.18806,
2108.977,224.61591,
2106.067,217.28218,
2103.156,206.60082,
2100.245,216.99686,
2097.335,210.0733,
2094.424,190.97366,
2091.514,176.07259,
2088.603,186.54374,
2085.692,198.3643,
2082.782,227.56609,
2079.871,215.17737,
2076.961,223.09591,
2074.050,216.41818,
2071.140,201.78186,
2068.229,191.80337,
2065.318,214.59301,
2062.408,214.12104,
2059.497,225.23812,
2056.587,204.66333,
2053.676,207.33234,
2050.766,211,
2047.855,208.80065,
2044.944,202.66506,
2042.034,205.10402,
2039.123,204.44108,
2036.213,209.69331,
2033.302,230.71697,
2030.391,235.96659,
2027.481,216.32936,
2024.570,234.07087,
2021.660,191.89733,
2018.749,234.07598,
2015.839,233.84777,
2012.928,223.67785,
2010.017,235.02606,
2007.107,233.83738,
2004.196,229.36903,
2001.286,226.41696,
1998.375,237.74213,
1995.465,212.89554,
1992.554,220.77633,
1989.643,235.55067,
1986.733,224.28772,
1983.822,204.29764,
1980.912,252.19682,
1978.001,206.70316,
1975.090,218.99237,
1972.180,221.03458,
1969.269,210.3764,
1966.359,199.75671,
1963.448,220.64598,
1960.538,225.75396,
1957.627,216.08358,
1954.716,225.684,
1951.806,233.05612,
1948.895,215.25506,
1945.985,221.69771,
1943.074,229.34334,
1940.164,210.53865,
1937.253,209.2134,
1934.342,180.94867,
1931.432,198.66877,
1928.521,228.98791,
1925.611,218.70148,
1922.700,197.75415,
1919.790,211.22524,
1916.879,206.558,
1913.968,193.01598,
1911.058,242.56455,
1908.147,195.06278,
1905.237,200.01469,
1902.326,199.91109,
1899.415,206.58168,
1896.505,173.43372,
1893.594,171.45427,
1890.684,174.06535,
1887.773,192.17201,
1884.863,200.81093,
1881.952,215.04234,
1879.041,222.75649,
1876.131,221.37124,
1873.220,222.74337,
1870.310,209.07626,
1867.399,248.34426,
1864.489,217.03894,
1861.578,220.24159,
1858.667,235.69166,
1855.757,203.9821,
1852.846,223.49744,
1849.936,215.95396,
1847.025,210.11434,
1844.114,229.02354,
1841.204,237.25524,
1838.293,227.52079,
1835.383,212.814,
1832.472,229.97739,
1829.562,245.55521,
1826.651,225.11912,
1823.740,222.27971,
1820.830,214.96842,
1817.919,236.43129,
1815.009,240.28753,
1812.098,245.38582,
1809.188,251.62789,
1806.277,225.59756,
1803.366,257.634,
1800.456,236,
1797.545,238.21265,
1794.635,261.03202,
1791.724,269.98056,
1788.813,275.99486,
1785.903,258.12404,
1782.992,260.31597,
1780.082,279.38485,
1777.171,251.32279,
1774.261,216.38009,
1771.350,224.7915,
1768.439,249.40753,
1765.529,265.99718,
1762.618,265.39253,
1759.708,271.22813,
1756.797,263.30303,
1753.887,277.71866,
1750.976,290.12762,
1748.065,279.48234,
1745.155,292.71598,
1742.244,285.79804,
1739.334,276.68471,
1736.423,306.67473,
1733.512,301.53654,
1730.602,323.42464,
1727.691,300.75826,
1724.781,301.2255,
1721.870,316.0715,
1718.960,345.31143,
1716.049,305.69537,
1713.138,339.74979,
1710.228,345.25941,
1707.317,313.15543,
1704.407,353.02146,
1701.496,345.23833,
1698.586,355.08781,
1695.675,350.38575,
1692.764,330.11884,
1689.854,345.26379,
1686.943,341.16863,
1684.033,378.05622,
1681.122,344.59473,
1678.211,372.724,
1675.301,421.84891,
1672.390,348,
1669.480,348.33692,
1666.569,390.13965,
1663.659,401.06533,
1660.748,405.17354,
1657.837,414.34992,
1654.927,429.60171,
1652.016,412.41682,
1649.106,390.39542,
1646.195,446.95906,
1643.285,485.77213,
1640.374,475.41464,
1637.463,448.66654,
1634.553,485.14778,
1631.642,495.34745,
1628.732,527.13629,
1625.821,550.02486,
1622.911,587.78587,
1620.000,631.44566,
1617.089,643.76119,
1614.179,650.80259,
1611.268,721.28601,
1608.358,781.19061,
1605.447,799.08584,
1602.536,806.52321,
1599.626,816.19933,
1596.715,833.33682,
1593.805,831.42267,
1590.894,819.55129,
1587.984,827.52701,
1585.073,781.35426,
1582.162,756.30228,
1579.252,752.1817,
1576.341,737.58086,
1573.431,727.73461,
1570.520,731.35064,
1567.610,706.92117,
1564.699,691.47473,
1561.788,677.02828,
1558.878,693.16566,
1555.967,663.36012,
1553.057,635.34491,
1550.146,636.5309,
1547.235,616.97727,
1544.325,608.91745,
1541.414,608.51931,
1538.504,599.91718,
1535.593,609.65977,
1532.683,600.03029,
1529.772,582.05611,
1526.861,585.14877,
1523.951,586.5361,
1521.040,599.69516,
1518.130,606.35441,
1515.219,650.52138,
1512.309,591.60357,
1509.398,568.17092,
1506.487,609.72437,
1503.577,615.93906,
1500.666,626.39643,
1497.756,576.21214,
1494.845,602.03948,
1491.934,578.83307,
1489.024,527.82095,
1486.113,581.63293,
1483.203,591.32901,
1480.292,603.03065,
1477.382,605,
1474.471,573.53746,
1471.560,560.37167,
1468.650,536.45197,
1465.739,533.04539,
1462.829,544.16181,
1459.918,537.39769,
1457.008,579.27758,
1454.097,599.42188,
1451.186,565,
1448.276,561.67928,
1445.365,546.35545,
1442.455,536.93278,
1439.544,554.78288,
1436.633,512.3297,
1433.723,500.85727,
1430.812,539.56187,
1427.902,509.72159,
1424.991,540.04999,
1422.081,526.32037,
1419.170,484.38916,
1416.259,495.01132,
1413.349,507.30765,
1410.438,521.89625,
1407.528,543.09354,
1404.617,542.60595,
1401.707,496.25446,
1398.796,458.16784,
1395.885,475.25608,
1392.975,489.83274,
1390.064,478.71546,
1387.154,520.30884,
1384.243,539.96533,
1381.332,534.44667,
1378.422,528.0678,
1375.511,490.59656,
1372.601,504.74513,
1369.690,547.14668,
1366.780,513.60621,
1363.869,534.23851,
1360.958,553.9226,
1358.048,544.35383,
1355.137,543.41094,
1352.227,576.16355,
1349.316,623.10847,
1346.406,650,
1343.495,644.76828,
1340.584,635.071,
1337.674,661.17759,
1334.763,645.64715,
1331.853,636.37484,
1328.942,667.13124,
1326.032,710.96541,
1323.121,657.75899,
1320.210,686.60998,
1317.300,699.60513,
1314.389,712.58376,
1311.479,725.57287,
1308.568,721.02868,
1305.657,721.00936,
1302.747,723.07158,
1299.836,820.89434,
1296.926,813.2991,
1294.015,819.73437,
1291.105,827.04433,
1288.194,857.55349,
1285.283,835.64387,
1282.373,824,
1279.462,843.21532,
1276.552,863.64569,
1273.641,860.26905,
1270.731,865.99405,
1267.820,910.67617,
1264.909,893.04346,
1261.999,856.43411,
1259.088,840.92805,
1256.178,827.15315,
1253.267,802.75133,
1250.356,823.09015,
1247.446,826.02564,
1244.535,819.49553,
1241.625,800.21857,
1238.714,775.67043,
1235.804,798.01448,
1232.893,835.25887,
1229.982,794.20274,
1227.072,770.66463,
1224.161,811.02519,
1221.251,782.51905,
1218.340,748.6222,
1215.430,744.70749,
1212.519,751.90552,
1209.608,746.26686,
1206.698,732.9787,
1203.787,726.57286,
1200.877,712.45767,
1197.966,784.39041,
1195.055,779.46751,
1192.145,827.58866,
1189.234,973.10968,
1186.324,951.35484,
1183.413,862.6345,
1180.503,861.16473,
1177.592,883.19179,
1174.681,864.25342,
1171.771,865.44365,
1168.860,841.33024,
1165.950,817.23018,
1163.039,816.88882,
1160.129,814.28116,
1157.218,818.21104,
1154.307,839.35691,
1151.397,861.73932,
1148.486,862.34871,
1145.576,868.92067,
1142.665,844.05911,
1139.754,828.98194,
1136.844,828.10091,
1133.933,827.24048,
1131.023,801.45102,
1128.112,795.78256,
1125.202,842.24635,
1122.291,860.23718,
1119.380,826.96535,
1116.470,823.43524,
1113.559,798.25603,
1110.649,776.5934,
1107.738,785.07454,
1104.828,804.82539,
1101.917,801.75692,
1099.006,785.33994,
1096.096,831.63485,
1093.185,793.00274,
1090.275,832.08205,
1087.364,808.37998,
1084.453,813.24871,
1081.543,814.97693,
1078.632,805.46165,
1075.722,824.56418,
1072.811,826.56563,
1069.901,820.45281,
1066.990,804.6417,
1064.079,830.94261,
1061.169,839.47699,
1058.258,835,
1055.348,839.40938,
1052.437,843.93243,
1049.527,813.53706,
1046.616,827.43833,
1043.705,850.58142,
1040.795,840.39888,
1037.884,850.72377,
1034.974,853.61341,
1032.063,826.23845,
1029.153,829.80428,
1026.242,853.15811,
1023.331,855.66656,
1020.421,863.66812,
1017.510,888.29048,
1014.600,918.11083,
1011.689,934.57465,
1008.778,927.77455,
1005.868,909.10811,
1002.957,921.15307,
1000.047,940.47201,
997.136,961.68314,
994.226,976.46147,
991.315,969.82179,
988.404,938.59526,
985.494,920.8082,
982.583,912.24264,
979.673,919.04811,
976.762,906.73534,
973.852,886.71778,
970.941,883.59504,
968.030,908.65903,
965.120,935.01432,
962.209,938.42449,
959.299,932.62576,
956.388,938.39946,
953.477,925.27068,
950.567,910.59403,
947.656,950.78257,
944.746,964.37546,
941.835,949.61355,
938.925,946,
936.014,944.98835,
933.103,945.05928,
930.193,949.99635,
927.282,960.7168,
924.372,937.03981,
921.461,909.69879,
918.551,927.142,
915.640,935.37641,
912.729,912.4126,
909.819,893.11458,
906.908,924.2843,
903.998,926,
901.087,938.09362,
898.176,935.93329,
895.266,931.71318,
892.355,943.2147,
889.445,939.01837,
886.534,960.70667,
883.624,951.54336,
880.713,972.55922,
877.802,987.18868,
874.892,967.20616,
871.981,973.92243,
869.071,843.59802,
866.160,831.34939,
863.250,906.24317,
860.339,964.63039,
857.428,965.13937,
854.518,1006.7242,
851.607,962.62452,
848.697,941.93147,
845.786,904.34307,
842.875,874.3009,
839.965,895.45208,
837.054,998.24189,
834.144,1019.7895,
831.233,1035.3325,
828.323,1027.152,
825.412,1022.3369,
822.501,1044.0852,
819.591,1055.6547,
816.680,1015.9358,
813.770,1026.6746,
810.859,1009.2181,
807.949,983.47322,
805.038,1010.6018,
802.127,1007.3093,
799.217,983.14749,
796.306,971.59457,
793.396,978.34361,
790.485,983.10272,
787.574,946.68503,
784.664,964.7275,
781.753,1000.2072,
778.843,1007.6686,
775.932,999.30864,
773.022,1006.9739,
770.111,1051.9407,
767.200,1027.5928,
764.290,1007.4424,
761.379,987.57784,
758.469,980.67261,
755.558,1021.6808,
752.648,1044.4897,
749.737,1035.9442,
746.826,1035.9933,
743.916,1045.9546,
741.005,1063.2885,
738.095,1172.08,
735.184,1200.0163,
732.274,1133.4262,
729.363,1046.8175,
726.452,1002.0764,
723.542,985.88858,
720.631,1011.7589,
717.721,1006.2517,
714.810,1010.4658,
711.899,1033.4356,
708.989,1031.0149,
706.078,1058.2443,
703.168,1049.2123,
700.257,1022.9097,
697.347,1010.6511,
694.436,1047.7561,
691.525,1001.9393,
688.615,1022.8166,
685.704,1045.3169,
682.794,1049.3617,
679.883,1044.1442,
676.973,1047.3497,
674.062,1050.5523,
671.151,1051.5617,
668.241,1056.2415,
665.330,1071.6764,
662.420,1043.7208,
659.509,1053.2383,
656.598,1078.8772,
653.688,1095.479,
650.777,1077,
647.867,1077,
644.956,1087.5256,
642.046,1060.8321,
639.135,1016.3057,
636.224,1025.0716,
633.314,1039.3625,
630.403,1061.3275,
627.493,1071.6956,
624.582,1066.5874,
621.672,1060.2515,
618.761,1080.5184,
615.850,1100.7747,
612.940,1128.0521,
610.029,1156.7641,
607.119,1143.3404,
604.208,1154.7802,
601.297,1167.4778,
598.387,1161.5283,
595.476,1126.2173,
592.566,1107.3277,
589.655,1137.6903,
586.745,1148.1886,
583.834,1146.3442,
580.923,1176.1516,
578.013,1201.2631,
575.102,1183.3357,
572.192,1170.7166,
569.281,1180.1564,
566.371,1175.4607,
563.460,1166.5344,
560.549,1170.7965,
557.639,1189.474,
554.728,1217.3102,
551.818,1206.3858,
548.907,1183.8894,
545.996,1186.9404,
543.086,1202.9408,
540.175,1160.8939,
537.265,1196.3868,
534.354,1186.4172,
531.444,1156.4268,
528.533,1143.3796,
525.622,1162.7782,
522.712,1183.3823,
519.801,1176.8154,
516.891,1150.8781,
513.980,1160.1696,
511.070,1159.5913,
508.159,1171.4167,
505.248,1189.7569,
502.338,1203.887,
499.427,1200.0279,
496.517,1213.7071,
493.606,1231.0569,
490.695,1238.3997,
487.785,1205.2987,
484.874,1216.8018,
481.964,1208.5583,
479.053,1188.0449,
476.143,1204.9401,
473.232,1168.591,
470.321,1174.9228,
467.411,1192.4413,
464.500,1179.1164,
461.590,1183.7108,
458.679,1192.1538,
455.769,1207.767,
452.858,1228.8409,
449.947,1227.3131,
447.037,1200.3025,
444.126,1200.0061,
441.216,1228.3386,
438.305,1224.5289,
435.395,1239.0796,
432.484,1236.9979,
429.573,1213.4149,
426.663,1172.3673,
423.752,1159.9336,
420.842,1133.1657,
417.931,1068.7239,
415.020,937.52795,
412.110,997.38196,
409.199,1121.7334,
406.289,1230.6897,
403.378,1241.9641,
400.468,1231.3802,
397.557,1208.4623,
394.646,1210.2009,
391.736,1264.9276,
388.825,1262.6649,
385.915,1305.1077,
383.004,1319.5854,
380.094,1260.3858,
377.183,1248.3462,
374.272,1269.4251,
371.362,1305.305,
368.451,1337.4865,
365.541,1263.1834,
362.630,1261.5722,
359.719,1263.3855,
356.809,1231.7249,
353.898,1243.7057,
350.988,1256.7648,
348.077,1264.7096,
345.167,1264.5298,
342.256,1274.9887,
339.345,1260.4627,
336.435,1263.3211,
333.524,1309.4028,
330.614,1258.7322,
327.703,1275.8579,
324.793,1311.3825,
321.882,1324.0054,
318.971,1326.2357,
316.061,1321.1402,
313.150,1315.4619,
310.240,1316.9461,
307.329,1377.7441,
304.418,1403.3679,
301.508,1413.6646,
298.597,1446.243,
295.687,1458.4814,
292.776,1493.0002,
289.866,1531.5748,
286.955,1515.3228,
284.044,1530.71,
281.134,1556.9224,
278.223,1578.9343,
275.313,1544.3021,
272.402,1557.3316,
269.492,1603.6853,
266.581,1668.1113,
263.670,1613.7079,
260.760,1622.0296,
257.849,1653.2386,
254.939,1679.6584,
252.028,1677.1046,
249.117,1676.4568,
246.207,1673.78,
243.296,1661.3354,
240.386,1661.959,
237.475,1671.0679,
234.565,1681.2392,
231.654,1663.71,
228.743,1666.329,
225.833,1659.109,
222.922,1630.1314,
220.012,1590.0609,
217.101,1612.8223,
214.191,1645.6288,
211.280,1631.0795,
208.369,1573.4837,
205.459,1553.5858,
202.548,1566.6295,
199.638,1576.063,
196.727,1554.3751,
193.816,1540.0102,
190.906,1544.3335,
187.995,1468.311,
185.085,1479.3556,
182.174,1506.3087,
179.264,1452.1013,
176.353,1456.8932,
173.442,1463,
170.532,1458.0436,
167.621,1415.506,
164.711,1377.7216,
161.800,1320.8218,
158.890,1223.6586,
155.979,1113.5544,
153.068,1029.8862,
150.158,951.37186,
147.247,794.85826,
144.337,660.7402,
141.426,518.50794,
138.516,352.90606,
135.605,246.22452,
132.694,169.09478,
129.784,114.63782,
126.873,71.730025,
123.963,51.049527,
121.052,33.784613,
118.141,13.081455,
115.231,16.552852,
112.320,19.270908,
109.410,20.454579,
106.499,17.605958,
103.589,9.1564373,
100.678,2.4567566,
97.767,1.0348814,
94.857,4.4649452,
91.946,6.8062217,
89.036,7.8871021,
86.125,7.1778968,
83.215,9.1236814,
80.304,7.4085097,
77.393,-3.2140393,
74.483,1.8962146,
71.572,5.7247042,
68.662,6.307325,
65.751,-0.75718577,
62.840,2.2987218,
59.930,6.6889966,
57.019,1.7534227,
54.109,-0.79148254,
51.198,-1.3967814,
48.288,0.016987325,
45.377,2.1271215,
42.466,1.763342,
39.556,-0.11511858,
36.645,-0.81730879,
33.735,2.6347393,
30.824,4.4537912,
27.914,-0.45443553,
25.003,-1,
22.092,-0.35419088,
19.182,1.4347744,
16.271,14.725087,
13.361,69.732041,
10.450,144.85082,
7.539,184.65479,
4.629,3.4434343,
1.718,-276.49402,
-1.192,-604.15195,
-4.103,-597.99411,
-7.013,-394.01127,
-9.924,2,
