,PLE826~1,
Raman shift [1/cm],Intensity,
3014.167,-2.75,
3011.256,-1.0500644,
3008.346,98.446509,
3005.435,98.638698,
3002.525,126.96756,
2999.614,108.38897,
2996.704,108.43557,
2993.793,127.37385,
2990.882,130.50953,
2987.972,124.31054,
2985.061,130.0431,
2982.151,138.10211,
2979.240,145.41539,
2976.329,158.26092,
2973.419,140.04948,
2970.508,164.94998,
2967.598,175.34197,
2964.687,162.5034,
2961.777,166.43802,
2958.866,176.91271,
2955.955,177.69691,
2953.045,182.88311,
2950.134,188.52698,
2947.224,200.10766,
2944.313,195.25,
2941.403,209.15511,
2938.492,200.28254,
2935.581,203.27702,
2932.671,212.64913,
2929.760,215.73463,
2926.850,208.03384,
2923.939,238.64718,
2921.028,223.59093,
2918.118,220.69081,
2915.207,234.31338,
2912.297,238.25423,
2909.386,225.25,
2906.476,226.05618,
2903.565,224.50778,
2900.654,229.25,
2897.744,217.16199,
2894.833,214.37363,
2891.923,222.6827,
2889.012,213.41763,
2886.102,215.08243,
2883.191,218.25,
2880.280,201.30262,
2877.370,172.61631,
2874.459,165.25,
2871.549,187.88186,
2868.638,220.52421,
2865.727,220.80002,
2862.817,218.80748,
2859.906,226.27564,
2856.996,237.73415,
2854.085,247.41178,
2851.175,231.29818,
2848.264,222.691,
2845.353,215.63821,
2842.443,228.05905,
2839.532,218.69777,
2836.622,197.28385,
2833.711,223.19036,
2830.801,203.37279,
2827.890,236.14686,
2824.979,229.69408,
2822.069,221.3296,
2819.158,230.15027,
2816.248,242.21526,
2813.337,226.29145,
2810.427,235.55855,
2807.516,246.76781,
2804.605,251.0024,
2801.695,237.72367,
2798.784,255.54977,
2795.874,238.54553,
2792.963,229.25,
2790.052,258.24378,
2787.142,241.27623,
2784.231,237.92701,
2781.321,229.82151,
2778.410,244.95052,
2775.500,242.44034,
2772.589,237.78975,
2769.678,253.07255,
2766.768,242.56844,
2763.857,248.98796,
2760.947,254.72794,
2758.036,231.76581,
2755.126,258.39743,
2752.215,258.48197,
2749.304,258.78239,
2746.394,256.46169,
2743.483,261.64998,
2740.573,240.40918,
2737.662,258.57988,
2734.751,256.80824,
2731.841,252.79029,
2728.930,261.80086,
2726.020,254.68866,
2723.109,261.77558,
2720.199,253.34677,
2717.288,267.16241,
2714.377,256.67098,
2711.467,254.84011,
2708.556,268.19653,
2705.646,268.9542,
2702.735,268.25516,
2699.825,270.80454,
2696.914,276.34547,
2694.003,278.30528,
2691.093,283.32101,
2688.182,282.94185,
2685.272,275.56863,
2682.361,274.12664,
2679.450,263.41874,
2676.540,274.04676,
2673.629,268.89571,
2670.719,279.53466,
2667.808,272.63908,
2664.898,264.80836,
2661.987,289.08372,
2659.076,292.03018,
2656.166,292.89503,
2653.255,295.10034,
2650.345,288.27359,
2647.434,282.53608,
2644.524,293.93344,
2641.613,287.50707,
2638.702,278.37625,
2635.792,286.96884,
2632.881,300.10691,
2629.971,304.14258,
2627.060,288.58313,
2624.149,294.84374,
2621.239,293.48666,
2618.328,300.03806,
2615.418,300.22728,
2612.507,300.32118,
2609.597,309.68912,
2606.686,312.2239,
2603.775,312.40873,
2600.865,318.95311,
2597.954,325.95632,
2595.044,299.91962,
2592.133,310.25648,
2589.223,321.7079,
2586.312,323.44597,
2583.401,322.5164,
2580.491,316.42788,
2577.580,353.20049,
2574.670,319.65242,
2571.759,320.70975,
2568.848,330.07321,
2565.938,326.48801,
2563.027,334.59093,
2560.117,323.16588,
2557.206,336.52306,
2554.296,339.39188,
2551.385,332.18397,
2548.474,335.99089,
2545.564,333.43993,
2542.653,349.61913,
2539.743,342.64526,
2536.832,360.31169,
2533.922,350.48654,
2531.011,361.40033,
2528.100,354.44862,
2525.190,340.64795,
2522.279,342.67208,
2519.369,353.06121,
2516.458,353.91431,
2513.548,352.86816,
2510.637,344.31148,
2507.726,348.06042,
2504.816,348.06172,
2501.905,353.80061,
2498.995,353.95141,
2496.084,353.23609,
2493.173,353.40761,
2490.263,360.60934,
2487.352,367.33347,
2484.442,369.81959,
2481.531,367.03728,
2478.621,366.3211,
2475.710,372.30367,
2472.799,380.23654,
2469.889,374.03946,
2466.978,373.63135,
2464.068,352.35044,
2461.157,375.09503,
2458.247,384.32369,
2455.336,376.87032,
2452.425,378.40568,
2449.515,393.32483,
2446.604,374.0633,
2443.694,396.06416,
2440.783,384.86599,
2437.872,374.76051,
2434.962,389.56336,
2432.051,391.78701,
2429.141,399.50282,
2426.230,413.5329,
2423.320,424.12221,
2420.409,402.21774,
2417.498,405.89043,
2414.588,408.5123,
2411.677,422.07071,
2408.767,414.21457,
2405.856,402.43573,
2402.946,408.83356,
2400.035,419.54343,
2397.124,415.38368,
2394.214,428.0328,
2391.303,411.74729,
2388.393,422.41981,
2385.482,418.69062,
2382.571,441.97217,
2379.661,423.22669,
2376.750,423.04067,
2373.840,444.34989,
2370.929,433.44493,
2368.019,444.47907,
2365.108,440.45942,
2362.197,439.84726,
2359.287,453.82159,
2356.376,451.26057,
2353.466,442.44691,
2350.555,441.27493,
2347.645,442.98642,
2344.734,450.1901,
2341.823,433.5485,
2338.913,440.93362,
2336.002,462.42947,
2333.092,461.0085,
2330.181,457.19632,
2327.270,440.07508,
2324.360,464.38443,
2321.449,463.63435,
2318.539,458.71789,
2315.628,471.89629,
2312.718,479.13326,
2309.807,477.59157,
2306.896,479.22652,
2303.986,472.42534,
2301.075,471.54789,
2298.165,472.44237,
2295.254,476.18537,
2292.344,484.82673,
2289.433,487.53954,
2286.522,486.00438,
2283.612,497.32016,
2280.701,488.72984,
2277.791,473.81105,
2274.880,489.81795,
2271.969,500.02366,
2269.059,499.01566,
2266.148,524.24332,
2263.238,509.96044,
2260.327,513.49155,
2257.417,526.92889,
2254.506,514.2272,
2251.595,518.67177,
2248.685,508.04621,
2245.774,501.34892,
2242.864,517.15772,
2239.953,528.42934,
2237.043,530.82213,
2234.132,529.38254,
2231.221,533.59375,
2228.311,535.03093,
2225.400,549.08113,
2222.490,543.80702,
2219.579,549.66904,
2216.669,567.69515,
2213.758,567.50881,
2210.847,573.34066,
2207.937,582.00569,
2205.026,570.91647,
2202.116,584.90285,
2199.205,608.83753,
2196.294,607.688,
2193.384,600.85549,
2190.473,629.13733,
2187.563,633.25483,
2184.652,635.75612,
2181.742,649.27335,
2178.831,665.64691,
2175.920,682.90757,
2173.010,722.42744,
2170.099,715.18551,
2167.189,736.21412,
2164.278,736.53241,
2161.368,782.39103,
2158.457,812.20109,
2155.546,810.21925,
2152.636,831.18613,
2149.725,861.38421,
2146.815,894.2823,
2143.904,904.45074,
2140.993,903.22358,
2138.083,897.62688,
2135.172,909.71221,
2132.262,926.14173,
2129.351,899.26704,
2126.441,871.46354,
2123.530,862.30612,
2120.619,858.85586,
2117.709,797.812,
2114.798,770.36534,
2111.888,739.1386,
2108.977,708.89238,
2106.067,687.80731,
2103.156,684.00967,
2100.245,646.26631,
2097.335,667.55367,
2094.424,632.2926,
2091.514,635.32801,
2088.603,642.45278,
2085.692,635.8857,
2082.782,612.33849,
2079.871,613.92911,
2076.961,637.76471,
2074.050,601.31667,
2071.140,623.05453,
2068.229,630.24348,
2065.318,636.33625,
2062.408,633.74244,
2059.497,637.25596,
2056.587,626.48276,
2053.676,617.98353,
2050.766,608.94283,
2047.855,608.27848,
2044.944,608.05289,
2042.034,604.51595,
2039.123,606.68771,
2036.213,600.17007,
2033.302,613.18489,
2030.391,613.04645,
2027.481,622.20116,
2024.570,621.7215,
2021.660,608.07781,
2018.749,624.98407,
2015.839,619.86417,
2012.928,627.72147,
2010.017,616.00353,
2007.107,604.64438,
2004.196,616.67863,
2001.286,625.18641,
1998.375,590.02361,
1995.465,572.53036,
1992.554,593.16158,
1989.643,579.83758,
1986.733,584.46404,
1983.822,587.68575,
1980.912,588.34934,
1978.001,596.60621,
1975.090,582.65611,
1972.180,574.94017,
1969.269,591.89375,
1966.359,594.33089,
1963.448,598.66876,
1960.538,569.16659,
1957.627,576.40791,
1954.716,575.33618,
1951.806,563.25,
1948.895,567.45844,
1945.985,593.39052,
1943.074,585.33482,
1940.164,576.88425,
1937.253,545.95872,
1934.342,563.41256,
1931.432,563.19952,
1928.521,550.54879,
1925.611,564.22389,
1922.700,547.08978,
1919.790,552.44641,
1916.879,550.529,
1913.968,569.22664,
1911.058,537.96773,
1908.147,554.27913,
1905.237,509.39711,
1902.326,536.93148,
1899.415,531.9378,
1896.505,523.76801,
1893.594,541.59766,
1890.684,551.56387,
1887.773,542.22386,
1884.863,551.52563,
1881.952,552.25,
1879.041,560.57139,
1876.131,538.00426,
1873.220,536.60842,
1870.310,552.10199,
1867.399,526.68183,
1864.489,566.30282,
1861.578,521.14538,
1858.667,547.48953,
1855.757,535.65573,
1852.846,539.55253,
1849.936,566.01777,
1847.025,556.25,
1844.114,557.85942,
1841.204,579.19405,
1838.293,581.78409,
1835.383,568.35449,
1832.472,587.29696,
1829.562,571.97552,
1826.651,546.62578,
1823.740,555.80941,
1820.830,577.45487,
1817.919,593.65127,
1815.009,602.24364,
1812.098,587.99017,
1809.188,616.26543,
1806.277,612.38279,
1803.366,553.91545,
1800.456,593.30496,
1797.545,592.03735,
1794.635,574.50707,
1791.724,605.06551,
1788.813,619.05617,
1785.903,628.63573,
1782.992,592.42137,
1780.082,573.82728,
1777.171,562.25054,
1774.261,570.82013,
1771.350,583.0415,
1768.439,591.05946,
1765.529,610.70651,
1762.618,616.00311,
1759.708,600.58688,
1756.797,634.66667,
1753.887,633.01677,
1750.976,628.42604,
1748.065,650.16551,
1745.155,633.45014,
1742.244,620.26359,
1739.334,604.18648,
1736.423,620.56586,
1733.512,646.25818,
1730.602,678.43059,
1727.691,677.27041,
1724.781,664.0245,
1721.870,679.75963,
1718.960,653.00518,
1716.049,678.97001,
1713.138,679.26503,
1710.228,686.95297,
1707.317,676.75057,
1704.407,703.99871,
1701.496,656.20332,
1698.586,678.04555,
1695.675,725.16401,
1692.764,702.68851,
1689.854,728.99411,
1686.943,776.63117,
1684.033,731.44214,
1681.122,780.38339,
1678.211,800.06917,
1675.301,763.36409,
1672.390,789.2829,
1669.480,800.63505,
1666.569,848.07226,
1663.659,834.52765,
1660.748,852.29122,
1657.837,904.61578,
1654.927,878.17119,
1652.016,957.44813,
1649.106,925.69066,
1646.195,943.77748,
1643.285,967.30079,
1640.374,1054.7901,
1637.463,1034.2588,
1634.553,1090.0037,
1631.642,1140.2174,
1628.732,1137.9077,
1625.821,1248.252,
1622.911,1251.2331,
1620.000,1346.0405,
1617.089,1419.7774,
1614.179,1521.3453,
1611.268,1625.3463,
1608.358,1667.3771,
1605.447,1712.6218,
1602.536,1742.2747,
1599.626,1739.6503,
1596.715,1701.1308,
1593.805,1720.5026,
1590.894,1677.4552,
1587.984,1639.2046,
1585.073,1638.5041,
1582.162,1553.2567,
1579.252,1510.8827,
1576.341,1558.9212,
1573.431,1537.0072,
1570.520,1557.8251,
1567.610,1532.975,
1564.699,1488.6237,
1561.788,1443.1517,
1558.878,1409.4499,
1555.967,1394.304,
1553.057,1381.0432,
1550.146,1378.9373,
1547.235,1336.9755,
1544.325,1311.9053,
1541.414,1260.6241,
1538.504,1239.4539,
1535.593,1276.9098,
1532.683,1285.1967,
1529.772,1262.4315,
1526.861,1214.9033,
1523.951,1172.0319,
1521.040,1151.9452,
1518.130,1135.2354,
1515.219,1158.8491,
1512.309,1177.1283,
1509.398,1138.3317,
1506.487,1149.4471,
1503.577,1132.9848,
1500.666,1137.8096,
1497.756,1138.5122,
1494.845,1094.4907,
1491.934,1124.2689,
1489.024,1130.0439,
1486.113,1103.3607,
1483.203,1097.6973,
1480.292,1042.9453,
1477.382,1086.5944,
1474.471,1076.2286,
1471.560,1069.9757,
1468.650,1053.1682,
1465.739,1021.5519,
1462.829,1002.2818,
1459.918,1007.0899,
1457.008,1001.5575,
1454.097,1000.804,
1451.186,1017.9927,
1448.276,1017.3465,
1445.365,1005.6426,
1442.455,1014.8227,
1439.544,1035.4625,
1436.633,984.6085,
1433.723,958.11029,
1430.812,989.2947,
1427.902,952.18235,
1424.991,949.33906,
1422.081,901.54119,
1419.170,913.66715,
1416.259,886.27767,
1413.349,923.80922,
1410.438,909.55903,
1407.528,888.23762,
1404.617,897.92821,
1401.707,873.27393,
1398.796,846.97027,
1395.885,838.60815,
1392.975,801.18675,
1390.064,750.00283,
1387.154,691.06205,
1384.243,630.55836,
1381.332,586.99658,
1378.422,655.9644,
1375.511,786.17695,
1372.601,826.03438,
1369.690,870.39668,
1366.780,901.80309,
1363.869,969.27407,
1360.958,951.31659,
1358.048,985.428,
1355.137,1032.1866,
1352.227,1077.7666,
1349.316,1116.8064,
1346.406,1116.8714,
1343.495,1164.8964,
1340.584,1249.786,
1337.674,1230.0004,
1334.763,1237.1321,
1331.853,1260.3129,
1328.942,1270.1446,
1326.032,1341.3934,
1323.121,1366.1416,
1320.210,1329.9607,
1317.300,1390.5216,
1314.389,1446.7639,
1311.479,1445.0656,
1308.568,1439.0173,
1305.657,1440.2739,
1302.747,1448.9493,
1299.836,1422.8152,
1296.926,1500.8565,
1294.015,1556.9352,
1291.105,1654.3485,
1288.194,1759.9042,
1285.283,1799.0021,
1282.373,1825.4999,
1279.462,1869.0925,
1276.552,1899.4311,
1273.641,1909.9441,
1270.731,1910.1351,
1267.820,1879.525,
1264.909,1851.9319,
1261.999,1893.8159,
1259.088,1909.322,
1256.178,1881.9869,
1253.267,1784.4193,
1250.356,1767.7633,
1247.446,1770.9031,
1244.535,1726.634,
1241.625,1664.6797,
1238.714,1630.4,
1235.804,1624.8616,
1232.893,1647.2685,
1229.982,1562.1768,
1227.072,1530.4908,
1224.161,1497.9919,
1221.251,1428.9667,
1218.340,1392.3503,
1215.430,1390.8564,
1212.519,1405.7579,
1209.608,1421.5025,
1206.698,1427.9734,
1203.787,1429.0792,
1200.877,1456.8102,
1197.966,1481.9866,
1195.055,1524.2059,
1192.145,1539.5148,
1189.234,1593.5046,
1186.324,1665.9816,
1183.413,1690.0013,
1180.503,1675.948,
1177.592,1670.7952,
1174.681,1631.9418,
1171.771,1602.3942,
1168.860,1608.6459,
1165.950,1600.3808,
1163.039,1557.0442,
1160.129,1564.6138,
1157.218,1601.9602,
1154.307,1620.6528,
1151.397,1611.5578,
1148.486,1593.005,
1145.576,1563.8282,
1142.665,1577.1469,
1139.754,1566.0456,
1136.844,1536.6385,
1133.933,1520.558,
1131.023,1512.529,
1128.112,1510.8209,
1125.202,1511.2114,
1122.291,1498.2662,
1119.380,1540.0248,
1116.470,1517.0791,
1113.559,1497.2385,
1110.649,1496.8339,
1107.738,1499.25,
1104.828,1502.5788,
1101.917,1522.0435,
1099.006,1545.8585,
1096.096,1491.7125,
1093.185,1482.9324,
1090.275,1526.7599,
1087.364,1542.739,
1084.453,1542.4377,
1081.543,1554.2731,
1078.632,1552.5062,
1075.722,1516.9605,
1072.811,1551.1187,
1069.901,1563.3444,
1066.990,1569.1,
1064.079,1585.2213,
1061.169,1602.7437,
1058.258,1601.5098,
1055.348,1590.8956,
1052.437,1597.086,
1049.527,1596.5521,
1046.616,1604.3716,
1043.705,1628.373,
1040.795,1637.1655,
1037.884,1658.4795,
1034.974,1670.0567,
1032.063,1652.1963,
1029.153,1640.9118,
1026.242,1654.7511,
1023.331,1652.7502,
1020.421,1666.192,
1017.510,1676.7322,
1014.600,1694.2067,
1011.689,1716.1007,
1008.778,1728.528,
1005.868,1759.7828,
1002.957,1819.1473,
1000.047,1869.018,
997.136,1895.4092,
994.226,1904.1423,
991.315,1886.9827,
988.404,1846.7092,
985.494,1853.0417,
982.583,1799.0786,
979.673,1794.1766,
976.762,1808.1662,
973.852,1811.0619,
970.941,1816.8835,
968.030,1847.1459,
965.120,1835.0459,
962.209,1786.451,
959.299,1820.745,
956.388,1825.9308,
953.477,1826.1147,
950.567,1844.6942,
947.656,1857.5842,
944.746,1860.1329,
941.835,1847.293,
938.925,1821.8763,
936.014,1832.0005,
933.103,1840.8917,
930.193,1814.2549,
927.282,1797.975,
924.372,1792.9014,
921.461,1751.748,
918.551,1757.0017,
915.640,1756.377,
912.729,1733.5664,
909.819,1724.0259,
906.908,1707.1774,
903.998,1722.1573,
901.087,1740.8896,
898.176,1747.8184,
895.266,1755.772,
892.355,1785.0453,
889.445,1832.0443,
886.534,1804.6992,
883.624,1810.6881,
880.713,1815.2293,
877.802,1815.6396,
874.892,1809.9769,
871.981,1773.3881,
869.071,1779.236,
866.160,1771.9705,
863.250,1775.0646,
860.339,1788.0515,
857.428,1796.2325,
854.518,1779.2259,
851.607,1778.3939,
848.697,1746.6104,
845.786,1738.9966,
842.875,1753.6392,
839.965,1773.5608,
837.054,1793.0825,
834.144,1778.165,
831.233,1813.2473,
828.323,1811.9726,
825.412,1793.5037,
822.501,1792.4413,
819.591,1760.2118,
816.680,1760.8526,
813.770,1763.756,
810.859,1760.7376,
807.949,1738.7133,
805.038,1699.3319,
802.127,1733.0801,
799.217,1703.4528,
796.306,1708.7096,
793.396,1716.9675,
790.485,1709.4077,
787.574,1706.2811,
784.664,1707.1012,
781.753,1700.5402,
778.843,1713.4227,
775.932,1732.4105,
773.022,1738.0108,
770.111,1742.9163,
767.200,1728.7851,
764.290,1735.8076,
761.379,1734.7972,
758.469,1715.8554,
755.558,1698.8124,
752.648,1684.1495,
749.737,1657.7496,
746.826,1586.0399,
743.916,1469.6649,
741.005,1317.1053,
738.095,1076.7898,
735.184,794.40381,
732.274,731.11461,
729.363,907.13925,
726.452,1239.4354,
723.542,1528.3888,
720.631,1608.4713,
717.721,1674.6505,
714.810,1718.0056,
711.899,1719.8341,
708.989,1666.5771,
706.078,1701.5073,
703.168,1714.5005,
700.257,1698.2717,
697.347,1667.7721,
694.436,1654.8136,
691.525,1638.7375,
688.615,1679.2738,
685.704,1701.3648,
682.794,1688.5267,
679.883,1664.043,
676.973,1681.6731,
674.062,1678.8692,
671.151,1691.0299,
668.241,1702.9113,
665.330,1678.519,
662.420,1726.4429,
659.509,1722.2815,
656.598,1738.484,
653.688,1763.1187,
650.777,1739.682,
647.867,1752.4233,
644.956,1730.484,
642.046,1698.6661,
639.135,1685.5208,
636.224,1724.067,
633.314,1687.5458,
630.403,1726.7293,
627.493,1740.6622,
624.582,1715.2534,
621.672,1742.1812,
618.761,1751.6093,
615.850,1740.4753,
612.940,1731.6407,
610.029,1738.8805,
607.119,1754.6731,
604.208,1778.9704,
601.297,1782.7663,
598.387,1768.651,
595.476,1741.0106,
592.566,1674.8968,
589.655,1727.3911,
586.745,1728.4005,
583.834,1686.6654,
580.923,1694.9135,
578.013,1639.1974,
575.102,1631.7066,
572.192,1659.4016,
569.281,1708.6702,
566.371,1761.106,
563.460,1742.2641,
560.549,1765.8722,
557.639,1808.5012,
554.728,1827.9051,
551.818,1822.4429,
548.907,1815.1559,
545.996,1802.3078,
543.086,1797.3092,
540.175,1839.3561,
537.265,1847.32,
534.354,1852.2601,
531.444,1854.6927,
528.533,1851.6497,
525.622,1829.1472,
522.712,1814.5419,
519.801,1828.4896,
516.891,1872.0488,
513.980,1925.4753,
511.070,1899.9631,
508.159,1891.5481,
505.248,1911.2717,
502.338,1955.753,
499.427,1938.7727,
496.517,1954.6136,
493.606,1965.2026,
490.695,1958.3525,
487.785,1980.6765,
484.874,2008.1603,
481.964,2021.6653,
479.053,2016.7343,
476.143,1993.6954,
473.232,2005.1993,
470.321,1983.4883,
467.411,1960.8217,
464.500,1976.9397,
461.590,1964.6879,
458.679,1988.7647,
455.769,2011.5651,
452.858,2011.6933,
449.947,2006.3457,
447.037,1990.081,
444.126,1977.6621,
441.216,1972.7208,
438.305,1969.6731,
435.395,1979.0845,
432.484,1982.583,
429.573,1983.2675,
426.663,1996.1899,
423.752,1960.9842,
420.842,1923.7858,
417.931,1906.4378,
415.020,1935.2554,
412.110,2026.2384,
409.199,2041.6461,
406.289,2025.4638,
403.378,2032.1501,
400.468,2002.6663,
397.557,2000.9622,
394.646,1997.2068,
391.736,1964.7872,
388.825,1887.8556,
385.915,1808.3053,
383.004,1784.52,
380.094,1853.1292,
377.183,1909.5649,
374.272,2015.3516,
371.362,2092.133,
368.451,2096.6663,
365.541,2136.4447,
362.630,2146.1575,
359.719,2159.1605,
356.809,2192.0688,
353.898,2189.0736,
350.988,2171.9754,
348.077,2140.8255,
345.167,2102.4504,
342.256,2185.375,
339.345,2184.2727,
336.435,2168.9122,
333.524,2186.0621,
330.614,2180.1009,
327.703,2186.4645,
324.793,2196.5701,
321.882,2203.1653,
318.971,2168.2235,
316.061,2191.8969,
313.150,2224.631,
310.240,2209.7886,
307.329,2255.7014,
304.418,2249.6285,
301.508,2191.3022,
298.597,2082.461,
295.687,2016.3618,
292.776,2023.0002,
289.866,2115.4002,
286.955,2329.6306,
284.044,2493.7074,
281.134,2638.6424,
278.223,2760.5791,
275.313,2810.6853,
272.402,2899.091,
269.492,2982.4993,
266.581,3044.2979,
263.670,3086.9384,
260.760,3108.6529,
257.849,3150.6115,
254.939,3246.0163,
252.028,3220.4677,
249.117,3198.3725,
246.207,3181.7877,
243.296,3172.2712,
240.386,3181.6979,
237.475,3153.0574,
234.565,3093.5336,
231.654,3063.5879,
228.743,3041.7151,
225.833,2997.0163,
222.922,2919.8231,
220.012,2889.2238,
217.101,2884.6479,
214.191,2878.8849,
211.280,2841.0568,
208.369,2838.9228,
205.459,2824.877,
202.548,2805.757,
199.638,2820.27,
196.727,2820.9451,
193.816,2804.1989,
190.906,2768.4374,
187.995,2745.2686,
185.085,2757.5828,
182.174,2784.5594,
179.264,2800.4603,
176.353,2756.1139,
173.442,2728.4372,
170.532,2722.8978,
167.621,2702.7105,
164.711,2682.0085,
161.800,2620.5717,
158.890,2480.9445,
155.979,2341.4159,
153.068,2135.3552,
150.158,1882.7736,
147.247,1656.6186,
144.337,1375.945,
141.426,1089.9036,
138.516,820.35251,
135.605,578.67341,
132.694,392.09644,
129.784,257.0587,
126.873,179.10955,
123.963,122.84602,
121.052,80.918431,
118.141,52.362351,
115.231,54.381711,
112.320,46.777281,
109.410,34.431868,
106.499,30.158937,
103.589,24.767964,
100.678,19.891891,
97.767,16.337204,
94.857,21.793912,
91.946,25.862443,
89.036,26.556531,
86.125,15.918452,
83.215,14.311841,
80.304,15.25,
77.393,15.25,
74.483,11.31919,
71.572,10.699408,
68.662,12.69586,
65.751,7.0442514,
62.840,5.25,
59.930,5.8118586,
57.019,7.9271046,
54.109,13.624448,
51.198,16.345172,
48.288,14.233013,
45.377,12.122878,
42.466,8.3644646,
39.556,4.8255929,
36.645,8.336544,
33.735,17.038727,
30.824,23.366452,
27.914,20.561751,
25.003,28.344287,
22.092,34.218714,
19.182,37.233963,
16.271,67.312039,
13.361,271.43484,
10.450,723.10659,
7.539,1814.5735,
4.629,2777.2173,
1.718,3280.2558,
-1.192,2846.6319,
-4.103,1763.0732,
-7.013,765.12941,
-9.924,0.25,
