,PLEED5~1,
Raman shift [1/cm],Intensity,
3014.167,-0.5,
3011.256,-1.3500752,
3008.346,126.56653,
3005.435,148.34806,
3002.525,161.46253,
2999.614,159.73766,
2996.704,165.2701,
2993.793,179.64228,
2990.882,169.88929,
2987.972,171.66144,
2985.061,201.28325,
2982.151,203.78404,
2979.240,206.23384,
2976.329,207.25683,
2973.419,209.89974,
2970.508,229.13329,
2967.598,233.30884,
2964.687,224.72419,
2961.777,215.87603,
2958.866,255.16271,
2955.955,246.84073,
2953.045,252.35237,
2950.134,267.68075,
2947.224,263.69928,
2944.313,273.19658,
2941.403,282.58348,
2938.492,281.21274,
2935.581,295.29015,
2932.671,302.45706,
2929.760,289.63846,
2926.850,302.87293,
2923.939,305.53736,
2921.028,299.85868,
2918.118,307.02141,
2915.207,304.96186,
2912.297,319.39845,
2909.386,314.28832,
2906.476,313.53089,
2903.565,308.01555,
2900.654,310.77099,
2897.744,307.26113,
2894.833,294.27309,
2891.923,304.9327,
2889.012,306.78902,
2886.102,305.23109,
2883.191,292.50566,
2880.280,280.76793,
2877.370,217.90129,
2874.459,232.78937,
2871.549,266.13186,
2868.638,305.45668,
2865.727,324.39233,
2862.817,318.68583,
2859.906,316.70228,
2856.996,302.53623,
2854.085,334.99167,
2851.175,324.71386,
2848.264,320.5735,
2845.353,324.47843,
2842.443,316.31253,
2839.532,303.17166,
2836.622,306.34831,
2833.711,314.44036,
2830.801,316.20515,
2827.890,335.53843,
2824.979,323.35197,
2822.069,324.72744,
2819.158,335.75875,
2816.248,327.47684,
2813.337,348.21099,
2810.427,323.93388,
2807.516,320.44969,
2804.605,343.37018,
2801.695,329.11844,
2798.784,347.61292,
2795.874,336.21504,
2792.963,333.57138,
2790.052,333.49979,
2787.142,337.72365,
2784.231,328.82299,
2781.321,326.4429,
2778.410,341.74492,
2775.500,341.96828,
2772.589,339.84633,
2769.678,349.92659,
2766.768,355.25339,
2763.857,339.97592,
2760.947,361.01576,
2758.036,346.55722,
2755.126,347.8312,
2752.215,355.09547,
2749.304,357.3723,
2746.394,365.8286,
2743.483,379.44998,
2740.573,355.99767,
2737.662,373.27663,
2734.751,358.5439,
2731.841,359.98718,
2728.930,388.13144,
2726.020,375.38773,
2723.109,392.23166,
2720.199,375.94991,
2717.288,389.0438,
2714.377,398.2082,
2711.467,378.45055,
2708.556,387.37242,
2705.646,382.80985,
2702.735,396.99742,
2699.825,394.5,
2696.914,400.97637,
2694.003,392.73901,
2691.093,407.21362,
2688.182,400.95556,
2685.272,380.70342,
2682.361,384.11136,
2679.450,397.12965,
2676.540,396.62194,
2673.629,400.17714,
2670.719,395.5,
2667.808,405.01364,
2664.898,410.98055,
2661.987,404.96658,
2659.076,415.46551,
2656.166,424.04972,
2653.255,433.28061,
2650.345,419.22777,
2647.434,429.70034,
2644.524,434.77814,
2641.613,430.72879,
2638.702,429.57891,
2635.792,431.78116,
2632.881,424.99417,
2629.971,437.82226,
2627.060,428.49813,
2624.149,442.58125,
2621.239,442.25148,
2618.328,445.54239,
2615.418,448.15909,
2612.507,451.5,
2609.597,459.67365,
2606.686,433.92774,
2603.775,457.61905,
2600.865,474.3772,
2597.954,456.35626,
2595.044,452.83924,
2592.133,465.56384,
2589.223,466.47578,
2586.312,465.03767,
2583.401,471.60219,
2580.491,477.03364,
2577.580,476.52641,
2574.670,489.73263,
2571.759,473.14127,
2568.848,469.61604,
2565.938,469.54755,
2563.027,479.86591,
2560.117,476.68691,
2557.206,496.19741,
2554.296,486.47025,
2551.385,487.63206,
2548.474,488.46282,
2545.564,504.86689,
2542.653,487.34228,
2539.743,487.94455,
2536.832,499.29626,
2533.922,506.56308,
2531.011,512.69981,
2528.100,506.23864,
2525.190,512.89262,
2522.279,506.98412,
2519.369,503.74484,
2516.458,508.26912,
2513.548,522.77239,
2510.637,511.00814,
2507.726,506.93495,
2504.816,519.00057,
2501.905,515.19573,
2498.995,509.79859,
2496.084,516.33973,
2493.173,522.7106,
2490.263,526.09548,
2487.352,530.8772,
2484.442,554.81052,
2481.531,542.34568,
2478.621,555.40998,
2475.710,548.46933,
2472.799,544.5,
2469.889,542.07617,
2466.978,544.5515,
2464.068,544.58465,
2461.157,552.84747,
2458.247,553.38229,
2455.336,549.13797,
2452.425,559.4151,
2449.515,567.51871,
2446.604,560.14747,
2443.694,575.77965,
2440.783,569.68694,
2437.872,583.60939,
2434.962,587.02534,
2432.051,588.5,
2429.141,599.88809,
2426.230,578.32535,
2423.320,587.4574,
2420.409,588.60233,
2417.498,603.71348,
2414.588,593.9601,
2411.677,612.56768,
2408.767,590.53543,
2405.856,600.43809,
2402.946,605.60724,
2400.035,615.59156,
2397.124,601.39839,
2394.214,614.98799,
2391.303,612.95868,
2388.393,631.60008,
2385.482,620.51342,
2382.571,642.34828,
2379.661,629.05827,
2376.750,619.39407,
2373.840,626.20623,
2370.929,629.47834,
2368.019,651.11453,
2365.108,652.6623,
2362.197,653.31916,
2359.287,653.69332,
2356.376,662.48591,
2353.466,659.89383,
2350.555,657.54986,
2347.645,669.85362,
2344.734,666.73959,
2341.823,645.78191,
2338.913,669.09852,
2336.002,675.38757,
2333.092,672.93679,
2330.181,677.78132,
2327.270,682.33498,
2324.360,665.05422,
2321.449,679.56122,
2318.539,676.52141,
2315.628,687.96163,
2312.718,707.51543,
2309.807,712.74855,
2306.896,701.49217,
2303.986,702.41562,
2301.075,705.64894,
2298.165,698.11527,
2295.254,695.52154,
2292.344,710.23861,
2289.433,702.82818,
2286.522,715.87488,
2283.612,725.35969,
2280.701,741.67485,
2277.791,725.6603,
2274.880,730.56998,
2271.969,736.04733,
2269.059,759.1676,
2266.148,770.39316,
2263.238,755.0058,
2260.327,761.12077,
2257.417,761.90889,
2254.506,755.30065,
2251.595,774.64913,
2248.685,767.29039,
2245.774,787.22492,
2242.864,784.08353,
2239.953,785.44496,
2237.043,765.00678,
2234.132,782.06358,
2231.221,808.55435,
2228.311,801.58249,
2225.400,808.1904,
2222.490,799.91373,
2219.579,805.37144,
2216.669,827.84499,
2213.758,833.10389,
2210.847,837.84506,
2207.937,857.84851,
2205.026,833.72098,
2202.116,873.53077,
2199.205,896.68706,
2196.294,885.26806,
2193.384,895.07804,
2190.473,908.93193,
2187.563,900.64501,
2184.652,936.22325,
2181.742,969.68196,
2178.831,969.42217,
2175.920,987.0665,
2173.010,1013.3758,
2170.099,1041.7639,
2167.189,1053.5287,
2164.278,1065.1302,
2161.368,1112.9282,
2158.457,1141.8341,
2155.546,1173.424,
2152.636,1213.4307,
2149.725,1244.4799,
2146.815,1261.0328,
2143.904,1274.1245,
2140.993,1332.8016,
2138.083,1311.1688,
2135.172,1287.9118,
2132.262,1315.3988,
2129.351,1289.2515,
2126.441,1292.5195,
2123.530,1262.2867,
2120.619,1238.1333,
2117.709,1186.5692,
2114.798,1127.1768,
2111.888,1083.2888,
2108.977,1059.9503,
2106.067,1026.8562,
2103.156,979.42676,
2100.245,1013.4686,
2097.335,962.77749,
2094.424,960.61154,
2091.514,965.85211,
2088.603,947.5323,
2085.692,935.90893,
2082.782,924.19083,
2079.871,930.17911,
2076.961,952.14386,
2074.050,943.08182,
2071.140,951.76458,
2068.229,942.67056,
2065.318,951.52424,
2062.408,946.45461,
2059.497,942.2857,
2056.587,948.13936,
2053.676,941.06737,
2050.766,925.57773,
2047.855,918.24046,
2044.944,939.37661,
2042.034,915.81796,
2039.123,915.61785,
2036.213,917.05343,
2033.302,930.82631,
2030.391,928.8048,
2027.481,941.93896,
2024.570,944.5,
2021.660,946.38174,
2018.749,938.65196,
2015.839,944.51772,
2012.928,959.56879,
2010.017,957.08523,
2007.107,938.33738,
2004.196,950.76194,
2001.286,942.76859,
1998.375,965.98919,
1995.465,939.80983,
1992.554,924.99415,
1989.643,925.46544,
1986.733,912.26579,
1983.822,935.88257,
1980.912,893.82708,
1978.001,909.44063,
1975.090,913.09389,
1972.180,912.60373,
1969.269,929.87938,
1966.359,931.8782,
1963.448,953.72062,
1960.538,919.05546,
1957.627,916.52477,
1954.716,926.24146,
1951.806,912.54324,
1948.895,930.20449,
1945.985,917.35948,
1943.074,924.01299,
1940.164,906.45179,
1937.253,899.37383,
1934.342,911.05561,
1931.432,892.67665,
1928.521,884.24093,
1925.611,887.33768,
1922.700,858.00829,
1919.790,879.78291,
1916.879,904.96551,
1913.968,925.47664,
1911.058,898.7072,
1908.147,884.57735,
1905.237,872.25004,
1902.326,897.12667,
1899.415,889.1878,
1896.505,890.02414,
1893.594,897.31708,
1890.684,892.27129,
1887.773,897.629,
1884.863,923.72096,
1881.952,900.71783,
1879.041,900.11683,
1876.131,899.61373,
1873.220,902.85842,
1870.310,874.72427,
1867.399,890.21212,
1864.489,932.02015,
1861.578,895.967,
1858.667,903.43411,
1855.757,920.10143,
1852.846,926.28972,
1849.936,947.08158,
1847.025,933.03286,
1844.114,916.69529,
1841.204,927.67832,
1838.293,937.00915,
1835.383,936.96499,
1832.472,969.96609,
1829.562,963.94791,
1826.651,963.85933,
1823.740,936.28538,
1820.830,949.73645,
1817.919,975.41628,
1815.009,1011.1807,
1812.098,965.33468,
1809.188,954.81009,
1806.277,980.90244,
1803.366,946.73291,
1800.456,963.52264,
1797.545,1011.8122,
1794.635,977.95104,
1791.724,994.00486,
1788.813,992.70154,
1785.903,989.0582,
1782.992,966.59689,
1780.082,961.82173,
1777.171,918.16649,
1774.261,945.60557,
1771.350,1003.998,
1768.439,1012.5417,
1765.529,1005.8639,
1762.618,1032.1394,
1759.708,1061.5652,
1756.797,1047.2879,
1753.887,1049.4242,
1750.976,1046.5792,
1748.065,1055.7765,
1745.155,1060.1968,
1742.244,1071.3913,
1739.334,1038.4177,
1736.423,1050.5878,
1733.512,1087.5123,
1730.602,1100.9881,
1727.691,1084.0761,
1724.781,1068.2745,
1721.870,1104.9336,
1718.960,1118.6112,
1716.049,1080.9072,
1713.138,1127.3647,
1710.228,1114.7426,
1707.317,1142.46,
1704.407,1159.976,
1701.496,1141.4459,
1698.586,1123.7923,
1695.675,1154.3141,
1692.764,1165.9672,
1689.854,1174.1535,
1686.943,1169.6686,
1684.033,1183.1523,
1681.122,1226.7523,
1678.211,1268.1098,
1675.301,1238.5925,
1672.390,1275.5329,
1669.480,1287.3584,
1666.569,1393.0429,
1663.659,1357.7613,
1660.748,1373.8664,
1657.837,1392.4344,
1654.927,1391.7258,
1652.016,1484.1355,
1649.106,1469.4266,
1646.195,1466.5,
1643.285,1469.3939,
1640.374,1593.8972,
1637.463,1611.8695,
1634.553,1579.1699,
1631.642,1691.0538,
1628.732,1742.2762,
1625.821,1872.5072,
1622.911,1883.438,
1620.000,2003.963,
1617.089,2070.1866,
1614.179,2203.6647,
1611.268,2354.8118,
1608.358,2445.3327,
1605.447,2522.1006,
1602.536,2546.0696,
1599.626,2544.7402,
1596.715,2488.2287,
1593.805,2512.9073,
1590.894,2484.7959,
1587.984,2428.5345,
1585.073,2466.4441,
1582.162,2374.3137,
1579.252,2320.1314,
1576.341,2299.683,
1573.431,2266.7394,
1570.520,2250.0919,
1567.610,2243.0293,
1564.699,2225.5493,
1561.788,2180.768,
1558.878,2151.5275,
1555.967,2121.0554,
1553.057,2083.6209,
1550.146,2050.4491,
1547.235,2024.9225,
1544.325,1996.8374,
1541.414,1973.8591,
1538.504,1965.4724,
1535.593,1961.5785,
1532.683,1953.9061,
1529.772,1929.5253,
1526.861,1900.4767,
1523.951,1874.0004,
1521.040,1831.6209,
1518.130,1818.6811,
1515.219,1812.5808,
1512.309,1798.1262,
1509.398,1835.2035,
1506.487,1822.0353,
1503.577,1828.7975,
1500.666,1800.2688,
1497.756,1789.2795,
1494.845,1774.3399,
1491.934,1770.4433,
1489.024,1753.1184,
1486.113,1732.1013,
1483.203,1730.5,
1480.292,1677.8923,
1477.382,1748.5166,
1474.471,1730.6658,
1471.560,1679.5884,
1468.650,1637.8523,
1465.739,1623.5785,
1462.829,1629.065,
1459.918,1660.0196,
1457.008,1663.2228,
1454.097,1620.5435,
1451.186,1601.4807,
1448.276,1616.2379,
1445.365,1612.9992,
1442.455,1611.4263,
1439.544,1628.0132,
1436.633,1607.0819,
1433.723,1581.7492,
1430.812,1581.8007,
1427.902,1559.3049,
1424.991,1509.0735,
1422.081,1536.8593,
1419.170,1522.2188,
1416.259,1517.8799,
1413.349,1593.7793,
1410.438,1554.8201,
1407.528,1516.5564,
1404.617,1487.0149,
1401.707,1438.7036,
1398.796,1450.6223,
1395.885,1474.4171,
1392.975,1426.4367,
1390.064,1377.313,
1387.154,1310.928,
1384.243,1200.4963,
1381.332,1110.2546,
1378.422,1163.4559,
1375.511,1298.3524,
1372.601,1404.6374,
1369.690,1529.225,
1366.780,1598.3982,
1363.869,1632.5678,
1360.958,1645.1215,
1358.048,1669.4525,
1355.137,1742.3252,
1352.227,1795.415,
1349.316,1812.442,
1346.406,1874.2209,
1343.495,1962.4652,
1340.584,1984.6434,
1337.674,1956.9689,
1334.763,2028.4174,
1331.853,2052.5254,
1328.942,2104.1995,
1326.032,2109.6844,
1323.121,2138.3976,
1320.210,2127.1905,
1317.300,2167.8502,
1314.389,2259.0011,
1311.479,2295.3351,
1308.568,2257.2588,
1305.657,2243.3575,
1302.747,2291.7569,
1299.836,2323.3109,
1296.926,2403.3628,
1294.015,2464.9575,
1291.105,2569.6428,
1288.194,2617.0472,
1285.283,2700.6803,
1282.373,2739.3593,
1279.462,2763.7153,
1276.552,2826.4215,
1273.641,2859.6216,
1270.731,2813.7388,
1267.820,2795.2637,
1264.909,2831.412,
1261.999,2821.2364,
1259.088,2759.2122,
1256.178,2758.9258,
1253.267,2711.1667,
1250.356,2684.3094,
1247.446,2651.5106,
1244.535,2591.8662,
1241.625,2544.4445,
1238.714,2531.1409,
1235.804,2522.8107,
1232.893,2514.52,
1229.982,2423.4387,
1227.072,2421.628,
1224.161,2342.4926,
1221.251,2325.2665,
1218.340,2259.7188,
1215.430,2225.6011,
1212.519,2230.5748,
1209.608,2235.8544,
1206.698,2254.8834,
1203.787,2308.8116,
1200.877,2310.2214,
1197.966,2305.7256,
1195.055,2417.2756,
1192.145,2456.7863,
1189.234,2508.2667,
1186.324,2557.0478,
1183.413,2585.0076,
1180.503,2594.1627,
1177.592,2586.5302,
1174.681,2560.5856,
1171.771,2540.0467,
1168.860,2520.3987,
1165.950,2493.505,
1163.039,2482.6112,
1160.129,2481.6797,
1157.218,2482.5,
1154.307,2485.0972,
1151.397,2493.1495,
1148.486,2504.6989,
1145.576,2508.2235,
1142.665,2432.7509,
1139.754,2432.1954,
1136.844,2408.2891,
1133.933,2402.7786,
1131.023,2408.3884,
1128.112,2398.0018,
1125.202,2377.4324,
1122.291,2384.628,
1119.380,2392.578,
1116.470,2400.5207,
1113.559,2389.128,
1110.649,2373.0579,
1107.738,2358.4627,
1104.828,2371.4728,
1101.917,2401.2752,
1099.006,2406.3763,
1096.096,2411.2525,
1093.185,2423.5446,
1090.275,2440.6854,
1087.364,2412.9383,
1084.453,2397.3751,
1081.543,2408.332,
1078.632,2411.9044,
1075.722,2392.1418,
1072.811,2418.5477,
1069.901,2447.3653,
1066.990,2487.4916,
1064.079,2494.4585,
1061.169,2481.3494,
1058.258,2488.0159,
1055.348,2520.7885,
1052.437,2546.6479,
1049.527,2552.1979,
1046.616,2544.3784,
1043.705,2544.2708,
1040.795,2562.3781,
1037.884,2561.8795,
1034.974,2563.0451,
1032.063,2581.5462,
1029.153,2580.9927,
1026.242,2601.7516,
1023.331,2589.1675,
1020.421,2640.1768,
1017.510,2655.0959,
1014.600,2656.5357,
1011.689,2672.0611,
1008.778,2692.0034,
1005.868,2742.1409,
1002.957,2813.5503,
1000.047,2895.844,
997.136,2955.3902,
994.226,2972.2539,
991.315,2960.5421,
988.404,2938.8538,
985.494,2872.4067,
982.583,2823.583,
979.673,2820.1582,
976.762,2806.8224,
973.852,2796.5,
970.941,2797.3891,
968.030,2798.448,
965.120,2792.5931,
962.209,2814.7592,
959.299,2822.7495,
956.388,2832.3395,
953.477,2843.8434,
950.567,2847.5786,
947.656,2841.6249,
944.746,2880.7045,
941.835,2848.4878,
938.925,2855.6352,
936.014,2864.0058,
933.103,2856.0257,
930.193,2829.5134,
927.282,2786.2333,
924.372,2799.763,
921.461,2774.9896,
918.551,2757.9479,
915.640,2760.149,
912.729,2755.2037,
909.819,2720.1723,
906.908,2770.7178,
903.998,2723.3921,
901.087,2741.6888,
898.176,2789.5633,
895.266,2821.5478,
892.355,2820.5994,
889.445,2826.4743,
886.534,2834.0138,
883.624,2828.7717,
880.713,2847.9557,
877.802,2867.0683,
874.892,2850.55,
871.981,2797.4803,
869.071,2796.6449,
866.160,2817.8887,
863.250,2811.7739,
860.339,2818.6205,
857.428,2851.1434,
854.518,2826.839,
851.607,2769.4263,
848.697,2773.2563,
845.786,2737.4637,
842.875,2722.6188,
839.965,2770.1943,
837.054,2782.8535,
834.144,2814.3461,
831.233,2846.4981,
828.323,2864.9403,
825.412,2875.9734,
822.501,2875.4359,
819.591,2808.4975,
816.680,2804.8974,
813.770,2791.9699,
810.859,2788.5612,
807.949,2790.7439,
805.038,2782.2057,
802.127,2771.5051,
799.217,2770.5,
796.306,2738.716,
793.396,2730.0727,
790.485,2754.5,
787.574,2754.9982,
784.664,2768.12,
781.753,2758.4223,
778.843,2774.5537,
775.932,2789.7841,
773.022,2781.3758,
770.111,2838.6063,
767.200,2817.3767,
764.290,2778.2946,
761.379,2746.0472,
758.469,2732.3371,
755.558,2735.2082,
752.648,2725.433,
749.737,2684.3326,
746.826,2611.7495,
743.916,2502.5187,
741.005,2339.6609,
738.095,2040.0783,
735.184,1685.5834,
732.274,1609.512,
729.363,1853.876,
726.452,2293.5924,
723.542,2559.8828,
720.631,2652.483,
717.721,2729.2018,
714.810,2779.159,
711.899,2788.4109,
708.989,2753.7131,
706.078,2758.3078,
703.168,2759.5,
700.257,2731.4451,
697.347,2696.9342,
694.436,2716.1072,
691.525,2701.6387,
688.615,2714.8517,
685.704,2736.1557,
682.794,2755.4787,
679.883,2768.2117,
676.973,2761.8007,
674.062,2761.7762,
671.151,2754.1717,
668.241,2750.1709,
665.330,2772.521,
662.420,2794.0868,
659.509,2783.8966,
656.598,2795.8392,
653.688,2826.6408,
650.777,2838.8529,
647.867,2790.2768,
644.956,2762.1638,
642.046,2746.1102,
639.135,2746.6748,
636.224,2777.508,
633.314,2779.0958,
630.403,2793.6891,
627.493,2792.7459,
624.582,2784.3286,
621.672,2823.9283,
618.761,2834.6193,
615.850,2823.1743,
612.940,2828.5767,
610.029,2864.7881,
607.119,2884.5288,
604.208,2871.5897,
601.297,2853.0371,
598.387,2850.2455,
595.476,2872.8659,
592.566,2855.5504,
589.655,2858.9789,
586.745,2854.2546,
583.834,2824.8354,
580.923,2758.4289,
578.013,2746.6579,
575.102,2752.1038,
572.192,2781.0089,
569.281,2824.7338,
566.371,2842.7341,
563.460,2863.5476,
560.549,2880.7583,
557.639,2903.6596,
554.728,2940.2391,
551.818,2951.9438,
548.907,2955.1094,
545.996,2943.8363,
543.086,2935.2302,
540.175,2980.3917,
537.265,2927.7305,
534.354,2921.5507,
531.444,2935.1067,
528.533,2931.1137,
525.622,2925.6821,
522.712,2953.6242,
519.801,2999.6135,
516.891,3040.0569,
513.980,3023.0224,
511.070,3056.7174,
508.159,3059.0833,
505.248,3054.513,
502.338,3083.1944,
499.427,3141.0818,
496.517,3140.096,
493.606,3132.5474,
490.695,3138.9695,
487.785,3113.5664,
484.874,3156.6743,
481.964,3184.5764,
479.053,3179.5941,
476.143,3146.5717,
473.232,3135.1478,
470.321,3134.4195,
467.411,3139.0196,
464.500,3143.1509,
461.590,3129.3676,
458.679,3135.4053,
455.769,3117.9798,
452.858,3067.4312,
449.947,3114.7949,
447.037,3126.927,
444.126,3140.7,
441.216,3158.8542,
438.305,3143.6156,
435.395,3127.7316,
432.484,3108.8309,
429.573,3102.7951,
426.663,3146.8833,
423.752,3092.6142,
420.842,3051.0593,
417.931,3036.2403,
415.020,3052.9242,
412.110,3185.922,
409.199,3255.0379,
406.289,3247.2284,
403.378,3157.6025,
400.468,3187.8422,
397.557,3166.1369,
394.646,3117.6458,
391.736,3063.6268,
388.825,2973.8732,
385.915,2901.1991,
383.004,2890.482,
380.094,2971.4503,
377.183,3088.0841,
374.272,3194.3181,
371.362,3281.2235,
368.451,3338.4028,
365.541,3303.8782,
362.630,3317.9883,
359.719,3344.6032,
356.809,3362.814,
353.898,3384.5291,
350.988,3327.0291,
348.077,3306.3162,
345.167,3386.6135,
342.256,3388.8547,
339.345,3374.6199,
336.435,3358.7241,
333.524,3352.6509,
330.614,3389.1635,
327.703,3409.7413,
324.793,3414.6331,
321.882,3403.4856,
318.971,3397.538,
316.061,3436.0301,
313.150,3475.9595,
310.240,3467.7963,
307.329,3481.7927,
304.418,3455.5833,
301.508,3393.0815,
298.597,3301.2698,
295.687,3207.4905,
292.776,3192.7501,
289.866,3287.4169,
286.955,3562.2228,
284.044,3763.4198,
281.134,3944.1474,
278.223,4100.9847,
275.313,4165.828,
272.402,4258.5028,
269.492,4356.374,
266.581,4450.0178,
263.670,4527.2117,
260.760,4570.9177,
257.849,4614.1097,
254.939,4681.6269,
252.028,4690.4623,
249.117,4707.6617,
246.207,4722.4165,
243.296,4714.3641,
240.386,4669.0966,
237.475,4605.1604,
234.565,4536.2437,
231.654,4509.2195,
228.743,4455.1691,
225.833,4396.3279,
222.922,4341.9032,
220.012,4307.6611,
217.101,4290.6114,
214.191,4266.7966,
211.280,4207.8721,
208.369,4155.7303,
205.459,4109.7427,
202.548,4081.266,
199.638,4114.6459,
196.727,4104.7897,
193.816,4059.6885,
190.906,3984.1603,
187.995,4002.9849,
185.085,3986.8029,
182.174,3977.9542,
179.264,4038.6666,
176.353,4009.6164,
173.442,3991.6753,
170.532,3987.3513,
167.621,3917.4167,
164.711,3829.1251,
161.800,3707.2707,
158.890,3533.8164,
155.979,3341.3125,
153.068,3065.9976,
150.158,2720.6169,
147.247,2345.1279,
144.337,1929.147,
141.426,1518.4513,
138.516,1134.9145,
135.605,806.26238,
132.694,554.67938,
129.784,370.80714,
126.873,249.23507,
123.963,166.45485,
121.052,110.03527,
118.141,78.623586,
115.231,69.262585,
112.320,57.027281,
109.410,44.954579,
106.499,42.105958,
103.589,35.337201,
100.678,28.87027,
97.767,24.604644,
94.857,27.271956,
91.946,25.275113,
89.036,19.93551,
86.125,16.389484,
83.215,19.747363,
80.304,20.387375,
77.393,11.181166,
74.483,12.465405,
71.572,14.224704,
68.662,15.638535,
65.751,17.051437,
62.840,11.237874,
59.930,4.8745724,
57.019,6.2847364,
54.109,14.860252,
51.198,18.087126,
48.288,12.511325,
45.377,13.918081,
42.466,14.087781,
39.556,14.075593,
36.645,17.586544,
33.735,18.5,
30.824,17.837339,
27.914,15.733813,
25.003,21.103737,
22.092,25.791618,
19.182,28.591531,
16.271,31.389492,
13.361,148.8224,
10.450,411.38243,
7.539,1009.1404,
4.629,1535.7377,
1.718,1826.197,
-1.192,1639.3623,
-4.103,1013.9072,
-7.013,434.87797,
-9.924,-1.5,
