,PLD6F7~1,
Wavenumbers [1/cm],Intensity,
3014.167,0.375,
3011.256,-0.37505368,
3008.346,61.711164,
3005.435,50.261929,
3002.525,64.545022,
2999.614,65.702291,
2996.704,64.790468,
2993.793,70.604264,
2990.882,77.901763,
2987.972,83.30437,
2985.061,72.921803,
2982.151,69.448943,
2979.240,86.540391,
2976.329,89.618175,
2973.419,80.066911,
2970.508,98.22499,
2967.598,92.849297,
2964.687,95.2697,
2961.777,101.22107,
2958.866,117.38094,
2955.955,105.58076,
2953.045,108.82466,
2950.134,110.01349,
2947.224,112.80203,
2944.313,123.77956,
2941.403,119.375,
2938.492,131.08774,
2935.581,128.26212,
2932.671,134.25483,
2929.760,135.51346,
2926.850,135.47951,
2923.939,132.29086,
2921.028,147.91619,
2918.118,140.7352,
2915.207,128.24824,
2912.297,150.2396,
2909.386,142.96624,
2906.476,128.0885,
2903.565,132.8424,
2900.654,134.0929,
2897.744,141.26185,
2894.833,136.49863,
2891.923,145.6186,
2889.012,140.58309,
2886.102,140.77095,
2883.191,117.39671,
2880.280,128.35107,
2877.370,36.671755,
2874.459,-24.801106,
2871.549,30.954647,
2868.638,106.8327,
2865.727,130.87882,
2862.817,136.08891,
2859.906,124.36359,
2856.996,153.38406,
2854.085,165.45906,
2851.175,142.63705,
2848.264,148.51233,
2845.353,133.87104,
2842.443,163.16316,
2839.532,156.30048,
2836.622,155.64453,
2833.711,152.47078,
2830.801,154.38235,
2827.890,155.27186,
2824.979,155.88103,
2822.069,167.39774,
2819.158,169.375,
2816.248,151.44448,
2813.337,185.9933,
2810.427,170.24277,
2807.516,160.74922,
2804.605,163.375,
2801.695,168.46712,
2798.784,177.93146,
2795.874,163.65996,
2792.963,164.375,
2790.052,180.37157,
2787.142,169.28296,
2784.231,165.7306,
2781.321,159.43786,
2778.410,159.96003,
2775.500,175.4581,
2772.589,163.87576,
2769.678,176.30332,
2766.768,177.375,
2763.857,177.00699,
2760.947,177.85924,
2758.036,185.54067,
2755.126,180.375,
2752.215,186.22507,
2749.304,176.54588,
2746.394,180.18544,
2743.483,192.72501,
2740.573,186.93914,
2737.662,175.48151,
2734.751,172.93324,
2731.841,187.64607,
2728.930,177.01041,
2726.020,192.80845,
2723.109,187.03475,
2720.199,191.00318,
2717.288,186.18157,
2714.377,208.53304,
2711.467,208.27719,
2708.556,188.58763,
2705.646,195.06515,
2702.735,222.52705,
2699.825,206.90772,
2696.914,221.56593,
2694.003,215.47582,
2691.093,216.96464,
2688.182,221.79278,
2685.272,221.62251,
2682.361,200.58679,
2679.450,196.54374,
2676.540,200.31403,
2673.629,201.35704,
2670.719,212.58665,
2667.808,213.42364,
2664.898,219.41391,
2661.987,217.84158,
2659.076,210.88362,
2656.166,234.87294,
2653.255,215.15051,
2650.345,221.375,
2647.434,216.51847,
2644.524,233.9697,
2641.613,224.00354,
2638.702,229.28031,
2635.792,231.21847,
2632.881,225.86917,
2629.971,236.95228,
2627.060,221.20657,
2624.149,236.29375,
2621.239,237.375,
2618.328,229.07829,
2615.418,226.35682,
2612.507,225.06673,
2609.597,214.83408,
2606.686,239.04972,
2603.775,244.93055,
2600.865,254.83924,
2597.954,252.56666,
2595.044,250.75852,
2592.133,238.76353,
2589.223,244.61606,
2586.312,272.27454,
2583.401,255.06844,
2580.491,267.08651,
2577.580,268.37665,
2574.670,264.39373,
2571.759,253.02654,
2568.848,247.78933,
2565.938,282.66083,
2563.027,259.42277,
2560.117,260.08531,
2557.206,257.43035,
2554.296,270.49399,
2551.385,278.54888,
2548.474,280.96794,
2545.564,280.62824,
2542.653,287.76426,
2539.743,277.066,
2536.832,263.64042,
2533.922,278.46962,
2531.011,285.47491,
2528.100,278.24605,
2525.190,278.86188,
2522.279,286.09361,
2519.369,275.5451,
2516.458,272.71423,
2513.548,279.375,
2510.637,290.23576,
2507.726,299.62778,
2504.816,284.06158,
2501.905,300.28781,
2498.995,293.91247,
2496.084,302.06838,
2493.173,290.32202,
2490.263,298.12757,
2487.352,298.58367,
2484.442,305.93816,
2481.531,300.79001,
2478.621,285.76835,
2475.710,307.49768,
2472.799,320.16876,
2469.889,306.49688,
2466.978,299.48843,
2464.068,320.40153,
2461.157,317.99001,
2458.247,317.22795,
2455.336,321.67246,
2452.425,301.08724,
2449.515,322.21493,
2446.604,329.02942,
2443.694,313.8865,
2440.783,334.04617,
2437.872,329.48439,
2434.962,334.47638,
2432.051,339.39967,
2429.141,339.08676,
2426.230,329.0921,
2423.320,339.84637,
2420.409,341.6186,
2417.498,348.75141,
2414.588,338.84275,
2411.677,329.02045,
2408.767,347.63976,
2405.856,357.00354,
2402.946,350.36875,
2400.035,359.65905,
2397.124,337.72259,
2394.214,353.88979,
2391.303,357.87229,
2388.393,337.93776,
2385.482,337.19875,
2382.571,319.66564,
2379.661,333.7704,
2376.750,339.21484,
2373.840,363.63117,
2370.929,365.40749,
2368.019,357.9532,
2365.108,373.4195,
2362.197,385.01332,
2359.287,379.375,
2356.376,392.35211,
2353.466,377.60277,
2350.555,371.16503,
2347.645,380.66373,
2344.734,394.2552,
2341.823,377.69008,
2338.913,397.7959,
2336.002,406.97067,
2333.092,397.858,
2330.181,398.6921,
2327.270,378.75013,
2324.360,389.92922,
2321.449,404.75935,
2318.539,403.92852,
2315.628,408.46733,
2312.718,402.30892,
2309.807,417.78488,
2306.896,423.375,
2303.986,421.63472,
2301.075,418.14096,
2298.165,430.14447,
2295.254,405.9782,
2292.344,410.99728,
2289.433,438.64909,
2286.522,427.48211,
2283.612,431.375,
2280.701,432.24047,
2277.791,441.2147,
2274.880,434.80705,
2271.969,426.53549,
2269.059,436.19517,
2266.148,449.67049,
2263.238,431.6839,
2260.327,433.34065,
2257.417,446.61222,
2254.506,455.87076,
2251.595,450.67692,
2248.685,464.62683,
2245.774,452.749,
2242.864,461.54206,
2239.953,474.27852,
2237.043,458.81643,
2234.132,458.02694,
2231.221,461.50679,
2228.311,462.375,
2225.400,481.65645,
2222.490,489.14694,
2219.579,483.47785,
2216.669,505.80584,
2213.758,493.63118,
2210.847,473.73269,
2207.937,499.2349,
2205.026,502.4852,
2202.116,523.44189,
2199.205,507.42535,
2196.294,507.68098,
2193.384,526.16402,
2190.473,513.35739,
2187.563,529.37017,
2184.652,528.52561,
2181.742,532.6254,
2178.831,525.42552,
2175.920,529.10725,
2173.010,562.77636,
2170.099,563.30903,
2167.189,557.7266,
2164.278,599.77198,
2161.368,571.94515,
2158.457,591.17334,
2155.546,594.26829,
2152.636,605.07181,
2149.725,628.67699,
2146.815,638.20816,
2143.904,624.98094,
2140.993,641.23741,
2138.083,650.29292,
2135.172,661.82042,
2132.262,657.10916,
2129.351,669.25442,
2126.441,656.82155,
2123.530,656.3301,
2120.619,649.07239,
2117.709,627.84762,
2114.798,616.66335,
2111.888,602.91243,
2108.977,596.74586,
2106.067,597.68364,
2103.156,581.7783,
2100.245,556.37814,
2097.335,566.553,
2094.424,593.60427,
2091.514,557.94488,
2088.603,566.29201,
2085.692,579.55715,
2082.782,575.42724,
2079.871,582.41117,
2076.961,579.69789,
2074.050,583.93864,
2071.140,576.66225,
2068.229,585.00781,
2065.318,587.46125,
2062.408,570.09438,
2059.497,580.02385,
2056.587,590.70067,
2053.676,581.84207,
2050.766,606.21954,
2047.855,552.94458,
2044.944,570.2468,
2042.034,563.72192,
2039.123,596.55682,
2036.213,602.43495,
2033.302,596.07052,
2030.391,596.9345,
2027.481,599.32616,
2024.570,614.86036,
2021.660,565.62711,
2018.749,613.65318,
2015.839,596.58563,
2012.928,596.78942,
2010.017,580.14048,
2007.107,585.81423,
2004.196,584.75601,
2001.286,601.58348,
1998.375,583.58661,
1995.465,575.375,
1992.554,590.27487,
1989.643,579.82433,
1986.733,587.16447,
1983.822,537.7103,
1980.912,579.41436,
1978.001,565.61247,
1975.090,560.56279,
1972.180,562.47873,
1969.269,558.80891,
1966.359,557.72634,
1963.448,569.79376,
1960.538,600.34331,
1957.627,560.90128,
1954.716,555.375,
1951.806,567.42468,
1948.895,565.18679,
1945.985,543.98775,
1943.074,547.77719,
1940.164,553.15389,
1937.253,549.48819,
1934.342,542.89639,
1931.432,548.83872,
1928.521,560.46654,
1925.611,545.91416,
1922.700,536.00069,
1919.790,547.43267,
1916.879,544.72375,
1913.968,519.40574,
1911.058,565.72334,
1908.147,544.23487,
1905.237,555.97794,
1902.326,549.36464,
1899.415,522.25303,
1896.505,484.41101,
1893.594,478.73175,
1890.684,501.66906,
1887.773,532.90029,
1884.863,551.92625,
1881.952,565.92988,
1879.041,566.83606,
1876.131,558.85997,
1873.220,533.83951,
1870.310,579.57222,
1867.399,585.34301,
1864.489,554.25817,
1861.578,552.40239,
1858.667,562.96182,
1855.757,559.99791,
1852.846,541.91344,
1849.936,564.6773,
1847.025,564.6694,
1844.114,571.82444,
1841.204,598.80856,
1838.293,601.39995,
1835.383,583.096,
1832.472,617.1437,
1829.562,623.84974,
1826.651,587.39146,
1823.740,617.5973,
1820.830,598.65028,
1817.919,573.71622,
1815.009,582.36228,
1812.098,606.81593,
1809.188,620.63079,
1806.277,614.52992,
1803.366,595.84081,
1800.456,622.9903,
1797.545,618.77204,
1794.635,644.43903,
1791.724,659.69537,
1788.813,658.16446,
1785.903,614.35376,
1782.992,575.96069,
1780.082,561.24091,
1777.171,513.02594,
1774.261,478.10048,
1771.350,542.72426,
1768.439,608.59199,
1765.529,669.37876,
1762.618,691.92562,
1759.708,668.40739,
1756.797,669.96591,
1753.887,687.11844,
1750.976,684.78534,
1748.065,684.98944,
1745.155,680.26536,
1742.244,687.30705,
1739.334,670.46442,
1736.423,694.99551,
1733.512,693.36682,
1730.602,703.08336,
1727.691,683.0422,
1724.781,698.9723,
1721.870,686.0606,
1718.960,722.48661,
1716.049,717.11243,
1713.138,727.19994,
1710.228,706.74728,
1707.317,725.48929,
1704.407,720.28943,
1701.496,740.3406,
1698.586,715.57945,
1695.675,782.61744,
1692.764,752.34629,
1689.854,700.62694,
1686.943,745.72244,
1684.033,749.32533,
1681.122,765.10312,
1678.211,752.49873,
1675.301,819.16841,
1672.390,761.44379,
1669.480,784.67181,
1666.569,822.09867,
1663.659,877.36239,
1660.748,817.37765,
1657.837,868.61557,
1654.927,879.04699,
1652.016,865.4722,
1649.106,869.20363,
1646.195,863.54984,
1643.285,911.96745,
1640.374,936.51786,
1637.463,897.18566,
1634.553,942.76412,
1631.642,1035.6139,
1628.732,1057.4461,
1625.821,1069.4156,
1622.911,1131.0256,
1620.000,1153.0978,
1617.089,1207.2805,
1614.179,1281.2599,
1611.268,1355.5867,
1608.358,1396.5021,
1605.447,1491.7186,
1602.536,1496.4431,
1599.626,1509.2541,
1596.715,1493.1306,
1593.805,1453.8131,
1590.894,1474.9144,
1587.984,1518.2152,
1585.073,1401.8574,
1582.162,1381.2099,
1579.252,1340.4599,
1576.341,1332.1761,
1573.431,1304.1807,
1570.520,1274.9724,
1567.610,1298.1794,
1564.699,1268.4984,
1561.788,1239.9948,
1558.878,1222.0853,
1555.967,1199.8584,
1553.057,1172.8752,
1550.146,1174.0513,
1547.235,1169.5685,
1544.325,1155.1541,
1541.414,1127.6926,
1538.504,1137.6617,
1535.593,1152.2283,
1532.683,1122.7556,
1529.772,1132.4058,
1526.861,1146.4423,
1523.951,1125.4202,
1521.040,1143.6067,
1518.130,1139.1793,
1515.219,1145.935,
1512.309,1150.8435,
1509.398,1149.13,
1506.487,1110.8943,
1503.577,1143.1671,
1500.666,1158.8154,
1497.756,1155.1378,
1494.845,1161.2133,
1491.934,1085.2774,
1489.024,1055.4401,
1486.113,1124.8434,
1483.203,1095.7365,
1480.292,1096.4661,
1477.382,1094.9503,
1474.471,1078.26,
1471.560,1058.136,
1468.650,1035.9764,
1465.739,1063.602,
1462.829,1062.4864,
1459.918,1056.6624,
1457.008,1077.5906,
1454.097,1079.3589,
1451.186,1059.9688,
1448.276,1037.2473,
1445.365,1006.2312,
1442.455,994.28172,
1439.544,987.33684,
1436.633,973.375,
1433.723,969.38707,
1430.812,944.25642,
1427.902,979.36026,
1424.991,936.71095,
1422.081,913.35555,
1419.170,958.03426,
1416.259,942.69323,
1413.349,946.43789,
1410.438,944.47654,
1407.528,945.59371,
1404.617,931.52254,
1401.707,903.94685,
1398.796,869.54988,
1395.885,853.16245,
1392.975,848.97865,
1390.064,844.91648,
1387.154,868.57919,
1384.243,798.65054,
1381.332,789.37901,
1378.422,781.85805,
1375.511,791.22586,
1372.601,848.51236,
1369.690,868.805,
1366.780,872.95907,
1363.869,937.30498,
1360.958,957.4137,
1358.048,924.52279,
1355.137,992.74129,
1352.227,1058.2769,
1349.316,1064.8712,
1346.406,1114.2316,
1343.495,1122.9255,
1340.584,1097.4094,
1337.674,1177.8022,
1334.763,1158.4568,
1331.853,1213.1635,
1328.942,1270.5218,
1326.032,1279.8219,
1323.121,1296.6762,
1320.210,1281.7315,
1317.300,1297.9354,
1314.389,1340.0144,
1311.479,1371.5497,
1308.568,1397.0243,
1305.657,1425.5894,
1302.747,1453.5612,
1299.836,1525.3062,
1296.926,1553.2041,
1294.015,1549.5268,
1291.105,1588.9994,
1288.194,1644.6958,
1285.283,1628.7349,
1282.373,1646.4843,
1279.462,1669.9631,
1276.552,1702.7846,
1273.641,1729.8197,
1270.731,1740.3108,
1267.820,1781.0899,
1264.909,1764.3962,
1261.999,1705.9423,
1259.088,1694.0847,
1256.178,1766.1738,
1253.267,1677.8724,
1250.356,1646.0205,
1247.446,1681.7521,
1244.535,1671.201,
1241.625,1623.0713,
1238.714,1609.4886,
1235.804,1616.5934,
1232.893,1616.3765,
1229.982,1610.4176,
1227.072,1641.1982,
1224.161,1614.7979,
1221.251,1580.3391,
1218.340,1549.645,
1215.430,1553.79,
1212.519,1575.4302,
1209.608,1565.8212,
1206.698,1526.5877,
1203.787,1523.5559,
1200.877,1537.381,
1197.966,1569.7507,
1195.055,1608.0647,
1192.145,1685.7526,
1189.234,1717.8093,
1186.324,1765.47,
1183.413,1780.6186,
1180.503,1767.8652,
1177.592,1785.7789,
1174.681,1763.077,
1171.771,1801.4684,
1168.860,1762.1724,
1165.950,1726.1234,
1163.039,1720.4702,
1160.129,1715.4764,
1157.218,1751.2761,
1154.307,1781.3891,
1151.397,1768.7594,
1148.486,1804.5163,
1145.576,1854.5633,
1142.665,1812.8314,
1139.754,1793.9161,
1136.844,1789.6747,
1133.933,1787.6155,
1131.023,1773.6284,
1128.112,1765.0885,
1125.202,1771.0272,
1122.291,1759.3804,
1119.380,1773.5396,
1116.470,1790.3076,
1113.559,1756.8055,
1110.649,1758.1622,
1107.738,1753.6586,
1104.828,1731.892,
1101.917,1717.6296,
1099.006,1733.0861,
1096.096,1768.6762,
1093.185,1757.2622,
1090.275,1766.0862,
1087.364,1769.7472,
1084.453,1762.5005,
1081.543,1762.9483,
1078.632,1775.4491,
1075.722,1788.8885,
1072.811,1806.5134,
1069.901,1780.3156,
1066.990,1748.4667,
1064.079,1789.011,
1061.169,1818.5549,
1058.258,1830.3038,
1055.348,1831.9079,
1052.437,1815.3911,
1049.527,1811.7512,
1046.616,1847.3732,
1043.705,1863.7072,
1040.795,1825.8722,
1037.884,1827.1561,
1034.974,1868.134,
1032.063,1879.2064,
1029.153,1824.4789,
1026.242,1825.3438,
1023.331,1820.3753,
1020.421,1882.8112,
1017.510,1923.2613,
1014.600,1926.6081,
1011.689,1907.6826,
1008.778,1888.9462,
1005.868,1921.375,
1002.957,1921.375,
1000.047,1989.807,
997.136,2038.868,
994.226,2046.4521,
991.315,2028.9814,
988.404,2011.7809,
985.494,1997.7612,
982.583,1970.3514,
979.673,1941.499,
976.762,1938.8331,
973.852,1948.6791,
970.941,1953.8931,
968.030,1949.4733,
965.120,1944.5218,
962.209,1979.476,
959.299,1970.5018,
956.388,1967.7348,
953.477,1981.8838,
950.567,2012.4919,
947.656,2047.9186,
944.746,2013.9363,
941.835,2011.5652,
938.925,2045.5936,
936.014,2051.2352,
933.103,2044.6714,
930.193,2044.7867,
927.282,2003.4878,
924.372,1950.2146,
921.461,1977.2494,
918.551,1942.3194,
915.640,1941.9456,
912.729,1988.9851,
909.819,1990.2613,
906.908,1966.6734,
903.998,1986.0545,
901.087,2026.3828,
898.176,2028.7188,
895.266,2038.2583,
892.355,2093.6214,
889.445,2057.5329,
886.534,2058.2099,
883.624,2051.6467,
880.713,2049.3957,
877.802,2023.9732,
874.892,1945.3272,
871.981,1813.4355,
869.071,1688.959,
866.160,1687.3838,
863.250,1824.2805,
860.339,1948.9664,
857.428,1971.6447,
854.518,2000.5696,
851.607,1938.1644,
848.697,1890.2329,
845.786,1870.7802,
842.875,1886.9011,
839.965,1944.3659,
837.054,2049.7378,
834.144,2082.0592,
831.233,2115.7064,
828.323,2116.5161,
825.412,2124.6246,
822.501,2167.5877,
819.591,2157.6709,
816.680,2115.7083,
813.770,2106.628,
810.859,2079.3981,
807.949,2046.2018,
805.038,2053.3529,
802.127,2094.5093,
799.217,2068.5594,
796.306,2057.2399,
793.396,2067.2759,
790.485,2072.7931,
787.574,2031.5858,
784.664,2089.8137,
781.753,2107.0848,
778.843,2118.7064,
775.932,2120.2764,
773.022,2104.8822,
770.111,2108.1525,
767.200,2087.0583,
764.290,2105.8016,
761.379,2140.9174,
758.469,2164.0731,
755.558,2155.1076,
752.648,2146.1469,
749.737,2128.0553,
746.826,2119.375,
743.916,2107.0891,
741.005,2075.4667,
738.095,2076.2786,
735.184,2030.6112,
732.274,1996.5981,
729.363,1993.4706,
726.452,2027.2154,
723.542,2092.7762,
720.631,2097.1395,
717.721,2116.2789,
714.810,2136.4659,
711.899,2152.5829,
708.989,2179.2115,
706.078,2163.3489,
703.168,2165.4472,
700.257,2180.927,
697.347,2184.1155,
694.436,2136.9205,
691.525,2157.0157,
688.615,2163.8906,
685.704,2167.9652,
682.794,2166.4602,
679.883,2153.4387,
676.973,2221.5552,
674.062,2217.5087,
671.151,2193.7868,
668.241,2185.9049,
665.330,2214.5598,
662.420,2176.2207,
659.509,2176.6291,
656.598,2180.9423,
653.688,2187.2763,
650.777,2210.915,
647.867,2226.8416,
644.956,2216.1345,
642.046,2154.721,
639.135,2077.4405,
636.224,2066.8365,
633.314,2158.9334,
630.403,2183.5574,
627.493,2185.9113,
624.582,2194.0253,
621.672,2219.3691,
618.761,2213.5355,
615.850,2255.454,
612.940,2293.7657,
610.029,2299.6902,
607.119,2307.5865,
604.208,2292.7547,
601.297,2326.7549,
598.387,2357.6295,
595.476,2330.5524,
592.566,2300.6438,
589.655,2333.6005,
586.745,2345.6956,
583.834,2334.5946,
580.923,2335.3276,
578.013,2327.4803,
575.102,2333.9788,
572.192,2324.6545,
569.281,2301.8584,
566.371,2332.3807,
563.460,2341.7242,
560.549,2369.7135,
557.639,2402.552,
554.728,2418.5374,
551.818,2405.272,
548.907,2398.1091,
545.996,2398.4853,
543.086,2398.0066,
540.175,2373.0899,
537.265,2362.6836,
534.354,2374.4257,
531.444,2386.8671,
528.533,2381.2027,
525.622,2392.8419,
522.712,2345.0145,
519.801,2311.9931,
516.891,2316.5397,
513.980,2342.0914,
511.070,2356.3489,
508.159,2396.2373,
505.248,2420.3547,
502.338,2377.6746,
499.427,2353.7479,
496.517,2365.476,
493.606,2398.555,
490.695,2437.3379,
487.785,2444.266,
484.874,2438.2665,
481.964,2419.0097,
479.053,2393.3301,
476.143,2376.4349,
473.232,2389.7631,
470.321,2396.8347,
467.411,2399.6413,
464.500,2403.6077,
461.590,2412.7966,
458.679,2410.9726,
455.769,2408.0051,
452.858,2409.6136,
449.947,2411.9054,
447.037,2413.5885,
444.126,2409.1992,
441.216,2401.6979,
438.305,2409.3172,
435.395,2402.5074,
432.484,2406.2933,
429.573,2405.6599,
426.663,2355.4906,
423.752,2167.2564,
420.842,1963.1564,
417.931,1796.8447,
415.020,1731.6259,
412.110,1996.4138,
409.199,2220.0472,
406.289,2348.4232,
403.378,2339.2521,
400.468,2302.9643,
397.557,2296.5165,
394.646,2326.6935,
391.736,2396.0269,
388.825,2416.3912,
385.915,2413.3277,
383.004,2421.0799,
380.094,2458.0717,
377.183,2412.9231,
374.272,2407.9739,
371.362,2424.0878,
368.451,2449.6546,
365.541,2487.1814,
362.630,2499.56,
359.719,2488.6484,
356.809,2458.964,
353.898,2468.6984,
350.988,2514.2315,
348.077,2532.0792,
345.167,2486.2019,
342.256,2463.0428,
339.345,2486.6667,
336.435,2505.6024,
333.524,2485.9857,
330.614,2505.3597,
327.703,2496.9997,
324.793,2483.375,
321.882,2483.4669,
318.971,2521.3825,
316.061,2537.7932,
313.150,2554.7702,
310.240,2597.8129,
307.329,2657.9752,
304.418,2692.3179,
301.508,2694.1504,
298.597,2651.9466,
295.687,2628.0578,
292.776,2640.4585,
289.866,2694.8843,
286.955,2806.4318,
284.044,2870.445,
281.134,2933.1821,
278.223,2993.6684,
275.313,3002.5106,
272.402,3052.59,
269.492,3064.8785,
266.581,3015.902,
263.670,3009.2854,
260.760,3037.6732,
257.849,3084.1088,
254.939,3137.6822,
252.028,3139.8227,
249.117,3151.7957,
246.207,3149.6539,
243.296,3088.8948,
240.386,3120.2485,
237.475,3140.7592,
234.565,3133.2076,
231.654,3081.3503,
228.743,3064.6213,
225.833,3034.4588,
222.922,2974.0161,
220.012,2944.8738,
217.101,2928.505,
214.191,2902.7974,
211.280,2840.963,
208.369,2771.1121,
205.459,2748.1585,
202.548,2769.648,
199.638,2817.5409,
196.727,2762.8388,
193.816,2731.3292,
190.906,2765.0737,
187.995,2670.9505,
185.085,2673.3663,
182.174,2689.2607,
179.264,2603.9744,
176.353,2586.6857,
173.442,2578.0243,
170.532,2564.8305,
167.621,2517.2461,
164.711,2438.679,
161.800,2314.7389,
158.890,2125.4506,
155.979,1938.3499,
153.068,1736.5038,
150.158,1525.6623,
147.247,1327.5075,
144.337,1102.6999,
141.426,868.12234,
138.516,630.11445,
135.605,446.14174,
132.694,315.00758,
129.784,222.20811,
126.873,139.25305,
123.963,97.904984,
121.052,68.043431,
118.141,39.487351,
115.231,33.690437,
112.320,28.833184,
109.410,26.329487,
106.499,31.314573,
103.589,25.651946,
100.678,18.202026,
97.767,12.514526,
94.857,11.682011,
91.946,15.002998,
89.036,19.358919,
86.125,12.976071,
83.215,12.436841,
80.304,11.220106,
77.393,4.8465764,
74.483,8.3058097,
71.572,8.9255915,
68.662,6.5828025,
65.751,8.7021557,
62.840,5.5213841,
59.930,1.375,
57.019,1.375,
54.109,2.5693217,
51.198,4.5814371,
48.288,7.3297005,
45.377,1.7026759,
42.466,-0.21278066,
39.556,0.72035573,
36.645,2.8269264,
33.735,3.8942485,
30.824,1.5034693,
27.914,-7.6118088,
25.003,-6.1344501,
22.092,-2.6875727,
19.182,1.5122972,
16.271,5.709238,
13.361,51.20663,
10.450,112.93747,
7.539,122.01557,
4.629,-127.07526,
1.718,-446.01365,
-1.192,-717.90002,
-4.103,-637.1678,
-7.013,-391.76443,
-9.924,-0.625,
