,PLD278~1,
Raman shift [1/cm],Intensity,
3014.167,1.25,
3011.256,-2.3000107,
3008.346,77.364886,
3005.435,102.3242,
3002.525,106.68512,
2999.614,100.8643,
2996.704,100.39124,
2993.793,108.50691,
2990.882,110.59347,
2987.972,124.16928,
2985.061,110.46675,
2982.151,130.86346,
2979.240,124.25,
2976.329,135.52048,
2973.419,128.0654,
2970.508,134.64996,
2967.598,140.39337,
2964.687,148.02581,
2961.777,149.62603,
2958.866,151.5962,
2955.955,157.01546,
2953.045,173.14932,
2950.134,167.64358,
2947.224,175.30694,
2944.313,167.81196,
2941.403,169.28604,
2938.492,189.83537,
2935.581,180.05126,
2932.671,185.28861,
2929.760,176.64615,
2926.850,175.25,
2923.939,186.96962,
2921.028,190.56179,
2918.118,186.9704,
2915.207,203.78814,
2912.297,186.36425,
2909.386,199.23541,
2906.476,196.47471,
2903.565,207.29815,
2900.654,210.02654,
2897.744,186.60202,
2894.833,205.59037,
2891.923,194.8718,
2889.012,192.33093,
2886.102,199.04189,
2883.191,190.25755,
2880.280,179.08731,
2877.370,164.17441,
2874.459,151.06149,
2871.549,171.46044,
2868.638,204.43554,
2865.727,204.33075,
2862.817,215.35026,
2859.906,202.98503,
2856.996,218.27717,
2854.085,213.13025,
2851.175,213.77409,
2848.264,220.38733,
2845.353,218.88336,
2842.443,207.84025,
2839.532,214.69777,
2836.622,221.64323,
2833.711,210.36145,
2830.801,211.34338,
2827.890,213.06294,
2824.979,221.02796,
2822.069,236.09079,
2819.158,219.96967,
2816.248,225.21526,
2813.337,219.17804,
2810.427,228.03651,
2807.516,210.30766,
2804.605,218.97117,
2801.695,238.98684,
2798.784,222.43277,
2795.874,221.25528,
2792.963,224.60734,
2790.052,223.25129,
2787.142,227.22377,
2784.231,221.34784,
2781.321,220.37572,
2778.410,225.56979,
2775.500,226.42069,
2772.589,230.13456,
2769.678,232.03497,
2766.768,233.6267,
2763.857,230.72592,
2760.947,239.69011,
2758.036,231.94428,
2755.126,233.86325,
2752.215,243.39993,
2749.304,236.5054,
2746.394,233.36691,
2743.483,241.8,
2740.573,252.89606,
2737.662,249.80326,
2734.751,243.2258,
2731.841,243.70971,
2728.930,239.69914,
2726.020,252.92882,
2723.109,240.08542,
2720.199,245.38752,
2717.288,239.53102,
2714.377,253.79558,
2711.467,259.26648,
2708.556,255.25,
2705.646,258.63029,
2702.735,258.92526,
2699.825,256.48996,
2696.914,263.86957,
2694.003,258.09391,
2691.093,257.39319,
2688.182,267.0137,
2685.272,267.01102,
2682.361,264.25,
2679.450,250.80149,
2676.540,273.10773,
2673.629,270.56388,
2670.719,276.03835,
2667.808,265.68772,
2664.898,274.91245,
2661.987,273.91678,
2659.076,272.14009,
2656.166,294.61811,
2653.255,273.68878,
2650.345,292.38612,
2647.434,284.62096,
2644.524,274.97186,
2641.613,282.44987,
2638.702,286.15531,
2635.792,285.37463,
2632.881,279.01206,
2629.971,293.18972,
2627.060,299.24938,
2624.149,299.65626,
2621.239,296.50445,
2618.328,289.01297,
2615.418,310.56364,
2612.507,302.49512,
2609.597,312.23004,
2606.686,309.72994,
2603.775,314.80555,
2600.865,292.60492,
2597.954,303.16037,
2595.044,318.27657,
2592.133,314.08441,
2589.223,298.30998,
2586.312,316.71233,
2583.401,308.35219,
2580.491,307.97596,
2577.580,304.28466,
2574.670,328.57085,
2571.759,328.44179,
2568.848,317.95717,
2565.938,332.86922,
2563.027,316.47042,
2560.117,320.89485,
2557.206,329.90682,
2554.296,339.61613,
2551.385,322.94406,
2548.474,329.54628,
2545.564,333.12338,
2542.653,344.70302,
2539.743,334.76848,
2536.832,336.27056,
2533.922,338.20269,
2531.011,337.44981,
2528.100,337.91897,
2525.190,332.45943,
2522.279,363.59343,
2519.369,349.04253,
2516.458,338.46672,
2513.548,341.95895,
2510.637,336.86483,
2507.726,347.18681,
2504.816,342.49915,
2501.905,355.10488,
2498.995,343.66803,
2496.084,348.71689,
2493.173,351.88179,
2490.263,340.49743,
2487.352,362.20827,
2484.442,363.81316,
2481.531,369.19682,
2478.621,360.57225,
2475.710,361.36502,
2472.799,376.00337,
2469.889,377.67383,
2466.978,370.86865,
2464.068,356.71557,
2461.157,391.90253,
2458.247,378.14697,
2455.336,380.43984,
2452.425,393.49057,
2449.515,400.28741,
2446.604,383.07721,
2443.694,378.41283,
2440.783,386.53716,
2437.872,403.21354,
2434.962,404.35138,
2432.051,402.93505,
2429.141,403.79107,
2426.230,405.38038,
2423.320,400.62151,
2420.409,400.65378,
2417.498,399.07022,
2414.588,409.78225,
2411.677,400.57272,
2408.767,409.50295,
2405.856,414.94045,
2402.946,422.30362,
2400.035,418.75469,
2397.124,427.90241,
2394.214,418.2232,
2391.303,425.07317,
2388.393,412.8267,
2385.482,399.60249,
2382.571,422.05985,
2379.661,434.59878,
2376.750,437.35593,
2373.840,428.19066,
2370.929,432.18502,
2368.019,430.4064,
2365.108,443.94634,
2362.197,451.27737,
2359.287,432.08175,
2356.376,450.21126,
2353.466,458.64383,
2350.555,454.7198,
2347.645,452.17052,
2344.734,460.97812,
2341.823,454.38267,
2338.913,470.79025,
2336.002,437.73324,
2333.092,444.19246,
2330.181,470.63868,
2327.270,467.85506,
2324.360,455.19103,
2321.449,463.18878,
2318.539,467.25,
2315.628,470.03977,
2312.718,481.84912,
2309.807,483.52325,
2306.896,491.2813,
2303.986,487.58752,
2301.075,469.71808,
2298.165,499.18322,
2295.254,492.5516,
2292.344,470.45743,
2289.433,487.96046,
2286.522,502.84372,
2283.612,497.96938,
2280.701,493.38453,
2277.791,518.04775,
2274.880,490.31998,
2271.969,508.17593,
2269.059,526.33991,
2266.148,538.57053,
2263.238,501.96818,
2260.327,518.59461,
2257.417,506.45055,
2254.506,536.01352,
2251.595,519.83189,
2248.685,526.71725,
2245.774,533.15108,
2242.864,515.22255,
2239.953,531.07066,
2237.043,539.19821,
2234.132,526.83189,
2231.221,522.77717,
2228.311,527.98969,
2225.400,535.44702,
2222.490,546.89179,
2219.579,562.46334,
2216.669,557.23092,
2213.758,560.59771,
2210.847,559.44396,
2207.937,574.59851,
2205.026,572.47157,
2202.116,583.69481,
2199.205,576.79918,
2196.294,598.86998,
2193.384,581.93497,
2190.473,582.6878,
2187.563,603.30317,
2184.652,612.59327,
2181.742,604.72746,
2178.831,618.36288,
2175.920,651.06786,
2173.010,667.42517,
2170.099,652.65178,
2167.189,684.47962,
2164.278,722.11935,
2161.368,755.67864,
2158.457,766.53518,
2155.546,811.2789,
2152.636,838.12765,
2149.725,845.24328,
2146.815,876.21556,
2143.904,918.35037,
2140.993,917.85319,
2138.083,924.19219,
2135.172,945.72901,
2132.262,955.76056,
2129.351,932.30846,
2126.441,924.1335,
2123.530,895.98062,
2120.619,868.39695,
2117.709,837.13044,
2114.798,809.48068,
2111.888,780.85072,
2108.977,765.25,
2106.067,762.97487,
2103.156,739.37429,
2100.245,710.23181,
2097.335,679.20288,
2094.424,669.03699,
2091.514,682.10482,
2088.603,684.89513,
2085.692,672.15346,
2082.782,668.14552,
2079.871,676.35735,
2076.961,667.89578,
2074.050,657.71667,
2071.140,649.01997,
2068.229,660.97135,
2065.318,660.59499,
2062.408,635.44668,
2059.497,643.2917,
2056.587,648.02922,
2053.676,606.68563,
2050.766,640.70889,
2047.855,613.36068,
2044.944,651.78205,
2042.034,646.95509,
2039.123,629.09175,
2036.213,640.50109,
2033.302,652.27145,
2030.391,644.42014,
2027.481,637.20116,
2024.570,661.16371,
2021.660,639.84649,
2018.749,636.12378,
2015.839,653.13845,
2012.928,626.68625,
2010.017,647.92535,
2007.107,656.87993,
2004.196,658.47615,
2001.286,636.97793,
1998.375,638.6004,
1995.465,628.87768,
1992.554,648.03804,
1989.643,660.90436,
1986.733,637.71491,
1983.822,627.96787,
1980.912,628.07193,
1978.001,632.68228,
1975.090,622.07747,
1972.180,628.14492,
1969.269,631.53156,
1966.359,639.70971,
1963.448,644.40588,
1960.538,621.15075,
1957.627,639.43268,
1954.716,602.4278,
1951.806,625.29968,
1948.895,620.63875,
1945.985,587.96896,
1943.074,606.04342,
1940.164,600.23088,
1937.253,617.85851,
1934.342,638.83128,
1931.432,622.84937,
1928.521,608.79577,
1925.611,597.55534,
1922.700,623.11602,
1919.790,611.44098,
1916.879,608.25,
1913.968,604.25492,
1911.058,591.6554,
1908.147,585.50841,
1905.237,599.45588,
1902.326,593.08556,
1899.415,603.27686,
1896.505,616.79789,
1893.594,588.15248,
1890.684,588.34159,
1887.773,579.71543,
1884.863,606.4869,
1881.952,613.97256,
1879.041,601.41563,
1876.131,628.38201,
1873.220,603.86934,
1870.310,601.1065,
1867.399,567.79378,
1864.489,627.65332,
1861.578,591.51898,
1858.667,618.84883,
1855.757,596.43854,
1852.846,613.01922,
1849.936,626.97072,
1847.025,626.54685,
1844.114,622.69944,
1841.204,639.76049,
1838.293,649.24335,
1835.383,637.40152,
1832.472,645.59957,
1829.562,642.36354,
1826.651,660.96865,
1823.740,664.78638,
1820.830,643.50181,
1817.919,611.37558,
1815.009,654.91157,
1812.098,687.48621,
1809.188,650.85474,
1806.277,662.91802,
1803.366,656.63263,
1800.456,676.66701,
1797.545,633.54071,
1794.635,647.79802,
1791.724,660.06551,
1788.813,671.45283,
1785.903,676.49809,
1782.992,661.29917,
1780.082,655.96136,
1777.171,653.24518,
1774.261,637.80505,
1771.350,652.93525,
1768.439,667.54763,
1765.529,675.25188,
1762.618,688.21625,
1759.708,694.35875,
1756.797,701.40152,
1753.887,703.81414,
1750.976,693.04647,
1748.065,696.30991,
1745.155,682.17273,
1742.244,706.00538,
1739.334,696.17707,
1736.423,696.67428,
1733.512,719.71346,
1730.602,764.39887,
1727.691,731.95803,
1724.781,726.90234,
1721.870,717.98327,
1718.960,749.78375,
1716.049,756.41103,
1713.138,770.78493,
1710.228,771.50941,
1707.317,782.74943,
1704.407,768.97725,
1701.496,754.48833,
1698.586,760.64188,
1695.675,744.40724,
1692.764,779.22543,
1689.854,792.73032,
1686.943,768.12687,
1684.033,794.55459,
1681.122,795.25,
1678.211,822.98351,
1675.301,812.28392,
1672.390,844.31281,
1669.480,865.09758,
1666.569,846.08495,
1663.659,833.77264,
1660.748,865.19215,
1657.837,863.75901,
1654.927,930.59398,
1652.016,902.71542,
1649.106,882.42509,
1646.195,929.13012,
1643.285,925.0931,
1640.374,960.97822,
1637.463,948.93455,
1634.553,986.79678,
1631.642,1023.3151,
1628.732,1029.327,
1625.821,1042.2912,
1622.911,1104.895,
1620.000,1195.1035,
1617.089,1263.8769,
1614.179,1290.5168,
1611.268,1351.9078,
1608.358,1424.7851,
1605.447,1511.2221,
1602.536,1515.3181,
1599.626,1575.0456,
1596.715,1550.2992,
1593.805,1509.6881,
1590.894,1574.8229,
1587.984,1573.8569,
1585.073,1516.9469,
1582.162,1513.9291,
1579.252,1449.7859,
1576.341,1423.234,
1573.431,1420.25,
1570.520,1427.8938,
1567.610,1409.3869,
1564.699,1414.5755,
1561.788,1389.6728,
1558.878,1349.9395,
1555.967,1378.8719,
1553.057,1346.6643,
1550.146,1277.5337,
1547.235,1255.021,
1544.325,1218.9249,
1541.414,1216.7128,
1538.504,1241.819,
1535.593,1225.2603,
1532.683,1172.633,
1529.772,1121.7439,
1526.861,1124.1594,
1523.951,1158.5862,
1521.040,1165.1392,
1518.130,1150.7067,
1515.219,1128.9705,
1512.309,1106.286,
1509.398,1099.6206,
1506.487,1119.0689,
1503.577,1116.6335,
1500.666,1104.228,
1497.756,1081.6993,
1494.845,1097.5291,
1491.934,1056.2657,
1489.024,1061.0782,
1486.113,1075.1582,
1483.203,1051.3813,
1480.292,1013.461,
1477.382,998.35927,
1474.471,997.01738,
1471.560,1007.4093,
1468.650,1020.8158,
1465.739,982.97765,
1462.829,927.61868,
1459.918,929.45462,
1457.008,967.03485,
1454.097,983.40137,
1451.186,955.46664,
1448.276,921.46382,
1445.365,912.71209,
1442.455,906.47565,
1439.544,969.44804,
1436.633,981.84982,
1433.723,895.11029,
1430.812,929.39777,
1427.902,930.03231,
1424.991,878.85314,
1422.081,913.94908,
1419.170,907.74534,
1416.259,840.63489,
1413.349,842.62054,
1410.438,890.23678,
1407.528,840.65712,
1404.617,856.09154,
1401.707,911.26798,
1398.796,893.26407,
1395.885,861.86423,
1392.975,853.54093,
1390.064,820.07276,
1387.154,815.14705,
1384.243,788.24629,
1381.332,696.12329,
1378.422,731.79067,
1375.511,819.84808,
1372.601,904.19133,
1369.690,1006.4017,
1366.780,976.31196,
1363.869,1004.9327,
1360.958,1024.8715,
1358.048,1049.2025,
1355.137,1096.3167,
1352.227,1162.7666,
1349.316,1206.8612,
1346.406,1204.3341,
1343.495,1220.4295,
1340.584,1278.3931,
1337.674,1272.3253,
1334.763,1331.5323,
1331.853,1338.9501,
1328.942,1354.3709,
1326.032,1409.2653,
1323.121,1464.9669,
1320.210,1469.5953,
1317.300,1481.957,
1314.389,1477.2913,
1311.479,1511.0555,
1308.568,1546.8739,
1305.657,1507.4883,
1302.747,1549.9989,
1299.836,1610.6383,
1296.926,1657.4891,
1294.015,1684.1495,
1291.105,1779.468,
1288.194,1813.8161,
1285.283,1863.6422,
1282.373,1874.2891,
1279.462,1909.7787,
1276.552,1962.691,
1273.641,1993.8421,
1270.731,1995.6649,
1267.820,1977.7286,
1264.909,2008.6678,
1261.999,2025.4511,
1259.088,2003.5602,
1256.178,1961.1401,
1253.267,1974.9643,
1250.356,1939.2603,
1247.446,1869.9649,
1244.535,1853.5848,
1241.625,1843.5871,
1238.714,1809.9681,
1235.804,1810.0268,
1232.893,1741.6244,
1229.982,1743.7594,
1227.072,1729.2744,
1224.161,1699.6729,
1221.251,1695.739,
1218.340,1641.186,
1215.430,1613.4521,
1212.519,1606.1948,
1209.608,1595.9588,
1206.698,1607.7183,
1203.787,1636.5364,
1200.877,1629.646,
1197.966,1668.3098,
1195.055,1721.4449,
1192.145,1734.0067,
1189.234,1765.0944,
1186.324,1803.6158,
1183.413,1830.1992,
1180.503,1826.4225,
1177.592,1799.0177,
1174.681,1801.1644,
1171.771,1820.7349,
1168.860,1798.4076,
1165.950,1760.7733,
1163.039,1743.8692,
1160.129,1775.0515,
1157.218,1781.9435,
1154.307,1763.9921,
1151.397,1750.1306,
1148.486,1707.6996,
1145.576,1712.1003,
1142.665,1754.7201,
1139.754,1731.4003,
1136.844,1731.5527,
1133.933,1723.1064,
1131.023,1718.5547,
1128.112,1713.3227,
1125.202,1691.2114,
1122.291,1679.2689,
1119.380,1728.2587,
1116.470,1729.1412,
1113.559,1709.9188,
1110.649,1740.2665,
1107.738,1759.7858,
1104.828,1751.5119,
1101.917,1746.9426,
1099.006,1764.8995,
1096.096,1762.4437,
1093.185,1749.2737,
1090.275,1735.3017,
1087.364,1725.3888,
1084.453,1745.8735,
1081.543,1758.5531,
1078.632,1760.6518,
1075.722,1772.7873,
1072.811,1739.6008,
1069.901,1786.7569,
1066.990,1821.7749,
1064.079,1812.2372,
1061.169,1827.999,
1058.258,1839.6273,
1055.348,1832.4835,
1052.437,1850.2533,
1049.527,1901.015,
1046.616,1894.9332,
1043.705,1902.7284,
1040.795,1877.7943,
1037.884,1884.5025,
1034.974,1913.6985,
1032.063,1925.7731,
1029.153,1924.8732,
1026.242,1930.0629,
1023.331,1964.4145,
1020.421,1967.0674,
1017.510,1959.6472,
1014.600,1958.2105,
1011.689,1971.0872,
1008.778,1997.6483,
1005.868,2024.2307,
1002.957,2133.4957,
1000.047,2171.362,
997.136,2212.1402,
994.226,2212.4965,
991.315,2197.0371,
988.404,2224.1423,
985.494,2212.4636,
982.583,2177.3448,
979.673,2151.0322,
976.762,2134.4435,
973.852,2130.018,
970.941,2141.7342,
968.030,2165.302,
965.120,2171.1641,
962.209,2150.7031,
959.299,2157.8737,
956.388,2148.8109,
953.477,2157.1573,
950.567,2178.7601,
947.656,2165.0326,
944.746,2178.6255,
941.835,2171.9617,
938.925,2201.1784,
936.014,2174.7606,
933.103,2148.08,
930.193,2169.8566,
927.282,2148.3417,
924.372,2150.0329,
921.461,2114.1664,
918.551,2119.8399,
915.640,2106.4785,
912.729,2084.7412,
909.819,2118.0225,
906.908,2070.8467,
903.998,2091.3156,
901.087,2087.0659,
898.176,2115.608,
895.266,2138.967,
892.355,2120.1865,
889.445,2183.9708,
886.534,2175.0664,
883.624,2188.7251,
880.713,2206.4571,
877.802,2224.5874,
874.892,2237.4923,
871.981,2224.4017,
869.071,2188.4789,
866.160,2218.1279,
863.250,2222.1933,
860.339,2208.0282,
857.428,2206.0762,
854.518,2221.7204,
851.607,2203.4149,
848.697,2186.4937,
845.786,2181.8069,
842.875,2183.5995,
839.965,2192.3328,
837.054,2229.4733,
834.144,2249.3633,
831.233,2240.5842,
828.323,2218.9183,
825.412,2213.8748,
822.501,2234.1648,
819.591,2222.5953,
816.680,2175.7756,
813.770,2162.3705,
810.859,2136.883,
807.949,2100.9109,
805.038,2084.6482,
802.127,2087.9407,
799.217,2086.7592,
796.306,2085.6824,
793.396,2087.1966,
790.485,2091.9346,
787.574,2098.8728,
784.664,2115.275,
781.753,2143.0764,
778.843,2119.9641,
775.932,2104.8546,
773.022,2154.3912,
770.111,2161.7494,
767.200,2173.6697,
764.290,2157.0243,
761.379,2144.6132,
758.469,2138.4145,
755.558,2100.6179,
752.648,2079.4382,
749.737,2062.1942,
746.826,2042.662,
743.916,2014.2888,
741.005,1965.8698,
738.095,1856.2665,
735.184,1658.0495,
732.274,1624.7441,
729.363,1733.5395,
726.452,1896.4225,
723.542,2008.1188,
720.631,2076.1777,
717.721,2105.5612,
714.810,2119.7215,
711.899,2129.4975,
708.989,2126.2698,
706.078,2079.7744,
703.168,2093.1461,
700.257,2112.5506,
697.347,2115.7284,
694.436,2109.2898,
691.525,2073.9224,
688.615,2113.4183,
685.704,2118.3702,
682.794,2087.0798,
679.883,2083.8267,
676.973,2096.6486,
674.062,2076.279,
671.151,2103.138,
668.241,2146.6261,
665.330,2122.2878,
662.420,2123.0865,
659.509,2124.5199,
656.598,2105.3435,
653.688,2095.8131,
650.777,2151.088,
647.867,2146.31,
644.956,2143.3925,
642.046,2124.0077,
639.135,2102.8614,
636.224,2120.3256,
633.314,2135.4104,
630.403,2155.8039,
627.493,2156.1118,
624.582,2143.7237,
621.672,2168.2755,
618.761,2192.8081,
615.850,2200.801,
612.940,2196.4685,
610.029,2188.0391,
607.119,2192.7769,
604.208,2255.0212,
601.297,2248.8434,
598.387,2214.9569,
595.476,2212.3697,
592.566,2245.4266,
589.655,2236.3485,
586.745,2221.3065,
583.834,2204.7841,
580.923,2177.9562,
578.013,2129.3027,
575.102,2106.499,
572.192,2129.2619,
569.281,2177.3448,
566.371,2144.4746,
563.460,2192.0437,
560.549,2200.5808,
557.639,2197.9925,
554.728,2229.1223,
551.818,2258.7743,
548.907,2282.923,
545.996,2296.1939,
543.086,2285.3257,
540.175,2220.6981,
537.265,2240.8755,
534.354,2255.7686,
531.444,2265.4299,
528.533,2275.2015,
525.622,2260.4585,
522.712,2288.1944,
519.801,2316.2695,
516.891,2324.2418,
513.980,2299.4644,
511.070,2335.2848,
508.159,2366.5321,
505.248,2390.2601,
502.338,2412.0633,
499.427,2439.8493,
496.517,2481.755,
493.606,2494.1173,
490.695,2466.7849,
487.785,2470.6339,
484.874,2480.9434,
481.964,2487.4958,
479.053,2483.1827,
476.143,2457.8399,
473.232,2483.5873,
470.321,2463.1091,
467.411,2435.3152,
464.500,2449.8427,
461.590,2433.7622,
458.679,2435.3032,
455.769,2455.3731,
452.858,2486.5002,
449.947,2469.6937,
447.037,2477.1717,
444.126,2475.3773,
441.216,2471.6268,
438.305,2537.1529,
435.395,2506.9118,
432.484,2497.9191,
429.573,2507.8599,
426.663,2480.4949,
423.752,2465.6965,
420.842,2489.4779,
417.931,2524.0345,
415.020,2523.2762,
412.110,2545.1984,
409.199,2572.8099,
406.289,2592.2661,
403.378,2589.1629,
400.468,2563.4591,
397.557,2595.3537,
394.646,2605.5074,
391.736,2529.4049,
388.825,2503.0068,
385.915,2455.8677,
383.004,2442.0947,
380.094,2497.2827,
377.183,2556.7284,
374.272,2577.5922,
371.362,2615.0976,
368.451,2695.5661,
365.541,2684.3081,
362.630,2682.8887,
359.719,2674.779,
356.809,2655.1045,
353.898,2702.2788,
350.988,2705.4852,
348.077,2696.0884,
345.167,2694.6123,
342.256,2721.5068,
339.345,2717.5585,
336.435,2695.0359,
333.524,2663.6258,
330.614,2675.5483,
327.703,2671.0355,
324.793,2672.2727,
321.882,2698.1995,
318.971,2677.3831,
316.061,2685.8761,
313.150,2697.631,
310.240,2682.7886,
307.329,2732.2746,
304.418,2738.5714,
301.508,2704.9207,
298.597,2639.764,
295.687,2599.7107,
292.776,2616.5835,
289.866,2685.8251,
286.955,2792.9403,
284.044,2893.0049,
281.134,2967.7999,
278.223,3019.118,
275.313,3072.9084,
272.402,3127.2368,
269.492,3161.1017,
266.581,3169.7199,
263.670,3204.2734,
260.760,3198.0561,
257.849,3189.9223,
254.939,3209.0033,
252.028,3224.4507,
249.117,3257.6596,
246.207,3286.2724,
243.296,3270.8996,
240.386,3258.1491,
237.475,3253.0184,
234.565,3248.3833,
231.654,3211.1337,
228.743,3146.8639,
225.833,3111.3479,
222.922,3124.1289,
220.012,3100.0865,
217.101,3073.6028,
214.191,3054.25,
211.280,3054.25,
208.369,3058.2869,
205.459,3041.4852,
202.548,3006.6065,
199.638,2968.1471,
196.727,3019.6002,
193.816,3059.3367,
190.906,3050.3516,
187.995,3053.2477,
185.085,3049.9943,
182.174,3042.5076,
179.264,3032.3889,
176.353,3002.4149,
173.442,3014.167,
170.532,3051.321,
167.621,2948.9425,
164.711,2894.9716,
161.800,2823.8174,
158.890,2684.91,
155.979,2520.0816,
153.068,2299.1263,
150.158,2040.5521,
147.247,1807.2176,
144.337,1478.6609,
141.426,1141.611,
138.516,834.78158,
135.605,591.25752,
132.694,405.7917,
129.784,270.41067,
126.873,178.87405,
123.963,129.52021,
121.052,88.969357,
118.141,45.421336,
115.231,44.53943,
112.320,39.590005,
109.410,33.386355,
106.499,34.09851,
103.589,35.930763,
100.678,31.817566,
97.767,17.598814,
94.857,21.407934,
91.946,17.606448,
89.036,10.153183,
86.125,15.826825,
83.215,15.126319,
80.304,16.123192,
77.393,24.621231,
74.483,14.767841,
71.572,9.25,
68.662,8.7651275,
65.751,3.81997,
62.840,10.920636,
59.930,18.564424,
57.019,12.218686,
54.109,14.235804,
51.198,14.741954,
48.288,11.25,
45.377,11.25,
42.466,7.5400259,
39.556,2.8255929,
36.645,6.336544,
33.735,7.7692485,
30.824,6.2620172,
27.914,-0.048559968,
25.003,-0.75,
22.092,1.1874273,
19.182,5.0440542,
16.271,-1.251357,
13.361,0.043121792,
10.450,-19.388901,
7.539,-162.54355,
4.629,-291.65585,
1.718,-425.21739,
-1.192,-579.98348,
-4.103,-433.85623,
-7.013,-227.33468,
-9.924,0.25,
