,PL3CE0~1,
Raman shift [1/cm],Intensity,
3014.167,0.25,
3011.256,-0.70009663,
3008.346,135.50879,
3005.435,160.47968,
3002.525,175.85515,
2999.614,177.25906,
2996.704,172.83453,
2993.793,185.5939,
2990.882,194.56306,
2987.972,206.23991,
2985.061,198.0431,
2982.151,196.41471,
2979.240,224.14923,
2976.329,234.26092,
2973.419,241.77324,
2970.508,239.56664,
2967.598,228.49257,
2964.687,253.25,
2961.777,257.77996,
2958.866,254.57393,
2955.955,257.38497,
2953.045,284.49831,
2950.134,272.25,
2947.224,297.30694,
2944.313,299.69943,
2941.403,312.41697,
2938.492,325.54811,
2935.581,330.54571,
2932.671,313.40879,
2929.760,312.06155,
2926.850,324.7797,
2923.939,344.17056,
2921.028,323.7557,
2918.118,346.64798,
2915.207,344.96537,
2912.297,344.29654,
2909.386,372.04562,
2906.476,346.87082,
2903.565,351.76555,
2900.654,354.52099,
2897.744,364.01113,
2894.833,341.53873,
2891.923,347.6026,
2889.012,337.78757,
2886.102,346.41757,
2883.191,331.26133,
2880.280,327.18779,
2877.370,303.6919,
2874.459,314.95442,
2871.549,334.0923,
2868.638,353.88711,
2865.727,359.33075,
2862.817,351.40643,
2859.906,369.27564,
2856.996,367.29529,
2854.085,359.01051,
2851.175,371.87046,
2848.264,363.19584,
2845.353,365.73239,
2842.443,351.43398,
2839.532,363.69777,
2836.622,337.25,
2833.711,329.88735,
2830.801,338.5375,
2827.890,357.79196,
2824.979,351.54605,
2822.069,358.37509,
2819.158,360.1287,
2816.248,348.23842,
2813.337,368.02317,
2810.427,364.33816,
2807.516,360.56656,
2804.605,357.11058,
2801.695,373.34212,
2798.784,363.35885,
2795.874,369.25,
2792.963,364.10702,
2790.052,351.25214,
2787.142,363.02635,
2784.231,363.41149,
2781.321,360.68426,
2778.410,358.88958,
2775.500,351.40104,
2772.589,366.94266,
2769.678,369.92919,
2766.768,371.30826,
2763.857,370.56599,
2760.947,377.78467,
2758.036,362.91867,
2755.126,375.86325,
2752.215,388.59088,
2749.304,391.48381,
2746.394,378.28632,
2743.483,372.19998,
2740.573,378.91152,
2737.662,366.36686,
2734.751,375.2742,
2731.841,368.5467,
2728.930,394.37285,
2726.020,392.13252,
2723.109,395.22925,
2720.199,398.58447,
2717.288,385.7938,
2714.377,390.6041,
2711.467,401.4467,
2708.556,404.85632,
2705.646,405.55985,
2702.735,410.41753,
2699.825,418.58639,
2696.914,420.58317,
2694.003,409.69064,
2691.093,413.30296,
2688.182,401.83222,
2685.272,418.04658,
2682.361,420.94432,
2679.450,403.46402,
2676.540,415.27032,
2673.629,415.91816,
2670.719,414.60767,
2667.808,420.90955,
2664.898,405.62646,
2661.987,417.51671,
2659.076,420.99569,
2656.166,421.83011,
2653.255,434.50171,
2650.345,427.02495,
2647.434,441.50722,
2644.524,442.31954,
2641.613,444.73586,
2638.702,453.15531,
2635.792,432.62388,
2632.881,441.82737,
2629.971,443.12249,
2627.060,453.41843,
2624.149,439.70937,
2621.239,437.24407,
2618.328,461.74135,
2615.418,441.2909,
2612.507,433.17882,
2609.597,454.68912,
2606.686,454.05522,
2603.775,465.25398,
2600.865,462.95985,
2597.954,477.48337,
2595.044,465.22343,
2592.133,473.08441,
2589.223,469.7921,
2586.312,476.5917,
2583.401,478.25,
2580.491,470.9904,
2577.580,486.2302,
2574.670,473.14305,
2571.759,480.70975,
2568.848,469.49299,
2565.938,489.67861,
2563.027,491.20223,
2560.117,481.64248,
2557.206,497.27583,
2554.296,506.07151,
2551.385,485.44809,
2548.474,494.43513,
2545.564,506.80682,
2542.653,510.01846,
2539.743,505.29929,
2536.832,490.67803,
2533.922,508.455,
2531.011,518.77521,
2528.100,524.51136,
2525.190,505.2082,
2522.279,534.98375,
2519.369,504.11824,
2516.458,513.37606,
2513.548,527.82276,
2510.637,531.32776,
2507.726,516.31319,
2504.816,521.00085,
2501.905,510.01829,
2498.995,523.69731,
2496.084,505.07582,
2493.173,531.51358,
2490.263,535.86807,
2487.352,543.66573,
2484.442,533.38275,
2481.531,542.82977,
2478.621,541.1789,
2475.710,545.15799,
2472.799,532.26346,
2469.889,534.58242,
2466.978,543.85821,
2464.068,540.46162,
2461.157,557.55507,
2458.247,547.10295,
2455.336,558.80187,
2452.425,549.98583,
2449.515,565.75935,
2446.604,560.83987,
2443.694,565.22699,
2440.783,576.72748,
2437.872,569.61465,
2434.962,581.35138,
2432.051,575.54608,
2429.141,570.36756,
2426.230,581.66328,
2423.320,592.76396,
2420.409,597.92965,
2417.498,580.06179,
2414.588,587.87733,
2411.677,591.28586,
2408.767,597.56201,
2405.856,609.02859,
2402.946,597.4046,
2400.035,599.64437,
2397.124,614.99333,
2394.214,594.11599,
2391.303,590.85231,
2388.393,588.20816,
2385.482,623.7519,
2382.571,602.8697,
2379.661,616.41288,
2376.750,612.3017,
2373.840,634.07491,
2370.929,619.46659,
2368.019,630.10466,
2365.108,634.39136,
2362.197,618.63905,
2359.287,633.02326,
2356.376,632.25704,
2353.466,650.77904,
2350.555,658.97963,
2347.645,631.40896,
2344.734,642.16249,
2341.823,643.31633,
2338.913,661.96045,
2336.002,663.76676,
2333.092,655.61792,
2330.181,658.79474,
2327.270,670.69995,
2324.360,671.71227,
2321.449,660.49488,
2318.539,659.57113,
2315.628,665.88069,
2312.718,684.33151,
2309.807,673.84012,
2306.896,669.76174,
2303.986,677.29548,
2301.075,668.90962,
2298.165,670.8271,
2295.254,676.18537,
2292.344,688.9802,
2289.433,704.17272,
2286.522,681.68306,
2283.612,692.36099,
2280.701,687.86437,
2277.791,711.04963,
2274.880,703.68205,
2271.969,696.57099,
2269.059,710.86309,
2266.148,733.11143,
2263.238,732.85232,
2260.327,736.73255,
2257.417,722.41777,
2254.506,739.41808,
2251.595,743.24268,
2248.685,756.61536,
2245.774,720.50342,
2242.864,735.31484,
2239.953,734.20176,
2237.043,741.66677,
2234.132,768.65517,
2231.221,761.59103,
2228.311,777.25642,
2225.400,778.10927,
2222.490,775.29239,
2219.579,787.66904,
2216.669,799.72377,
2213.758,809.81602,
2210.847,799.35329,
2207.937,813.51708,
2205.026,829.02726,
2202.116,849.28077,
2199.205,860.88788,
2196.294,861.67998,
2193.384,900.22255,
2190.473,905.52817,
2187.563,950.16783,
2184.652,935.20796,
2181.742,957.18317,
2178.831,991.60412,
2175.920,1030.811,
2173.010,1065.0261,
2170.099,1104.9127,
2167.189,1138.5872,
2164.278,1194.9344,
2161.368,1269.8192,
2158.457,1330.2297,
2155.546,1362.7039,
2152.636,1422.7233,
2149.725,1458.3976,
2146.815,1502.8151,
2143.904,1530.4545,
2140.993,1551.7261,
2138.083,1585.5205,
2135.172,1583.7542,
2132.262,1582.6241,
2129.351,1561.8602,
2126.441,1481.9197,
2123.530,1452.5092,
2120.619,1382.0209,
2117.709,1320.7717,
2114.798,1214.0574,
2111.888,1141.5263,
2108.977,1089.7268,
2106.067,1038.3311,
2103.156,1020.0912,
2100.245,967.2431,
2097.335,950.59032,
2094.424,911.40415,
2091.514,907.5241,
2088.603,888.72465,
2085.692,895.16075,
2082.782,873.09755,
2079.871,893.46586,
2076.961,861.89769,
2074.050,907.31061,
2071.140,869.89363,
2068.229,871.88933,
2065.318,865.188,
2062.408,851.8786,
2059.497,854.67264,
2056.587,871.47078,
2053.676,859.73428,
2050.766,875.63341,
2047.855,824.70567,
2044.944,839.05289,
2042.034,835.75295,
2039.123,848.2096,
2036.213,841.15443,
2033.302,839.96735,
2030.391,840.31785,
2027.481,847.43285,
2024.570,872.16371,
2021.660,825.44298,
2018.749,863.26225,
2015.839,840.40223,
2012.928,854.70973,
2010.017,859.17183,
2007.107,860.22569,
2004.196,851.20237,
2001.286,828.70587,
1998.375,822.20866,
1995.465,848.06161,
1992.554,812.17978,
1989.643,848.7292,
1986.733,831.64474,
1983.822,807.76403,
1980.912,829.32873,
1978.001,810.50418,
1975.090,809.66374,
1972.180,810.04254,
1969.269,818.51438,
1966.359,808.57417,
1963.448,810.28567,
1960.538,814.87302,
1957.627,827.73298,
1954.716,826.33618,
1951.806,790.59775,
1948.895,796.10224,
1945.985,793.15196,
1943.074,812.25,
1940.164,804.77868,
1937.253,772.7417,
1934.342,773.96817,
1931.432,775.00394,
1928.521,759.19819,
1925.611,784.03547,
1922.700,771.88122,
1919.790,803.28426,
1916.879,797.15674,
1913.968,780.26967,
1911.058,800.87161,
1908.147,765.39013,
1905.237,758.61033,
1902.326,768.91076,
1899.415,745.45123,
1896.505,758.33429,
1893.594,757.70124,
1890.684,766.83168,
1887.773,783.68929,
1884.863,780.21811,
1881.952,772.25,
1879.041,778.30192,
1876.131,755.00426,
1873.220,737.04641,
1870.310,752.88674,
1867.399,761.13804,
1864.489,774.8731,
1861.578,785.48663,
1858.667,739.83682,
1855.757,750.42422,
1852.846,768.19362,
1849.936,753.99272,
1847.025,794.78042,
1844.114,790.65235,
1841.204,795.30944,
1838.293,796.25665,
1835.383,800.99399,
1832.472,800.54043,
1829.562,803.55443,
1826.651,836.96865,
1823.740,840.05841,
1820.830,795.352,
1817.919,784.06438,
1815.009,817.64312,
1812.098,777.4705,
1809.188,807.89333,
1806.277,778.95822,
1803.366,852.58455,
1800.456,814.89872,
1797.545,837.99495,
1794.635,794.89314,
1791.724,849.78403,
1788.813,832.85077,
1785.903,840.87787,
1782.992,857.90871,
1780.082,845.21213,
1777.171,825.91756,
1774.261,830.71003,
1771.350,844.72675,
1768.439,856.29172,
1765.529,873.25471,
1762.618,893.58748,
1759.708,870.47813,
1756.797,865.7803,
1753.887,891.9949,
1750.976,906.07068,
1748.065,902.79224,
1745.155,873.78568,
1742.244,880.76264,
1739.334,863.49236,
1736.423,895.46863,
1733.512,920.7988,
1730.602,929.98215,
1727.691,906.14954,
1724.781,932.85937,
1721.870,946.27383,
1718.960,941.49438,
1716.049,985.55463,
1713.138,987.41003,
1710.228,956.6599,
1707.317,943.40429,
1704.407,976.38909,
1701.496,991.18857,
1698.586,998.71789,
1695.675,1005.8,
1692.764,1002.4631,
1689.854,1000.3366,
1686.943,1037.9347,
1684.033,1026.5729,
1681.122,1062.6213,
1678.211,1058.2976,
1675.301,1142.9879,
1672.390,1149.1752,
1669.480,1124.6591,
1666.569,1175.4531,
1663.659,1191.4623,
1660.748,1205.6769,
1657.837,1278.6874,
1654.927,1298.1797,
1652.016,1294.7883,
1649.106,1277.6699,
1646.195,1334.8494,
1643.285,1360.2526,
1640.374,1403.6263,
1637.463,1421.9706,
1634.553,1462.2992,
1631.642,1533.1729,
1628.732,1617.73,
1625.821,1698.3272,
1622.911,1815.5851,
1620.000,1964.3602,
1617.089,2083.8619,
1614.179,2203.8377,
1611.268,2368.0413,
1608.358,2465.755,
1605.447,2537.1934,
1602.536,2530.9992,
1599.626,2587.2858,
1596.715,2585.8968,
1593.805,2525.3298,
1590.894,2497.1139,
1587.984,2463.0707,
1585.073,2421.6649,
1582.162,2459.499,
1579.252,2361.0526,
1576.341,2365.2872,
1573.431,2390.263,
1570.520,2368.4968,
1567.610,2331.1907,
1564.699,2299.4991,
1561.788,2284.2078,
1558.878,2197.9529,
1555.967,2110.3608,
1553.057,2138.1977,
1550.146,2091.432,
1547.235,2016.095,
1544.325,1983.6772,
1541.414,1943.0068,
1538.504,1896.6979,
1535.593,1856.7996,
1532.683,1813.1991,
1529.772,1819.162,
1526.861,1835.0986,
1523.951,1756.7416,
1521.040,1703.6103,
1518.130,1722.3951,
1515.219,1698.2907,
1512.309,1660.8806,
1509.398,1618.3241,
1506.487,1617.9038,
1503.577,1601.6299,
1500.666,1615.2061,
1497.756,1570.4538,
1494.845,1606.4485,
1491.934,1538.9728,
1489.024,1454.2735,
1486.113,1469.7943,
1483.203,1497.0069,
1480.292,1462.9155,
1477.382,1441.7015,
1474.471,1429.0415,
1471.560,1369.648,
1468.650,1353.0329,
1465.739,1319.3826,
1462.829,1319.5418,
1459.918,1335.46,
1457.008,1346.8963,
1454.097,1342.8474,
1451.186,1319.3486,
1448.276,1334.0778,
1445.365,1379.2145,
1442.455,1385.3498,
1439.544,1368.2072,
1436.633,1280.5131,
1433.723,1316.8973,
1430.812,1267.6142,
1427.902,1296.3029,
1424.991,1256.4969,
1422.081,1231.3956,
1419.170,1270.7249,
1416.259,1220.5456,
1413.349,1243.5016,
1410.438,1216.0623,
1407.528,1215.3435,
1404.617,1210.7461,
1401.707,1199.6602,
1398.796,1189.7535,
1395.885,1198.4391,
1392.975,1251.522,
1390.064,1282.1199,
1387.154,1227.6046,
1384.243,1195.6286,
1381.332,1185.2219,
1378.422,1242.2644,
1375.511,1261.9368,
1372.601,1385.7404,
1369.690,1447.6833,
1366.780,1425.3606,
1363.869,1440.4973,
1360.958,1513.291,
1358.048,1545.0634,
1355.137,1564.226,
1352.227,1619.7666,
1349.316,1688.7462,
1346.406,1720.5444,
1343.495,1729.9173,
1340.584,1800.3572,
1337.674,1794.4276,
1334.763,1783.5195,
1331.853,1895.7145,
1328.942,1926.9339,
1326.032,1940.0374,
1323.121,1997.8223,
1320.210,2027.9047,
1317.300,2052.1374,
1314.389,2067.8195,
1311.479,2115.6866,
1308.568,2184.3074,
1305.657,2214.6121,
1302.747,2261.8186,
1299.836,2335.7808,
1296.926,2426.831,
1294.015,2460.8459,
1291.105,2565.2734,
1288.194,2654.3318,
1285.283,2741.2703,
1282.373,2801.1561,
1279.462,2852.0925,
1276.552,2914.4864,
1273.641,2962.3237,
1270.731,2988.4217,
1267.820,3011.8773,
1264.909,2952.4038,
1261.999,2947.6148,
1259.088,2985.0118,
1256.178,2912.7383,
1253.267,2841.1759,
1250.356,2759.5881,
1247.446,2655.9091,
1244.535,2571.0492,
1241.625,2496.476,
1238.714,2398.5752,
1235.804,2306.0753,
1232.893,2267.6337,
1229.982,2226.5022,
1227.072,2174.8994,
1224.161,2124.1818,
1221.251,2082.4916,
1218.340,2060.2372,
1215.430,2021.7684,
1212.519,1995.25,
1209.608,1992.7694,
1206.698,1988.7607,
1203.787,1990.7173,
1200.877,1995.5346,
1197.966,2032.4001,
1195.055,2124.6944,
1192.145,2137.2446,
1189.234,2187.5046,
1186.324,2246.3439,
1183.413,2272.25,
1180.503,2285.7402,
1177.592,2300.4013,
1174.681,2258.7158,
1171.771,2240.8791,
1168.860,2224.8035,
1165.950,2211.1557,
1163.039,2150.2826,
1160.129,2122.3007,
1157.218,2112.5582,
1154.307,2096.0874,
1151.397,2084.3354,
1148.486,2082.7572,
1145.576,2039.0165,
1142.665,2010.6033,
1139.754,2029.4043,
1136.844,1985.9291,
1133.933,1974.6341,
1131.023,1974.1686,
1128.112,1942.682,
1125.202,1918.1243,
1122.291,1973.3726,
1119.380,1967.0421,
1116.470,1945.8614,
1113.559,1971.087,
1110.649,1960.9143,
1107.738,1971.6111,
1104.828,1999.6525,
1101.917,2008.9243,
1099.006,1992.5697,
1096.096,1975.5725,
1093.185,1980.8405,
1090.275,2007.1466,
1087.364,2020.1112,
1084.453,2001.3139,
1081.543,1986.8793,
1078.632,1985.8625,
1075.722,1970.044,
1072.811,1944.3669,
1069.901,1960.0856,
1066.990,2021.0665,
1064.079,2052.9434,
1061.169,2074.5052,
1058.258,2074.6629,
1055.348,2076.7117,
1052.437,2116.25,
1049.527,2116.8206,
1046.616,2131.5907,
1043.705,2124.7716,
1040.795,2130.5506,
1037.884,2150.9279,
1034.974,2160.2912,
1032.063,2157.642,
1029.153,2180.6268,
1026.242,2175.4371,
1023.331,2171.9169,
1020.421,2237.4746,
1017.510,2271.2925,
1014.600,2273.9812,
1011.689,2280.232,
1008.778,2318.2832,
1005.868,2423.6361,
1002.957,2466.6538,
1000.047,2530.762,
997.136,2585.7276,
994.226,2640.9264,
991.315,2666.5495,
988.404,2628.2784,
985.494,2591.8664,
982.583,2574.7353,
979.673,2571.5184,
976.762,2557.7467,
973.852,2547.366,
970.941,2554.5487,
968.030,2573.9494,
965.120,2572.3288,
962.209,2591.0847,
959.299,2582.2098,
956.388,2586.7694,
953.477,2591.7838,
950.567,2584.0672,
947.656,2573.0299,
944.746,2578.9768,
941.835,2598.6855,
938.925,2563.767,
936.014,2558.9306,
933.103,2573.8969,
930.193,2564.2609,
927.282,2525.317,
924.372,2471.1981,
921.461,2433.3212,
918.551,2428.6403,
915.640,2397.9797,
912.729,2341.6626,
909.819,2320.3629,
906.908,2336.369,
903.998,2341.2268,
901.087,2357.5261,
898.176,2391.5413,
895.266,2441.7853,
892.355,2495.59,
889.445,2524.1251,
886.534,2533.4336,
883.624,2537.2685,
880.713,2549.9882,
877.802,2556.7339,
874.892,2560.3839,
871.981,2613.5398,
869.071,2583.4649,
866.160,2554.7914,
863.250,2530.0965,
860.339,2518.6819,
857.428,2522.2065,
854.518,2524.902,
851.607,2478.3061,
848.697,2461.9962,
845.786,2426.5931,
842.875,2416.8247,
839.965,2445.5265,
837.054,2410.4547,
834.144,2428.6872,
831.233,2414.9179,
828.323,2400.3151,
825.412,2377.186,
822.501,2337.3776,
819.591,2315.8912,
816.680,2350.5065,
813.770,2289.7082,
810.859,2231.1029,
807.949,2216.5891,
805.038,2237.9292,
802.127,2276.6162,
799.217,2245.962,
796.306,2256.3853,
793.396,2259.2346,
790.485,2230.0903,
787.574,2204.2153,
784.664,2229.6387,
781.753,2210.0946,
778.843,2220.3037,
775.932,2233.065,
773.022,2209.8696,
770.111,2207.4169,
767.200,2200.3982,
764.290,2201.1394,
761.379,2236.3349,
758.469,2278.0423,
755.558,2242.1073,
752.648,2203.8209,
749.737,2207.3474,
746.826,2193.2025,
743.916,2144.8405,
741.005,2068.2454,
738.095,1970.8202,
735.184,1837.6899,
732.274,1782.4133,
729.363,1845.5135,
726.452,1996.8678,
723.542,2077.8071,
720.631,2102.128,
717.721,2150.0677,
714.810,2191.909,
711.899,2204.547,
708.989,2184.3739,
706.078,2182.6474,
703.168,2162.2117,
700.257,2152.138,
697.347,2150.5984,
694.436,2129.6172,
691.525,2106.3068,
688.615,2110.6837,
685.704,2121.4303,
682.794,2116.0799,
679.883,2077.872,
676.973,2113.9336,
674.062,2094.4506,
671.151,2086.7016,
668.241,2104.8269,
665.330,2131.5693,
662.420,2117.1921,
659.509,2128.2185,
656.598,2117.209,
653.688,2096.1607,
650.777,2109.52,
647.867,2117.4833,
644.956,2116.1542,
642.046,2101.3975,
639.135,2093.5208,
636.224,2132.2779,
633.314,2137.8354,
630.403,2142.7973,
627.493,2156.0041,
624.582,2170.778,
621.672,2159.6901,
618.761,2185.0879,
615.850,2202.0658,
612.940,2220.1791,
610.029,2242.3022,
607.119,2248.6192,
604.208,2230.7897,
601.297,2254.6566,
598.387,2270.1986,
595.476,2226.9817,
592.566,2192.3507,
589.655,2186.25,
586.745,2175.4008,
583.834,2150.71,
580.923,2113.3827,
578.013,2135.3552,
575.102,2145.8387,
572.192,2147.4636,
569.281,2146.2184,
566.371,2157.1751,
563.460,2198.4617,
560.549,2209.8899,
557.639,2208.0099,
554.728,2220.0238,
551.818,2248.1151,
548.907,2259.1253,
545.996,2262.6388,
543.086,2262.7467,
540.175,2260.4108,
537.265,2297.9125,
534.354,2325.294,
531.444,2331.0049,
528.533,2315.0091,
525.622,2353.8065,
522.712,2403.5092,
519.801,2415.7386,
516.891,2402.4228,
513.980,2452.7521,
511.070,2465.7022,
508.159,2529.9009,
505.248,2596.7507,
502.338,2599.357,
499.427,2637.1768,
496.517,2656.8662,
493.606,2675.0177,
490.695,2699.0316,
487.785,2719.0462,
484.874,2735.1745,
481.964,2741.4194,
479.053,2732.1602,
476.143,2698.3699,
473.232,2712.7963,
470.321,2692.9749,
467.411,2659.9315,
464.500,2645.5106,
461.590,2695.2837,
458.679,2703.1968,
455.769,2722.825,
452.858,2768.6147,
449.947,2695.2772,
447.037,2705.7339,
444.126,2731.4924,
441.216,2747.5146,
438.305,2749.0384,
435.395,2755.1507,
432.484,2776.1703,
429.573,2808.1726,
426.663,2837.8181,
423.752,2853.501,
420.842,2858.7933,
417.931,2859.1119,
415.020,2862.1453,
412.110,2894.441,
409.199,2932.6558,
406.289,2967.3834,
403.378,2989.2449,
400.468,2987.7329,
397.557,2989.3066,
394.646,2979.1294,
391.736,2946.1051,
388.825,2941.5797,
385.915,2930.1383,
383.004,2934.6705,
380.094,2968.7874,
377.183,2979.3221,
374.272,3063.6671,
371.362,3141.9628,
368.451,3168.487,
365.541,3221.775,
362.630,3223.6865,
359.719,3224.2008,
356.809,3249.6157,
353.898,3239.1325,
350.988,3238.4199,
348.077,3223.4063,
345.167,3183.8772,
342.256,3216.0011,
339.345,3239.5987,
336.435,3237.8152,
333.524,3200.9312,
330.614,3222.5407,
327.703,3227.7098,
324.793,3225.2188,
321.882,3222.4519,
318.971,3305.7175,
316.061,3305.4395,
313.150,3299.7309,
310.240,3378.3952,
307.329,3421.9843,
304.418,3440.5298,
301.508,3450.3393,
298.597,3476.9943,
295.687,3467.7369,
292.776,3500.5835,
289.866,3586.1666,
286.955,3737.6053,
284.044,3886.3824,
281.134,4017.6446,
278.223,4134.7583,
275.313,4268.1291,
272.402,4352.0167,
269.492,4431.5397,
266.581,4523.9224,
263.670,4631.2587,
260.760,4692.0258,
257.849,4724.3825,
254.939,4739.0602,
252.028,4785.5761,
249.117,4763.506,
246.207,4725.9099,
243.296,4763.2438,
240.386,4678.4431,
237.475,4615.1141,
234.565,4575.2158,
231.654,4486.109,
228.743,4425.2481,
225.833,4354.3086,
222.922,4259.2411,
220.012,4173.2716,
217.101,4139.8521,
214.191,4122.2292,
211.280,4082.2187,
208.369,4027.4434,
205.459,3965.9182,
202.548,3923.0328,
199.638,3991.2438,
196.727,3971.2533,
193.816,3957.6889,
190.906,3983.8945,
187.995,3973.7581,
185.085,4016.117,
182.174,4070.7759,
179.264,4083.7857,
176.353,4047.444,
173.442,4067.9441,
170.532,4137.4697,
167.621,4105.0258,
164.711,4038.9631,
161.800,3946.4531,
158.890,3826.9783,
155.979,3637.7472,
153.068,3399.0722,
150.158,3105.6568,
147.247,2720.1165,
144.337,2319.7414,
141.426,1877.575,
138.516,1375.0342,
135.605,991.91669,
132.694,684.94798,
129.784,449.42488,
126.873,296.38709,
123.963,194.11623,
121.052,127.50198,
118.141,95.376395,
115.231,73.222319,
112.320,57.048189,
109.410,45.204671,
106.499,34.522343,
103.589,38.973054,
100.678,39.089188,
97.767,25.581374,
94.857,25.942989,
91.946,22.622002,
89.036,17.137102,
86.125,16.427897,
83.215,15.71908,
80.304,15.728865,
77.393,17.145205,
74.483,18.56027,
71.572,18.887648,
68.662,17.626593,
65.751,11.268533,
62.840,10.213404,
59.930,11.999145,
57.019,14.819473,
54.109,9.2783915,
51.198,5.8532186,
48.288,7.2952995,
45.377,12.922324,
42.466,12.776684,
39.556,9.5953557,
36.645,11.701926,
33.735,11.211503,
30.824,10.470887,
27.914,11.172062,
25.003,14.985825,
22.092,17.25,
19.182,17.661892,
16.271,30.252714,
13.361,119.5416,
10.450,302.91683,
7.539,696.06838,
4.629,915.97209,
1.718,915.49276,
-1.192,554.37189,
-4.103,304.07305,
-7.013,120.26217,
-9.924,1.25,
