,PL3DB8~1,
Raman shift [1/cm],Intensity,
3014.167,-0.125,
3011.256,-1.3250429,
3008.346,413.53105,
3005.435,504.76193,
3002.525,527.76258,
2999.614,547.35033,
2996.704,559.77809,
2993.793,552.13191,
2990.882,572.85959,
2987.972,596.05157,
2985.061,629.54495,
2982.151,629.63635,
2979.240,655.68771,
2976.329,693.40503,
2973.419,709.32121,
2970.508,717.97494,
2967.598,729.45211,
2964.687,756.57677,
2961.777,770.90083,
2958.866,786.87203,
2955.955,809.08737,
2953.045,835.91081,
2950.134,871.46104,
2947.224,877.38385,
2944.313,922.58298,
2941.403,933.99452,
2938.492,951.47122,
2935.581,973.4394,
2932.671,943.4802,
2929.760,990.19042,
2926.850,1020.1957,
2923.939,1012.389,
2921.028,1037.4986,
2918.118,1021.9795,
2915.207,1070.6473,
2912.297,1086.8411,
2909.386,1066.6487,
2906.476,1066.3553,
2903.565,1070.8439,
2900.654,1053.7102,
2897.744,1060.5481,
2894.833,1049.3077,
2891.923,1065.8205,
2889.012,1029.453,
2886.102,1045.6669,
2883.191,1045.8741,
2880.280,1006.2673,
2877.370,970.77046,
2874.459,974.40332,
2871.549,1022.1387,
2868.638,1057.8296,
2865.727,1081.2904,
2862.817,1086.1905,
2859.906,1093.5958,
2856.996,1089.3139,
2854.085,1100.2342,
2851.175,1130.7727,
2848.264,1108.0027,
2845.353,1058.7887,
2842.443,1070.0485,
2839.532,1081.2333,
2836.622,1092.9368,
2833.711,1068.8985,
2830.801,1068.8529,
2827.890,1081.1075,
2824.979,1081.8251,
2822.069,1082.7727,
2819.158,1083.3764,
2816.248,1113.8171,
2813.337,1097.1945,
2810.427,1093.3089,
2807.516,1091.5081,
2804.605,1105.101,
2801.695,1095.1644,
2798.784,1094.0618,
2795.874,1089.4291,
2792.963,1109.7322,
2790.052,1088.8799,
2787.142,1051.2961,
2784.231,1061.6809,
2781.321,1040.0122,
2778.410,1082.6643,
2775.500,1078.7285,
2772.589,1072.8001,
2769.678,1109.8374,
2766.768,1090.2788,
2763.857,1108.821,
2760.947,1111.4601,
2758.036,1120.6393,
2755.126,1124.9605,
2752.215,1141.834,
2749.304,1149.5764,
2746.394,1142.6854,
2743.483,1148.075,
2740.573,1140.875,
2737.662,1145.0022,
2734.751,1156.4332,
2731.841,1135.4684,
2728.930,1160.6504,
2726.020,1156.5382,
2723.109,1157.4213,
2720.199,1201.0312,
2717.288,1187.667,
2714.377,1189.9039,
2711.467,1206.1047,
2708.556,1201.4813,
2705.646,1200.4947,
2702.735,1213.3724,
2699.825,1217.7223,
2696.914,1220.0177,
2694.003,1218.9758,
2691.093,1224.0362,
2688.182,1246.2757,
2685.272,1220.5208,
2682.361,1217.8805,
2679.450,1230.089,
2676.540,1239.7734,
2673.629,1241.1799,
2670.719,1242.9554,
2667.808,1237.8264,
2664.898,1247.1221,
2661.987,1253.3755,
2659.076,1284.222,
2656.166,1281.4551,
2653.255,1284.0196,
2650.345,1306.4195,
2647.434,1300.3037,
2644.524,1303.7167,
2641.613,1293.6462,
2638.702,1290.8592,
2635.792,1318.875,
2632.881,1295.2028,
2629.971,1312.7745,
2627.060,1309.0416,
2624.149,1307.5781,
2621.239,1336.4373,
2618.328,1319.2141,
2615.418,1331.8523,
2612.507,1351.8038,
2609.597,1311.5576,
2606.686,1373.1742,
2603.775,1372.2798,
2600.865,1380.9944,
2597.954,1362.7436,
2595.044,1404.5003,
2592.133,1407.1488,
2589.223,1411.7908,
2586.312,1415.8248,
2583.401,1416.1999,
2580.491,1421.6154,
2577.580,1437.8453,
2574.670,1424.0261,
2571.759,1428.8194,
2568.848,1418.1125,
2565.938,1434.0178,
2563.027,1445.2409,
2560.117,1432.5292,
2557.206,1443.8602,
2554.296,1462.6439,
2551.385,1445.3049,
2548.474,1476.9869,
2545.564,1487.0966,
2542.653,1494.4958,
2539.743,1496.912,
2536.832,1474.9965,
2533.922,1491.0169,
2531.011,1494.6504,
2528.100,1504.8646,
2525.190,1510.8541,
2522.279,1528.0626,
2519.369,1526.7432,
2516.458,1528.7737,
2513.548,1505.0846,
2510.637,1534.3669,
2507.726,1544.9977,
2504.816,1534.9979,
2501.905,1531.614,
2498.995,1520.2485,
2496.084,1538.5022,
2493.173,1544.1386,
2490.263,1562.0547,
2487.352,1579.2073,
2484.442,1572.7037,
2481.531,1587.5027,
2478.621,1588.5528,
2475.710,1605.9593,
2472.799,1616.6284,
2469.889,1623.1465,
2466.978,1630.875,
2464.068,1640.4518,
2461.157,1624.0348,
2458.247,1643.4779,
2455.336,1644.1079,
2452.425,1637.2854,
2449.515,1639.0455,
2446.604,1670.9902,
2443.694,1686.5033,
2440.783,1676.2523,
2437.872,1675.443,
2434.962,1710.8335,
2432.051,1688.9984,
2429.141,1695.9748,
2426.230,1714.8971,
2423.320,1726.132,
2420.409,1724.9328,
2417.498,1728.6278,
2414.588,1738.24,
2411.677,1715.9507,
2408.767,1743.6102,
2405.856,1742.2202,
2402.946,1755.1431,
2400.035,1778.7553,
2397.124,1747.1744,
2394.214,1797.0894,
2391.303,1797.4881,
2388.393,1804.4099,
2385.482,1774.1528,
2382.571,1781.7361,
2379.661,1785.7585,
2376.750,1818.9784,
2373.840,1845.2687,
2370.929,1854.8317,
2368.019,1838.439,
2365.108,1881.7363,
2362.197,1884.6257,
2359.287,1887.8834,
2356.376,1872.8997,
2353.466,1864.7824,
2350.555,1884.1348,
2347.645,1889.9001,
2344.734,1914.6354,
2341.823,1893.3062,
2338.913,1949.9869,
2336.002,1945.5042,
2333.092,1953.8863,
2330.181,1962.3839,
2327.270,1998.7848,
2324.360,1959.0589,
2321.449,1991.7661,
2318.539,1987.0891,
2315.628,2003.8494,
2312.718,2006.875,
2309.807,1999.0116,
2306.896,2007.6778,
2303.986,2010.4722,
2301.075,2010.0877,
2298.165,2007.1151,
2295.254,1962.7583,
2292.344,2015.9787,
2289.433,2030.6086,
2286.522,2051.9821,
2283.612,2071.7462,
2280.701,2076.2786,
2277.791,2072.3578,
2274.880,2106.591,
2271.969,2099.554,
2269.059,2136.093,
2266.148,2155.4727,
2263.238,2138.2804,
2260.327,2143.9783,
2257.417,2134.4844,
2254.506,2154.2027,
2251.595,2171.4459,
2248.685,2179.2404,
2245.774,2175.5674,
2242.864,2196.5608,
2239.953,2221.5577,
2237.043,2227.7714,
2234.132,2227.8179,
2231.221,2248.4565,
2228.311,2275.402,
2225.400,2258.4098,
2222.490,2288.9437,
2219.579,2345.294,
2216.669,2364.3154,
2213.758,2381.441,
2210.847,2405.6382,
2207.937,2425.2642,
2205.026,2420.8732,
2202.116,2474.1192,
2199.205,2490.5249,
2196.294,2518.1649,
2193.384,2541.4275,
2190.473,2560.0346,
2187.563,2658.0973,
2184.652,2712.4599,
2181.742,2789.2422,
2178.831,2901.7234,
2175.920,3033.4834,
2173.010,3185.4827,
2170.099,3362.3924,
2167.189,3604.3101,
2164.278,3842.4931,
2161.368,4120.5835,
2158.457,4354.2543,
2155.546,4629.8387,
2152.636,4882.7469,
2149.725,5100.8413,
2146.815,5302.9353,
2143.904,5407.7114,
2140.993,5505.6527,
2138.083,5546.6288,
2135.172,5552.4548,
2132.262,5520.3433,
2129.351,5472.892,
2126.441,5404.4476,
2123.530,5116.4271,
2120.619,4956.1241,
2117.709,4679.152,
2114.798,4374.3777,
2111.888,4084.318,
2108.977,3815.4709,
2106.067,3603.9843,
2103.156,3416.0627,
2100.245,3238.8392,
2097.335,3163.3305,
2094.424,3007.0516,
2091.514,2944.0928,
2088.603,2912.3775,
2085.692,2848.4142,
2082.782,2806.0157,
2079.871,2785.0174,
2076.961,2808.1314,
2074.050,2747.8871,
2071.140,2704.0478,
2068.229,2681.3242,
2065.318,2686.7267,
2062.408,2682.4128,
2059.497,2635.988,
2056.587,2628.1537,
2053.676,2595.2275,
2050.766,2598.7973,
2047.855,2573.0206,
2044.944,2547.8654,
2042.034,2581.2219,
2039.123,2582.7706,
2036.213,2571.7151,
2033.302,2587.4189,
2030.391,2584.2644,
2027.481,2613.9602,
2024.570,2626.7748,
2021.660,2594.9445,
2018.749,2630.3811,
2015.839,2609.8041,
2012.928,2567.5294,
2010.017,2588.1877,
2007.107,2575.5984,
2004.196,2583.6845,
2001.286,2589.1683,
1998.375,2600.6585,
1995.465,2568.0509,
1992.554,2585.1689,
1989.643,2540.6032,
1986.733,2547.7846,
1983.822,2565.991,
1980.912,2573.637,
1978.001,2561.5188,
1975.090,2561.5223,
1972.180,2559.2872,
1969.269,2563.8548,
1966.359,2527.2801,
1963.448,2565.4721,
1960.538,2543.488,
1957.627,2587.3735,
1954.716,2578.3346,
1951.806,2530.2227,
1948.895,2539.043,
1945.985,2556.9387,
1943.074,2554.2922,
1940.164,2519.3654,
1937.253,2512.6839,
1934.342,2498.3793,
1931.432,2521.9665,
1928.521,2466.1427,
1925.611,2432.6412,
1922.700,2462.5753,
1919.790,2456.9561,
1916.879,2484.643,
1913.968,2465.9008,
1911.058,2511.4696,
1908.147,2515.2253,
1905.237,2484.875,
1902.326,2486.1935,
1899.415,2499.0604,
1896.505,2506.911,
1893.594,2501.686,
1890.684,2474.0517,
1887.773,2481.0807,
1884.863,2507.2212,
1881.952,2484.0427,
1879.041,2514.456,
1876.131,2523.6175,
1873.220,2538.5653,
1870.310,2513.9558,
1867.399,2516.795,
1864.489,2464.6275,
1861.578,2506.6608,
1858.667,2494.2882,
1855.757,2503.0313,
1852.846,2554.1365,
1849.936,2551.8059,
1847.025,2551.6901,
1844.114,2592.6915,
1841.204,2602.2876,
1838.293,2596.3958,
1835.383,2604.642,
1832.472,2614.7585,
1829.562,2622.651,
1826.651,2623.0372,
1823.740,2631.5225,
1820.830,2589.5754,
1817.919,2650.7976,
1815.009,2673.8686,
1812.098,2625.505,
1809.188,2665.8361,
1806.277,2631.716,
1803.366,2690.0746,
1800.456,2700.9957,
1797.545,2689.5628,
1794.635,2730.1321,
1791.724,2744.1859,
1788.813,2684.0933,
1785.903,2738.0611,
1782.992,2735.5814,
1780.082,2762.0091,
1777.171,2768.8686,
1774.261,2758.3803,
1771.350,2794.539,
1768.439,2824.5148,
1765.529,2837.5111,
1762.618,2836.8413,
1759.708,2839.4076,
1756.797,2846.7917,
1753.887,2867.1068,
1750.976,2881.2336,
1748.065,2887.1761,
1745.155,2910.3136,
1742.244,2907.9701,
1739.334,2936.4797,
1736.423,2939.4507,
1733.512,2952.7938,
1730.602,3007.0001,
1727.691,2982.189,
1724.781,2995.0455,
1721.870,3071.0849,
1718.960,3068.9637,
1716.049,3100.9509,
1713.138,3063.4152,
1710.228,3068.0592,
1707.317,3153.0247,
1704.407,3118.9551,
1701.496,3172.2141,
1698.586,3223.1502,
1695.675,3261.4962,
1692.764,3227.8996,
1689.854,3244.0522,
1686.943,3267.0993,
1684.033,3328.3352,
1681.122,3357.3992,
1678.211,3427.2088,
1675.301,3507.6283,
1672.390,3589.9139,
1669.480,3603.5408,
1666.569,3687.6016,
1663.659,3823.2959,
1660.748,3910.5911,
1657.837,3999.4059,
1654.927,4067.8516,
1652.016,4070.86,
1649.106,4231.9032,
1646.195,4273.7621,
1643.285,4312.4499,
1640.374,4424.4011,
1637.463,4498.379,
1634.553,4637.2838,
1631.642,4800.7089,
1628.732,5060.1371,
1625.821,5272.0412,
1622.911,5524.4437,
1620.000,5728.2923,
1617.089,6069.9894,
1614.179,6485.0306,
1611.268,6750.0972,
1608.358,7019.1391,
1605.447,7341.1347,
1602.536,7552.7756,
1599.626,7612.8716,
1596.715,7603.261,
1593.805,7492.7665,
1590.894,7528.3119,
1587.984,7524.4819,
1585.073,7516.0685,
1582.162,7413.8538,
1579.252,7375.0541,
1576.341,7342.0367,
1573.431,7276.9201,
1570.520,7251.7025,
1567.610,7201.188,
1564.699,7110.1969,
1561.788,7101.5931,
1558.878,6964.4464,
1555.967,6877.0551,
1553.057,6799.8929,
1550.146,6685.057,
1547.235,6547.7357,
1544.325,6436.6737,
1541.414,6350.8099,
1538.504,6288.2953,
1535.593,6193.864,
1532.683,6105.7683,
1529.772,6045.1445,
1526.861,5941.0445,
1523.951,5862.4935,
1521.040,5764.444,
1518.130,5633.578,
1515.219,5594.4371,
1512.309,5517.929,
1509.398,5489.5634,
1506.487,5459.662,
1503.577,5485.1761,
1500.666,5419.2495,
1497.756,5343.3327,
1494.845,5344.1924,
1491.934,5231.727,
1489.024,5186.4898,
1486.113,5132.9509,
1483.203,5031.1766,
1480.292,5018.875,
1477.382,4988.9698,
1474.471,4895.9286,
1471.560,4848.105,
1468.650,4818.0102,
1465.739,4812.9989,
1462.829,4798.5673,
1459.918,4785.2175,
1457.008,4816.8754,
1454.097,4799.8862,
1451.186,4734.1419,
1448.276,4771.6859,
1445.365,4837.2644,
1442.455,4801.3414,
1439.544,4798.6006,
1436.633,4741.3219,
1433.723,4742.7806,
1430.812,4669.8802,
1427.902,4642.7328,
1424.991,4552.6953,
1422.081,4578.3168,
1419.170,4567.9141,
1416.259,4565.0649,
1413.349,4505.211,
1410.438,4506.8684,
1407.528,4526.8186,
1404.617,4518.7839,
1401.707,4559.2193,
1398.796,4599.1547,
1395.885,4605.0365,
1392.975,4606.7077,
1390.064,4585.2896,
1387.154,4582.79,
1384.243,4538.1505,
1381.332,4529.1003,
1378.422,4534.8063,
1375.511,4766.1912,
1372.601,4922.8557,
1369.690,5031.8839,
1366.780,5178.5608,
1363.869,5327.6584,
1360.958,5380.118,
1358.048,5458.4457,
1355.137,5570.38,
1352.227,5664.7641,
1349.316,5757.1456,
1346.406,5913.8541,
1343.495,6106.0789,
1340.584,6154.8029,
1337.674,6212.5983,
1334.763,6356.4268,
1331.853,6476.0396,
1328.942,6494.217,
1326.032,6643.5023,
1323.121,6725.7787,
1320.210,6792.1531,
1317.300,6898.327,
1314.389,7026.8209,
1311.479,7167.8356,
1308.568,7295.9982,
1305.657,7358.5607,
1302.747,7401.4933,
1299.836,7572.3027,
1296.926,7712.4208,
1294.015,7896.2855,
1291.105,8090.5499,
1288.194,8253.2588,
1285.283,8441.8157,
1282.373,8602.2262,
1279.462,8707.6388,
1276.552,8828.1746,
1273.641,8966.289,
1270.731,9035.0526,
1267.820,9038.7548,
1264.909,9085.9407,
1261.999,9068.6128,
1259.088,8979.2249,
1256.178,8765.7561,
1253.267,8608.1237,
1250.356,8427.2972,
1247.446,8196.9383,
1244.535,7949.5763,
1241.625,7683.4791,
1238.714,7450.0866,
1235.804,7314.0015,
1232.893,7134.5237,
1229.982,7022.1528,
1227.072,6882.7347,
1224.161,6808.9967,
1221.251,6706.7894,
1218.340,6600.081,
1215.430,6507.1247,
1212.519,6425.4849,
1209.608,6342.4374,
1206.698,6284.7688,
1203.787,6318.8951,
1200.877,6396.9367,
1197.966,6430.2056,
1195.055,6539.3843,
1192.145,6734.4407,
1189.234,6888.8963,
1186.324,6998.1532,
1183.413,7091.3624,
1180.503,7114.8122,
1177.592,7056.2388,
1174.681,7063.0942,
1171.771,6917.6084,
1168.860,6819.3686,
1165.950,6701.0259,
1163.039,6652.5261,
1160.129,6593.917,
1157.218,6542.0878,
1154.307,6468.7053,
1151.397,6382.6099,
1148.486,6390.3332,
1145.576,6337.2878,
1142.665,6231.6262,
1139.754,6174.0573,
1136.844,6061.3311,
1133.933,6000.2798,
1131.023,5954.8283,
1128.112,5919.6605,
1125.202,5933.7445,
1122.291,5966.8723,
1119.380,5960.1695,
1116.470,5990.1754,
1113.559,5986.1425,
1110.649,5995.6622,
1107.738,5973.4766,
1104.828,5965.519,
1101.917,5979.1113,
1099.006,5968.6685,
1096.096,6027.6924,
1093.185,6008.3764,
1090.275,6014.9677,
1087.364,5961.2991,
1084.453,5952.7489,
1081.543,5954.4813,
1078.632,5904.4614,
1075.722,5850.9467,
1072.811,5958.0397,
1069.901,6002.576,
1066.990,6005.0667,
1064.079,6019.8463,
1061.169,6082.1051,
1058.258,6190.8213,
1055.348,6274.3475,
1052.437,6274.8944,
1049.527,6322.9561,
1046.616,6376.8235,
1043.705,6419.8717,
1040.795,6432.7905,
1037.884,6433.3693,
1034.974,6464.5309,
1032.063,6526.6978,
1029.153,6551.0321,
1026.242,6519.0287,
1023.331,6568.7051,
1020.421,6548.8996,
1017.510,6590.2218,
1014.600,6668.4011,
1011.689,6745.6671,
1008.778,6839.1336,
1005.868,6965.6395,
1002.957,7273.6464,
1000.047,7524.7151,
997.136,7770.6121,
994.226,7950.1048,
991.315,7958.5038,
988.404,7794.5531,
985.494,7728.7844,
982.583,7635.4198,
979.673,7566.2699,
976.762,7534.7201,
973.852,7523.7809,
970.941,7515.4293,
968.030,7510.2855,
965.120,7540.739,
962.209,7508.3424,
959.299,7467.4625,
956.388,7477.5134,
953.477,7508.3838,
950.567,7531.4106,
947.656,7560.1248,
944.746,7638.2839,
941.835,7669.4087,
938.925,7702.197,
936.014,7636.9661,
933.103,7577.1766,
930.193,7604.0808,
927.282,7580.6588,
924.372,7502.8629,
921.461,7375.7874,
918.551,7239.7638,
915.640,7103.0341,
912.729,7006.9231,
909.819,6997.8742,
906.908,6990.2923,
903.998,7001.8055,
901.087,7046.8844,
898.176,7119.5489,
895.266,7190.3319,
892.355,7240.1257,
889.445,7305.5885,
886.534,7395.2063,
883.624,7467.3744,
880.713,7543.3795,
877.802,7579.0637,
874.892,7550.2565,
871.981,7520.8553,
869.071,7520.0199,
866.160,7470.8879,
863.250,7488.1902,
860.339,7497.3849,
857.428,7444.1357,
854.518,7418.8158,
851.607,7382.2048,
848.697,7329.7913,
845.786,7294.3439,
842.875,7314.4317,
839.965,7384.5985,
837.054,7419.9215,
834.144,7424.0653,
831.233,7426.2082,
828.323,7422.9184,
825.412,7396.3376,
822.501,7326.534,
819.591,7202.5741,
816.680,7114.7402,
813.770,7050.6463,
810.859,6982.4584,
807.949,6911.5822,
805.038,6858.1869,
802.127,6835.9625,
799.217,6838.3473,
796.306,6789.9287,
793.396,6749.9284,
790.485,6754.8771,
787.574,6784.1588,
784.664,6765.2963,
781.753,6774.6237,
778.843,6785.2857,
775.932,6807.1587,
773.022,6838.5207,
770.111,6791.1012,
767.200,6812.237,
764.290,6826.2317,
761.379,6816.3019,
758.469,6791.3638,
755.558,6780.4162,
752.648,6731.54,
749.737,6702.2913,
746.826,6637.3271,
743.916,6537.7381,
741.005,6415.2806,
738.095,6179.8363,
735.184,5925.2011,
732.274,5907.9747,
729.363,6085.1673,
726.452,6351.6518,
723.542,6610.6577,
720.631,6644.753,
717.721,6666.3418,
714.810,6652.3695,
711.899,6621.0334,
708.989,6664.6074,
706.078,6654.4581,
703.168,6643.9811,
700.257,6613.7081,
697.347,6568.7455,
694.436,6534.8275,
691.525,6496.2449,
688.615,6496.0508,
685.704,6506.9187,
682.794,6534.7684,
679.883,6597.1717,
676.973,6537.0689,
674.062,6494.8851,
671.151,6494.5315,
668.241,6532.5524,
665.330,6585.0809,
662.420,6568.3075,
659.509,6555.986,
656.598,6519.2843,
653.688,6486.6166,
650.777,6517.2251,
647.867,6557.0415,
644.956,6554.1111,
642.046,6523.6575,
639.135,6494.2287,
636.224,6507.3922,
633.314,6610.6042,
630.403,6674.1213,
627.493,6664.1561,
624.582,6633.1841,
621.672,6751.1913,
618.761,6781.7129,
615.850,6804.7517,
612.940,6851.37,
610.029,6916.6913,
607.119,6909.5846,
604.208,6907.455,
601.297,6912.3587,
598.387,6908.9894,
595.476,6892.6688,
592.566,6954.0601,
589.655,6927.9453,
586.745,6893.1201,
583.834,6882.4388,
580.923,6912.7755,
578.013,6896.2961,
575.102,6882.6976,
572.192,6877.3041,
569.281,6888.0298,
566.371,6933.422,
563.460,7001.3671,
560.549,7075.6283,
557.639,7128.8292,
554.728,7138.0575,
551.818,7156.7851,
548.907,7173.0633,
545.996,7213.1445,
543.086,7267.398,
540.175,7283.7496,
537.265,7300.8091,
534.354,7353.5322,
531.444,7412.4146,
528.533,7451.9383,
525.622,7551.2596,
522.712,7623.8423,
519.801,7697.7362,
516.891,7790.0113,
513.980,7919.3188,
511.070,7997.788,
508.159,8111.3594,
505.248,8242.6797,
502.338,8358.699,
499.427,8455.178,
496.517,8543.6628,
493.606,8643.6947,
490.695,8740.7397,
487.785,8703.7898,
484.874,8746.988,
481.964,8782.1806,
479.053,8787.2561,
476.143,8759.6095,
473.232,8778.7377,
470.321,8723.1335,
467.411,8656.3815,
464.500,8656.4593,
461.590,8600.5603,
458.679,8642.6559,
455.769,8694.2859,
452.858,8708.5676,
449.947,8753.6395,
447.037,8773.1899,
444.126,8781.3538,
441.216,8777.2606,
438.305,8739.164,
435.395,8845.9889,
432.484,8836.9444,
429.573,8761.5777,
426.663,8845.9533,
423.752,8842.4137,
420.842,8751.5613,
417.931,8689.1677,
415.020,8830.9806,
412.110,8885.6247,
409.199,9034.4372,
406.289,9180.2222,
403.378,9208.5881,
400.468,9123.9167,
397.557,9132.3513,
394.646,9137.055,
391.736,9058.706,
388.825,9053.4264,
385.915,9035.9092,
383.004,9051.286,
380.094,9134.9329,
377.183,9332.0817,
374.272,9430.2974,
371.362,9507.1979,
368.451,9609.0268,
365.541,9693.8374,
362.630,9718.5137,
359.719,9758.0548,
356.809,9847.7876,
353.898,9829.8164,
350.988,9854.1693,
348.077,9889.3297,
345.167,9915.6697,
342.256,9931.3581,
339.345,9991.144,
336.435,10044.316,
333.524,10058.247,
330.614,10133.508,
327.703,10210.269,
324.793,10262.422,
321.882,10267.034,
318.971,10332.457,
316.061,10419.332,
313.150,10486.182,
310.240,10483.956,
307.329,10582.495,
304.418,10630.994,
301.508,10633.013,
298.597,10599.695,
295.687,10567.076,
292.776,10637.459,
289.866,10810.678,
286.955,11070.709,
284.044,11404.517,
281.134,11681.666,
278.223,11889.191,
275.313,12089.616,
272.402,12281.748,
269.492,12472.89,
266.581,12671.792,
263.670,12950.425,
260.760,13165.128,
257.849,13358.447,
254.939,13560.265,
252.028,13674.347,
249.117,13783.115,
246.207,13858.466,
243.296,13845.289,
240.386,13949.007,
237.475,13982.208,
234.565,13934.257,
231.654,13860.488,
228.743,13840.847,
225.833,13823.545,
222.922,13786.289,
220.012,13687.934,
217.101,13624.96,
214.191,13588.067,
211.280,13572.062,
208.369,13649.594,
205.459,13723.808,
202.548,13780.883,
199.638,13798.299,
196.727,13835.872,
193.816,13854.554,
190.906,13844.548,
187.995,13977.768,
185.085,14060.285,
182.174,14108.319,
179.264,14135.784,
176.353,14126.059,
173.442,14128.664,
170.532,14135.038,
167.621,14042.032,
164.711,13856.051,
161.800,13532.941,
158.890,13011.859,
155.979,12167.96,
153.068,11160.845,
150.158,10004.635,
147.247,8680.7311,
144.337,7153.4921,
141.426,5632.7568,
138.516,4216.1797,
135.605,3046.6368,
132.694,2100.8639,
129.784,1370.0303,
126.873,898.75978,
123.963,608.25301,
121.052,413.5657,
118.141,294.34407,
115.231,234.89766,
112.320,188.4223,
109.410,154.46612,
106.499,136.66224,
103.589,125.03144,
100.678,113.71419,
97.767,100.20637,
94.857,92.25212,
91.946,86.456335,
89.036,82.31051,
86.125,78.764484,
83.215,72.034876,
80.304,63.044077,
77.393,51.713358,
74.483,49.56473,
71.572,47.787944,
68.662,46.082802,
65.751,48.202156,
62.840,46.46649,
59.930,42.189424,
57.019,35.843686,
54.109,37.263643,
51.198,36.160517,
48.288,29.875,
45.377,29.875,
42.466,29.462781,
39.556,28.759881,
36.645,28.057691,
33.735,25.278758,
30.824,22.433226,
27.914,21.030876,
25.003,22.120275,
22.092,23.197905,
19.182,23.531757,
16.271,13.039405,
13.361,-39.171209,
10.450,-148.03274,
7.539,-397.33133,
4.629,-654.71422,
1.718,-809.25314,
-1.192,-724.89865,
-4.103,-485.0336,
-7.013,-234.06142,
-9.924,1.875,
