,PL375C~1,
Raman shift [1/cm],Intensity,
3014.167,0.625,
3011.256,-0.82498926,
3008.346,84.932148,
3005.435,112.1621,
3002.525,112.75755,
2999.614,120.05098,
2996.704,120.53634,
2993.793,121.40495,
2990.882,120.09053,
2987.972,131.60482,
2985.061,129.3984,
2982.151,144.8351,
2979.240,147.57462,
2976.329,157.89002,
2973.419,157.8096,
2970.508,156.77501,
2967.598,162.91536,
2964.687,187.19226,
2961.777,163.88119,
2958.866,176.62945,
2955.955,190.35506,
2953.045,206.95608,
2950.134,192.44425,
2947.224,195.0805,
2944.313,206.1307,
2941.403,216.26825,
2938.492,222.91226,
2935.581,204.60909,
2932.671,211.82673,
2929.760,212.07114,
2926.850,218.84116,
2923.939,229.90538,
2921.028,235.56036,
2918.118,238.88571,
2915.207,252.86561,
2912.297,248.66731,
2909.386,233.81478,
2906.476,245.74857,
2903.565,253.41537,
2900.654,258.13055,
2897.744,238.82616,
2894.833,248.02718,
2891.923,242.6795,
2889.012,238.70593,
2886.102,235.75204,
2883.191,219.6335,
2880.280,217.95514,
2877.370,202.91571,
2874.459,183.26038,
2871.549,225.4673,
2868.638,255.76313,
2865.727,249.54425,
2862.817,252.36831,
2859.906,249.96688,
2856.996,262.08198,
2854.085,270.74475,
2851.175,262.625,
2848.264,258.772,
2845.353,260.60343,
2842.443,263.21873,
2839.532,259.31162,
2836.622,267.71484,
2833.711,266.30632,
2830.801,247.14338,
2827.890,261.47637,
2824.979,250.19298,
2822.069,279.52265,
2819.158,263.78402,
2816.248,258.60184,
2813.337,268.64573,
2810.427,279.49277,
2807.516,285.99187,
2804.605,271.82933,
2801.695,271.49342,
2798.784,270.625,
2795.874,266.61972,
2792.963,267.12489,
2790.052,262.62543,
2787.142,271.78285,
2784.231,272.30201,
2781.321,255.37932,
2778.410,262.89024,
2775.500,256.09328,
2772.589,273.625,
2769.678,275.01748,
2766.768,269.32014,
2763.857,265.31094,
2760.947,279.625,
2758.036,270.30647,
2755.126,277.13996,
2752.215,299.56135,
2749.304,291.64659,
2746.394,280.16529,
2743.483,287.97501,
2740.573,282.18914,
2737.662,305.83802,
2734.751,289.57661,
2731.841,288.76053,
2728.930,286.35815,
2726.020,294.4265,
2723.109,301.986,
2720.199,295.15301,
2717.288,302.92426,
2714.377,290.40008,
2711.467,302.78874,
2708.556,306.93363,
2705.646,306.85036,
2702.735,303.47295,
2699.825,311.75589,
2696.914,309.67273,
2694.003,313.93719,
2691.093,318.46376,
2688.182,312.26204,
2685.272,326.06739,
2682.361,320.41321,
2679.450,321.625,
2676.540,311.50306,
2673.629,306.95235,
2670.719,314.12131,
2667.808,315.67364,
2664.898,329.94991,
2661.987,318.89171,
2659.076,326.73491,
2656.166,322.99723,
2653.255,331.8869,
2650.345,324.625,
2647.434,337.36778,
2644.524,326.51705,
2641.613,328.71111,
2638.702,335.625,
2635.792,327.93806,
2632.881,336.90454,
2629.971,340.51758,
2627.060,340.95563,
2624.149,355.73438,
2621.239,342.36462,
2618.328,359.07397,
2615.418,347.28864,
2612.507,339.93729,
2609.597,355.51322,
2606.686,354.15714,
2603.775,356.94246,
2600.865,345.56697,
2597.954,367.76255,
2595.044,353.92881,
2592.133,368.57412,
2589.223,367.38394,
2586.312,376.42903,
2583.401,363.44249,
2580.491,365.51439,
2577.580,384.59859,
2574.670,370.8389,
2571.759,374.97346,
2568.848,362.10008,
2565.938,372.43454,
2563.027,372.45453,
2560.117,378.80258,
2557.206,398.70618,
2554.296,373.34125,
2551.385,385.12904,
2548.474,396.66218,
2545.564,386.06818,
2542.653,397.30957,
2539.743,392.58803,
2536.832,403.17641,
2533.922,403.29385,
2531.011,386.47467,
2528.100,397.69121,
2525.190,397.83443,
2522.279,411.01533,
2519.369,401.64369,
2516.458,405.28931,
2513.548,409.09764,
2510.637,408.93241,
2507.726,409.25324,
2504.816,401.87528,
2501.905,407.68293,
2498.995,397.56528,
2496.084,399.99784,
2493.173,409.28295,
2490.263,427.37757,
2487.352,424.45807,
2484.442,422.04898,
2481.531,421.93887,
2478.621,422.46388,
2475.710,431.70935,
2472.799,441.39183,
2469.889,440.53359,
2466.978,438.5735,
2464.068,419.38684,
2461.157,455.66252,
2458.247,448.63967,
2455.336,445.94398,
2452.425,427.90328,
2449.515,443.88903,
2446.604,439.33006,
2443.694,441.20642,
2440.783,450.53153,
2437.872,467.36975,
2434.962,458.52362,
2432.051,459.45229,
2429.141,458.08393,
2426.230,463.97309,
2423.320,469.73953,
2420.409,457.35581,
2417.498,460.80478,
2414.588,472.1649,
2411.677,478.05127,
2408.767,466.67224,
2405.856,482.84641,
2402.946,479.41052,
2400.035,481.91843,
2397.124,484.9619,
2394.214,481.78581,
2391.303,473.37635,
2388.393,478.11803,
2385.482,476.71312,
2382.571,474.40923,
2379.661,489.90414,
2376.750,490.57077,
2373.840,493.27189,
2370.929,483.72247,
2368.019,501.7814,
2365.108,508.20615,
2362.197,499.87427,
2359.287,486.23837,
2356.376,495.60563,
2353.466,525.44351,
2350.555,520.625,
2347.645,521.21705,
2344.734,521.625,
2341.823,527.5255,
2338.913,519.49364,
2336.002,507.77095,
2333.092,513.07313,
2330.181,535.46895,
2327.270,515.11014,
2324.360,517.89386,
2321.449,526.73386,
2318.539,537.53936,
2315.628,529.44035,
2312.718,536.4576,
2309.807,545.69331,
2306.896,551.16022,
2303.986,553.74828,
2301.075,546.41221,
2298.165,546.63454,
2295.254,538.7758,
2292.344,544.20173,
2289.433,555.98409,
2286.522,564.16517,
2283.612,558.72448,
2280.701,565.14516,
2277.791,591.625,
2274.880,587.34508,
2271.969,566.20936,
2269.059,571.03101,
2266.148,583.81365,
2263.238,559.43583,
2260.327,573.93525,
2257.417,570.55555,
2254.506,592.05236,
2251.595,592.77047,
2248.685,596.51729,
2245.774,586.91092,
2242.864,600.3931,
2239.953,588.08697,
2237.043,596.10466,
2234.132,581.82759,
2231.221,605.65353,
2228.311,612.88531,
2225.400,614.90645,
2222.490,623.69664,
2219.579,618.59929,
2216.669,624.58684,
2213.758,641.75704,
2210.847,632.92225,
2207.937,633.46213,
2205.026,635.84628,
2202.116,657.95409,
2199.205,653.81206,
2196.294,658.12901,
2193.384,653.204,
2190.473,670.64261,
2187.563,673.5525,
2184.652,663.89642,
2181.742,697.46639,
2178.831,712.78067,
2175.920,727.61954,
2173.010,734.80017,
2170.099,774.62055,
2167.189,774.22057,
2164.278,861.90741,
2161.368,904.05219,
2158.457,931.35412,
2155.546,953.16927,
2152.636,989.04516,
2149.725,1026.5847,
2146.815,1074.1901,
2143.904,1103.625,
2140.993,1106.6514,
2138.083,1118.4487,
2135.172,1120.6334,
2132.262,1135.272,
2129.351,1148.4009,
2126.441,1088.6636,
2123.530,1071.4454,
2120.619,1047.0932,
2117.709,980.968,
2114.798,927.3671,
2111.888,891.96279,
2108.977,851.29385,
2106.067,832.38338,
2103.156,801.83077,
2100.245,780.60493,
2097.335,747.42081,
2094.424,739.1037,
2091.514,746.34548,
2088.603,752.35313,
2085.692,731.07491,
2082.782,717.50453,
2079.871,710.87471,
2076.961,695.59367,
2074.050,694.35227,
2071.140,706.53321,
2068.229,695.89713,
2065.318,700.4525,
2062.408,691.85194,
2059.497,690.4524,
2056.587,685.43918,
2053.676,673.09207,
2050.766,699.31558,
2047.855,667.3085,
2044.944,693.55127,
2042.034,705.51508,
2039.123,682.96507,
2036.213,688.04724,
2033.302,695.79888,
2030.391,675.08324,
2027.481,686.42966,
2024.570,689.56799,
2021.660,680.15716,
2018.749,694.21935,
2015.839,663.06398,
2012.928,692.54446,
2010.017,689.78135,
2007.107,676.36892,
2004.196,684.86313,
2001.286,669.85119,
1998.375,656.40847,
1995.465,650.54554,
1992.554,656.51317,
1989.643,686.58809,
1986.733,647.08991,
1983.822,639.59989,
1980.912,648.89211,
1978.001,642.4469,
1975.090,647.82805,
1972.180,643.72873,
1969.269,624.77437,
1966.359,630.13874,
1963.448,623.55366,
1960.538,622.49406,
1957.627,638.78291,
1954.716,635.76863,
1951.806,638.58176,
1948.895,614.54409,
1945.985,595.40768,
1943.074,620.0901,
1940.164,589.57679,
1937.253,599.28543,
1934.342,608.471,
1931.432,593.51144,
1928.521,589.13104,
1925.611,591.39117,
1922.700,584.12776,
1919.790,566.98355,
1916.879,592.53252,
1913.968,582.63975,
1911.058,581.50187,
1908.147,566.28924,
1905.237,566.45585,
1902.326,554.63536,
1899.415,572.88964,
1896.505,578.884,
1893.594,569.17376,
1890.684,555.39629,
1887.773,560.754,
1884.863,568.98719,
1881.952,572.11247,
1879.041,563.03414,
1876.131,586.4995,
1873.220,564.73108,
1870.310,560.625,
1867.399,551.76894,
1864.489,560.09232,
1861.578,567.98242,
1858.667,538.93334,
1855.757,573.83144,
1852.846,568.38397,
1849.936,569.99738,
1847.025,562.3306,
1844.114,566.84383,
1841.204,577.03759,
1838.293,597.60172,
1835.383,600.69501,
1832.472,579.17109,
1829.562,568.06979,
1826.651,602.18143,
1823.740,634.64036,
1820.830,612.84523,
1817.919,599.73874,
1815.009,596.91253,
1812.098,645.09741,
1809.188,623.42351,
1806.277,652.91678,
1803.366,589.5899,
1800.456,643.60236,
1797.545,596.88005,
1794.635,645.65795,
1791.724,624.63472,
1788.813,620.62629,
1785.903,617.82466,
1782.992,597.77106,
1780.082,605.13131,
1777.171,612.62714,
1774.261,614.05487,
1771.350,623.20401,
1768.439,632.91984,
1765.529,609.08057,
1762.618,641.7138,
1759.708,684.95124,
1756.797,681.33712,
1753.887,669.57398,
1750.976,644.911,
1748.065,653.8892,
1745.155,670.98629,
1742.244,658.0444,
1739.334,674.90499,
1736.423,677.14651,
1733.512,687.45024,
1730.602,713.56947,
1727.691,691.4539,
1724.781,684.19815,
1721.870,679.7964,
1718.960,717.26991,
1716.049,698.77781,
1713.138,726.96984,
1710.228,726.53292,
1707.317,712.35643,
1704.407,731.28814,
1701.496,681.66678,
1698.586,683.09289,
1695.675,703.27488,
1692.764,714.09222,
1689.854,722.27855,
1686.943,677.2101,
1684.033,714.63155,
1681.122,740.20019,
1678.211,781.23479,
1675.301,785.61267,
1672.390,721.94202,
1669.480,827.45654,
1666.569,805.72359,
1663.659,736.42529,
1660.748,786.12898,
1657.837,863.14987,
1654.927,886.461,
1652.016,878.72593,
1649.106,845.19551,
1646.195,945.61098,
1643.285,865.653,
1640.374,952.83406,
1637.463,962.66103,
1634.553,965.06834,
1631.642,995.28733,
1628.732,1055.7435,
1625.821,1075.6662,
1622.911,1138.27,
1620.000,1220.5793,
1617.089,1280.431,
1614.179,1365.1997,
1611.268,1457.1675,
1608.358,1551.1768,
1605.447,1642.3686,
1602.536,1619.6684,
1599.626,1705.0186,
1596.715,1705.3642,
1593.805,1629.5011,
1590.894,1674.3459,
1587.984,1694.6164,
1585.073,1647.2776,
1582.162,1636.9552,
1579.252,1606.3479,
1576.341,1574.792,
1573.431,1540.4307,
1570.520,1531.0962,
1567.610,1451.6434,
1564.699,1452.1761,
1561.788,1466.8503,
1558.878,1447.4593,
1555.967,1425.733,
1553.057,1353.2808,
1550.146,1335.2904,
1547.235,1328.1442,
1544.325,1278.9965,
1541.414,1267.2867,
1538.504,1268.8075,
1535.593,1237.6615,
1532.683,1214.7874,
1529.772,1191.4941,
1526.861,1160.8087,
1523.951,1147.6797,
1521.040,1117.5519,
1518.130,1106.0739,
1515.219,1134.8257,
1512.309,1101.2015,
1509.398,1085.7218,
1506.487,1113.5704,
1503.577,1072.625,
1500.666,1073.2965,
1497.756,1075.2686,
1494.845,1034.9452,
1491.934,1042.3982,
1489.024,973.09874,
1486.113,1007.7136,
1483.203,995.52615,
1480.292,935.92622,
1477.382,898.95281,
1474.471,964.75862,
1471.560,955.42136,
1468.650,916.97733,
1465.739,903.98451,
1462.829,840.95917,
1459.918,842.82427,
1457.008,892.33287,
1454.097,903.31421,
1451.186,887.73332,
1448.276,840.10746,
1445.365,801.84143,
1442.455,832.27143,
1439.544,856.73949,
1436.633,887.08976,
1433.723,824.52452,
1430.812,766.88617,
1427.902,757.3093,
1424.991,744.04063,
1422.081,761.05706,
1419.170,784.22651,
1416.259,715.52939,
1413.349,715.2403,
1410.438,713.6272,
1407.528,665.56308,
1404.617,674.09131,
1401.707,720.94238,
1398.796,713.3034,
1395.885,692.78651,
1392.975,692.68684,
1390.064,662.44776,
1387.154,661.49429,
1384.243,652.27732,
1381.332,587.58889,
1378.422,661.94364,
1375.511,706.90913,
1372.601,739.87996,
1369.690,853.2067,
1366.780,846.27987,
1363.869,881.03419,
1360.958,957.3649,
1358.048,962.51928,
1355.137,1003.5016,
1352.227,1031.4614,
1349.316,1050.2286,
1346.406,1117.6843,
1343.495,1121.7941,
1340.584,1195.9104,
1337.674,1220.6634,
1334.763,1264.6363,
1331.853,1317.4884,
1328.942,1364.9877,
1326.032,1350.2345,
1323.121,1399.7154,
1320.210,1429.2797,
1317.300,1451.7417,
1314.389,1476.4725,
1311.479,1533.1878,
1308.568,1611.0989,
1305.657,1639.7582,
1302.747,1622.0513,
1299.836,1642.0674,
1296.926,1719.8297,
1294.015,1788.7789,
1291.105,1853.2629,
1288.194,1956.6754,
1285.283,1988.501,
1282.373,2006.8124,
1279.462,2039.2324,
1276.552,2088.3574,
1273.641,2138.5685,
1270.731,2156.9802,
1267.820,2138.8327,
1264.909,2142.6473,
1261.999,2163.9592,
1259.088,2145.7168,
1256.178,2122.3571,
1253.267,2127.0642,
1250.356,2065.2859,
1247.446,2009.9825,
1244.535,1960.9108,
1241.625,1931.4509,
1238.714,1916.3206,
1235.804,1864.0134,
1232.893,1828.5017,
1229.982,1818.5399,
1227.072,1756.9786,
1224.161,1738.3364,
1221.251,1718.5013,
1218.340,1660.8,
1215.430,1629.3218,
1212.519,1632.5109,
1209.608,1621.5518,
1206.698,1605.9871,
1203.787,1655.223,
1200.877,1649.3523,
1197.966,1677.2263,
1195.055,1760.5369,
1192.145,1757.3441,
1189.234,1787.9574,
1186.324,1853.4476,
1183.413,1884.559,
1180.503,1882.3701,
1177.592,1886.3319,
1174.681,1854.9914,
1171.771,1850.0068,
1168.860,1823.2142,
1165.950,1806.9181,
1163.039,1768.7049,
1160.129,1791.3757,
1157.218,1803.2029,
1154.307,1779.8335,
1151.397,1755.1551,
1148.486,1721.2763,
1145.576,1714.2803,
1142.665,1729.3748,
1139.754,1688.3163,
1136.844,1693.3314,
1133.933,1704.317,
1131.023,1709.5134,
1128.112,1707.3399,
1125.202,1696.2434,
1122.291,1688.5078,
1119.380,1708.625,
1116.470,1708.625,
1113.559,1695.4798,
1110.649,1731.5706,
1107.738,1755.8399,
1104.828,1762.786,
1101.917,1760.9324,
1099.006,1743.6765,
1096.096,1750.0226,
1093.185,1772.8507,
1090.275,1755.2025,
1087.364,1762.9752,
1084.453,1764.1253,
1081.543,1766.3219,
1078.632,1760.4624,
1075.722,1736.8907,
1072.811,1759.0665,
1069.901,1751.2072,
1066.990,1777.2999,
1064.079,1793.1522,
1061.169,1834.6292,
1058.258,1852.3439,
1055.348,1851.4988,
1052.437,1894.5447,
1049.527,1918.5173,
1046.616,1889.8459,
1043.705,1904.3526,
1040.795,1926.2261,
1037.884,1957.8775,
1034.974,1969.5696,
1032.063,1955.7249,
1029.153,1963.7555,
1026.242,1948.1863,
1023.331,2010.121,
1020.421,1971.0395,
1017.510,1962.6319,
1014.600,1997.3091,
1011.689,2030.4802,
1008.778,2044.2073,
1005.868,2112.0574,
1002.957,2160.2373,
1000.047,2240.425,
997.136,2291.7054,
994.226,2327.8093,
991.315,2343.4047,
988.404,2317.3291,
985.494,2278.8003,
982.583,2241.9683,
979.673,2224.9187,
976.762,2205.9474,
973.852,2215.0735,
970.941,2241.1069,
968.030,2241.4689,
965.120,2223.6823,
962.209,2237.323,
959.299,2242.458,
956.388,2239.7053,
953.477,2232.1037,
950.567,2238.4348,
947.656,2273.3995,
944.746,2264.0544,
941.835,2276.582,
938.925,2275.0186,
936.014,2248.8512,
933.103,2232.3338,
930.193,2239.4313,
927.282,2217.8917,
924.372,2204.362,
921.461,2155.4954,
918.551,2135.1394,
915.640,2129.2255,
912.729,2110.4021,
909.819,2074.7387,
906.908,2098.3266,
903.998,2114.7369,
901.087,2131.3551,
898.176,2146.2601,
895.266,2155.2598,
892.355,2167.6192,
889.445,2226.3679,
886.534,2214.9368,
883.624,2230.1186,
880.713,2262.1014,
877.802,2273.1611,
874.892,2245.3742,
871.981,2217.8617,
869.071,2227.8867,
866.160,2228.935,
863.250,2249.0689,
860.339,2262.2554,
857.428,2249.9467,
854.518,2237.7825,
851.607,2208.6601,
848.697,2179.5514,
845.786,2185.7509,
842.875,2195.3331,
839.965,2188.8339,
837.054,2212.6436,
834.144,2214.3011,
831.233,2223.9577,
828.323,2203.4018,
825.412,2186.64,
822.501,2202.7951,
819.591,2187.0936,
816.680,2156.1762,
813.770,2109.7818,
810.859,2076.2465,
807.949,2060.3177,
805.038,2051.4259,
802.127,2049.7796,
799.217,2039.9349,
796.306,2037.7601,
793.396,2032.3959,
790.485,2022.625,
787.574,2024.1507,
784.664,2064.3362,
781.753,2063.5732,
778.843,2036.1011,
775.932,2036.9332,
773.022,2093.4982,
770.111,2092.6806,
767.200,2087.2958,
764.290,2064.8214,
761.379,2050.4127,
758.469,2050.3694,
755.558,2045.6493,
752.648,2046.4639,
749.737,2043.3611,
746.826,1984.2798,
743.916,1916.9497,
741.005,1904.8301,
738.095,1835.8205,
735.184,1670.3119,
732.274,1680.7247,
729.363,1771.1698,
726.452,1840.8207,
723.542,1958.1828,
720.631,1982.2094,
717.721,1991.6349,
714.810,2023.9373,
711.899,2064.2883,
708.989,2032.8183,
706.078,2017.4002,
703.168,2007.5528,
700.257,2013.9393,
697.347,2021.2345,
694.436,1993.9485,
691.525,1969.0306,
688.615,1962.9961,
685.704,1973.849,
682.794,1986.2846,
679.883,1979.0936,
676.973,1989.5114,
674.062,1989.0727,
671.151,1988.94,
668.241,1978.7126,
665.330,1942.5536,
662.420,1983.2889,
659.509,2001.149,
656.598,1997.97,
653.688,1993.9864,
650.777,2018.868,
647.867,2026.035,
644.956,1991.0951,
642.046,1967.3812,
639.135,1972.9613,
636.224,2000.7006,
633.314,2015.7854,
630.403,2000.115,
627.493,2011.5898,
624.582,2047.0341,
621.672,2026.4423,
618.761,2065.9018,
615.850,2089.6448,
612.940,2113.9941,
610.029,2139.9424,
607.119,2117.8327,
604.208,2112.0749,
601.297,2117.6042,
598.387,2112.0132,
595.476,2082.8534,
592.566,2106.4654,
589.655,2112.5687,
586.745,2097.1342,
583.834,2074.9662,
580.923,2072.407,
578.013,2036.3092,
575.102,2011.1381,
572.192,2030.7087,
569.281,2084.2348,
566.371,2070.9302,
563.460,2087.9672,
560.549,2086.854,
557.639,2090.2475,
554.728,2125.6104,
551.818,2141.2167,
548.907,2146.4532,
545.996,2148.0138,
543.086,2142.7533,
540.175,2115.5007,
537.265,2120.8678,
534.354,2123.625,
531.444,2133.9353,
528.533,2161.9494,
525.622,2180.5721,
522.712,2198.5803,
519.801,2208.0069,
516.891,2209.251,
513.980,2212.3482,
511.070,2250.6598,
508.159,2284.7725,
505.248,2301.1199,
502.338,2292.8842,
499.427,2370.0674,
496.517,2440.9684,
493.606,2458.426,
490.695,2421.8672,
487.785,2459.587,
484.874,2440.4223,
481.964,2408.3528,
479.053,2385.3829,
476.143,2396.9023,
473.232,2415.6101,
470.321,2398.2962,
467.411,2369.0794,
464.500,2358.8577,
461.590,2368.0466,
458.679,2398.1397,
455.769,2411.8032,
452.858,2391.591,
449.947,2381.6599,
447.037,2410.5698,
444.126,2441.7159,
441.216,2465.5197,
438.305,2493.7111,
435.395,2472.7108,
432.484,2476.7118,
429.573,2498.14,
426.663,2487.498,
423.752,2439.2005,
420.842,2408.5779,
417.931,2411.2769,
415.020,2462.8452,
412.110,2507.7902,
409.199,2560.2998,
406.289,2585.0961,
403.378,2543.6352,
400.468,2546.6592,
397.557,2544.026,
394.646,2541.1637,
391.736,2541.1522,
388.825,2495.1441,
385.915,2465.6592,
383.004,2474.1829,
380.094,2532.5061,
377.183,2569.3774,
374.272,2586.1384,
371.362,2598.1002,
368.451,2616.0413,
365.541,2655.8197,
362.630,2690.1133,
359.719,2685.0597,
356.809,2631.0653,
353.898,2704.4475,
350.988,2707.2654,
348.077,2693.7866,
345.167,2697.6089,
342.256,2717.0327,
339.345,2698.1791,
336.435,2686.8959,
333.524,2714.2122,
330.614,2732.8411,
327.703,2736.058,
324.793,2737.7497,
321.882,2749.6196,
318.971,2747.3893,
316.061,2734.9055,
313.150,2724.9345,
310.240,2732.3557,
307.329,2777.6471,
304.418,2767.8119,
301.508,2737.185,
298.597,2746.8104,
295.687,2738.8209,
292.776,2751.7084,
289.866,2796.6432,
286.955,2896.3712,
284.044,2982.0974,
281.134,3069.1704,
278.223,3153.3074,
275.313,3198.9924,
272.402,3246.3837,
269.492,3296.7553,
266.581,3349.2525,
263.670,3386.0115,
260.760,3380.9535,
257.849,3385.3588,
254.939,3438.9322,
252.028,3483.0557,
249.117,3479.0678,
246.207,3448.5639,
243.296,3425.1387,
240.386,3431.7669,
237.475,3422.4101,
234.565,3389.8471,
231.654,3327.7645,
228.743,3299.6654,
225.833,3277.6487,
222.922,3249.7033,
220.012,3187.0475,
217.101,3171.0414,
214.191,3159.6701,
211.280,3106.5653,
208.369,3068.3115,
205.459,3079.5725,
202.548,3119.4941,
199.638,3107.158,
196.727,3153.6034,
193.816,3161.6299,
190.906,3098.6312,
187.995,3155.8291,
185.085,3129.758,
182.174,3087.2439,
179.264,3119.0456,
176.353,3080.9744,
173.442,3075.3903,
170.532,3102.7607,
167.621,3069.5958,
164.711,3016.4773,
161.800,2935.5823,
158.890,2815.3878,
155.979,2635.0235,
153.068,2429.5069,
150.158,2192.5902,
147.247,1886.7425,
144.337,1532.556,
141.426,1199.2552,
138.516,921.81827,
135.605,641.81952,
132.694,444.98104,
129.784,309.76836,
126.873,192.48707,
123.963,132.20451,
121.052,93.57672,
118.141,65.734542,
115.231,52.124163,
112.320,46.625,
109.410,45.534158,
106.499,39.836916,
103.589,29.660928,
100.678,20.99527,
97.767,16.729644,
94.857,21.475923,
91.946,18.78767,
89.036,12.641081,
86.125,19.023929,
83.215,20.09408,
80.304,19.864433,
77.393,20.572603,
74.483,10.142841,
71.572,6.7991127,
68.662,10.694267,
65.751,11.400719,
62.840,8.2530861,
59.930,5.7487172,
57.019,9.9792091,
54.109,10.625,
51.198,8.8153443,
48.288,4.6363249,
45.377,6.043081,
42.466,4.151684,
39.556,1.43083,
36.645,6.3461616,
33.735,3.4710123,
30.824,0.066773948,
27.914,1.4691244,
25.003,1.0023625,
22.092,2.5624273,
19.182,6.3275228,
16.271,-2.7658489,
13.361,-23.233319,
10.450,-94.931663,
7.539,-377.05107,
4.629,-686.85184,
1.718,-951.99368,
-1.192,-1094.2112,
-4.103,-741.69661,
-7.013,-348.53968,
-9.924,3.625,
