,PLA94E~1,
Raman shift [1/cm],Intensity,
3014.167,1.5,
3011.256,-1.0001074,
3008.346,85.412951,
3005.435,98.5,
3002.525,111.18009,
2999.614,108.12336,
2996.704,110.72165,
2993.793,98.110024,
2990.882,111.75953,
2987.972,128.53531,
2985.061,125.30294,
2982.151,130.11346,
2979.240,134.18346,
2976.329,142.51638,
2973.419,134.94621,
2970.508,138.04997,
2967.598,152.45221,
2964.687,143.38111,
2961.777,151.71385,
2958.866,153.48664,
2955.955,169.9823,
2953.045,178.58277,
2950.134,173.89358,
2947.224,180.01603,
2944.313,166.64601,
2941.403,187.01232,
2938.492,207.22358,
2935.581,204.45707,
2932.671,210.33688,
2929.760,194.5,
2926.850,210.61165,
2923.939,205.65887,
2921.028,207.95881,
2918.118,226.61838,
2915.207,216.44307,
2912.297,217.50423,
2909.386,231.12043,
2906.476,217.73317,
2903.565,235.08074,
2900.654,223.71235,
2897.744,243.00968,
2894.833,213.15963,
2891.923,236.8526,
2889.012,220.82948,
2886.102,227.45947,
2883.191,232.4915,
2880.280,216.28469,
2877.370,221.42441,
2874.459,223.02211,
2871.549,242.32898,
2868.638,233.99898,
2865.727,233.29229,
2862.817,228.65643,
2859.906,224.0698,
2856.996,227.00679,
2854.085,226.38025,
2851.175,241.76205,
2848.264,238.647,
2845.353,237.93926,
2842.443,220.88538,
2839.532,234.27611,
2836.622,228.46615,
2833.711,220.44036,
2830.801,227.60074,
2827.890,225.60314,
2824.979,223.70998,
2822.069,236.51137,
2819.158,231.41913,
2816.248,230.46526,
2813.337,246.02562,
2810.427,227.33058,
2807.516,238.85953,
2804.605,239.11298,
2801.695,233.01314,
2798.784,242.24331,
2795.874,236.63984,
2792.963,236.28564,
2790.052,240.49871,
2787.142,226.59204,
2784.231,230.85402,
2781.321,225.62572,
2778.410,227.08503,
2775.500,235.69034,
2772.589,244.65291,
2769.678,238.39075,
2766.768,249.1233,
2763.857,240.55395,
2760.947,254.51891,
2758.036,233.78011,
2755.126,252.73932,
2752.215,246.84088,
2749.304,257.58452,
2746.394,240.22985,
2743.483,245.94996,
2740.573,259.82303,
2737.662,236.9571,
2734.751,242.15054,
2731.841,268.93408,
2728.930,260.1103,
2726.020,246.50521,
2723.109,245.1805,
2720.199,264.14686,
2717.288,266.5,
2714.377,242.11704,
2711.467,266.53296,
2708.556,267.88274,
2705.646,267.2042,
2702.735,262.16495,
2699.825,267.83639,
2696.914,266.59499,
2694.003,260.16991,
2691.093,267.48195,
2688.182,249.51704,
2685.272,271.53556,
2682.361,275.2238,
2679.450,279.48759,
2676.540,282.17481,
2673.629,271.80939,
2670.719,276.07671,
2667.808,264.88908,
2664.898,273.57782,
2661.987,280.06668,
2659.076,280.5,
2656.166,282.09737,
2653.255,291.90646,
2650.345,278.81942,
2647.434,296.64261,
2644.524,289.81656,
2641.613,290.75707,
2638.702,271.78406,
2635.792,294.18694,
2632.881,297.92263,
2629.971,301.86244,
2627.060,303.00156,
2624.149,282.69064,
2621.239,289.28113,
2618.328,309.60987,
2615.418,288.17273,
2612.507,279.91504,
2609.597,307.37824,
2606.686,301.27912,
2603.775,304.98016,
2600.865,316.96761,
2597.954,306.5,
2595.044,307.16076,
2592.133,310.33441,
2589.223,316.84948,
2586.312,304.55023,
2583.401,313.15328,
2580.491,321.66343,
2577.580,329.44719,
2574.670,299.7139,
2571.759,317.06078,
2568.848,315.79829,
2565.938,316.97616,
2563.027,326.25679,
2560.117,324.96727,
2557.206,320.40406,
2554.296,346.06751,
2551.385,331.25202,
2548.474,334.90744,
2545.564,307.41801,
2542.653,336.27852,
2539.743,345.5,
2536.832,334.17289,
2533.922,340.37385,
2531.011,336.0747,
2528.100,343.90069,
2525.190,335.38484,
2522.279,343.78139,
2519.369,348.29253,
2516.458,345.5,
2513.548,351.97264,
2510.637,351.57776,
2507.726,341.87176,
2504.816,342.49887,
2501.905,332.25366,
2498.995,326.35129,
2496.084,354.27351,
2493.173,347.63146,
2490.263,350.08419,
2487.352,344.95907,
2484.442,352.36725,
2481.531,346.07977,
2478.621,356.7133,
2475.710,362.37732,
2472.799,349.70624,
2469.889,368.22578,
2466.978,371.00522,
2464.068,365.62697,
2461.157,363.3075,
2458.247,363.35295,
2455.336,370.43543,
2452.425,380.63208,
2449.515,378.74532,
2446.604,379.08987,
2443.694,385.22124,
2440.783,385.83221,
2437.872,373.19283,
2434.962,390.97466,
2432.051,389.98766,
2429.141,380.53542,
2426.230,388.65251,
2423.320,406.02863,
2420.409,401.23081,
2417.498,390.91853,
2414.588,383.23005,
2411.677,389.10959,
2408.767,400.94685,
2405.856,399.69517,
2402.946,413.5,
2400.035,392.82158,
2397.124,389.9492,
2394.214,392.5268,
2391.303,396.39499,
2388.393,397.02092,
2385.482,395.5,
2382.571,405.19655,
2379.661,403.17424,
2376.750,414.29067,
2373.840,421.4812,
2370.929,417.57581,
2368.019,440.22354,
2365.108,421.36126,
2362.197,416.48631,
2359.287,415.30668,
2356.376,419.49119,
2353.466,418.48457,
2350.555,419.33989,
2347.645,413.90795,
2344.734,425.3203,
2341.823,429.48342,
2338.913,440.01342,
2336.002,426.64595,
2333.092,418.43112,
2330.181,436.37974,
2327.270,444.44499,
2324.360,435.80184,
2321.449,453.15983,
2318.539,441.20338,
2315.628,439.34092,
2312.718,437.14978,
2309.807,441.22675,
2306.896,437.75196,
2303.986,451.55207,
2301.075,464.18087,
2298.165,443.14389,
2295.254,440.45691,
2292.344,448.59951,
2289.433,464.78954,
2286.522,459.14728,
2283.612,458.97958,
2280.701,455.63453,
2277.791,461.90075,
2274.880,470.21602,
2271.969,465.11317,
2269.059,468.41009,
2266.148,489.73873,
2263.238,472.21044,
2260.327,487.25845,
2257.417,474.05833,
2254.506,483.88176,
2251.595,482.64181,
2248.685,479.81732,
2245.774,470.39025,
2242.864,482.08353,
2239.953,491.63791,
2237.043,492.38286,
2234.132,494.10776,
2231.221,495.23641,
2228.311,512.63657,
2225.400,492.00662,
2222.490,508.01463,
2219.579,502.52571,
2216.669,517.93561,
2213.758,530.19542,
2210.847,534.33627,
2207.937,536.45928,
2205.026,551.16706,
2202.116,541.81104,
2199.205,553.74941,
2196.294,557.63202,
2193.384,582.76205,
2190.473,584.34624,
2187.563,598.6015,
2184.652,617.84327,
2181.742,612.93237,
2178.831,633.17319,
2175.920,686.30148,
2173.010,704.62415,
2170.099,710.89881,
2167.189,753.57893,
2164.278,770.51608,
2161.368,818.06991,
2158.457,860.09068,
2155.546,904.21063,
2152.636,950.49462,
2149.725,953.84229,
2146.815,975.69915,
2143.904,964.41076,
2140.993,995.85443,
2138.083,1020.0653,
2135.172,1035.9622,
2132.262,1016.0907,
2129.351,990.17235,
2126.441,964.41255,
2123.530,929.02859,
2120.619,879.65629,
2117.709,824.96256,
2114.798,785.02665,
2111.888,733.17559,
2108.977,691.89071,
2106.067,689.1508,
2103.156,651.26791,
2100.245,624.50063,
2097.335,623.09163,
2094.424,608.85089,
2091.514,599.83585,
2088.603,574.4677,
2085.692,561.85702,
2082.782,553.27505,
2079.871,544.17795,
2076.961,563.01471,
2074.050,574.74242,
2071.140,577.0864,
2068.229,564.77213,
2065.318,568.562,
2062.408,560.20425,
2059.497,542.89285,
2056.587,539.08142,
2053.676,550.74925,
2050.766,560.88415,
2047.855,545.61392,
2044.944,548.03686,
2042.034,540.15898,
2039.123,544.13973,
2036.213,542.82667,
2033.302,547.21735,
2030.391,563.66911,
2027.481,572.2439,
2024.570,564.91449,
2021.660,543.74171,
2018.749,527.48775,
2015.839,552.63451,
2012.928,551.20134,
2010.017,545.44788,
2007.107,552.84954,
2004.196,560.05953,
2001.286,535.91348,
1998.375,525.45866,
1995.465,547.37857,
1992.554,542.85891,
1989.643,555.01611,
1986.733,549.87807,
1983.822,504.20532,
1980.912,512.3716,
1978.001,531.77088,
1975.090,535.53816,
1972.180,521.94814,
1969.269,532.5575,
1966.359,516.14835,
1963.448,518.84082,
1960.538,528.55755,
1957.627,498.29255,
1954.716,532.37965,
1951.806,504.44388,
1948.895,525.05057,
1945.985,541.47876,
1943.074,530.48904,
1940.164,514.27889,
1937.253,504.1568,
1934.342,492.55133,
1931.432,525.6325,
1928.521,513.67962,
1925.611,521.72701,
1922.700,514.0884,
1919.790,537.06038,
1916.879,524.75549,
1913.968,525.49754,
1911.058,520.31081,
1908.147,500.31165,
1905.237,483.66915,
1902.326,497.86297,
1899.415,485.90731,
1896.505,487.07242,
1893.594,497.59449,
1890.684,509.60445,
1887.773,522.87943,
1884.863,521.41344,
1881.952,520.40752,
1879.041,514.96106,
1876.131,505.35621,
1873.220,508.73011,
1870.310,515.99775,
1867.399,503.70792,
1864.489,511.95479,
1861.578,500.36799,
1858.667,516.44612,
1855.757,515.6599,
1852.846,541.15134,
1849.936,492.87136,
1847.025,521.20315,
1844.114,535.51177,
1841.204,526.32168,
1838.293,515.99252,
1835.383,539.62748,
1832.472,532.3713,
1829.562,559.93855,
1826.651,566.72179,
1823.740,548.30841,
1820.830,541.41336,
1817.919,525.84122,
1815.009,501.09415,
1812.098,528.01967,
1809.188,528.68605,
1806.277,528.5,
1803.366,582.56837,
1800.456,529.53342,
1797.545,564.40781,
1794.635,562.98399,
1791.724,562.96597,
1788.813,581.70154,
1785.903,588.14146,
1782.992,588.13486,
1780.082,579.52525,
1777.171,584.49518,
1774.261,566.5,
1771.350,568.47875,
1768.439,572.77677,
1765.529,587.6843,
1762.618,577.4112,
1759.708,577.59811,
1756.797,580.83333,
1753.887,574.6035,
1750.976,606.13808,
1748.065,606.3679,
1745.155,596.86129,
1742.244,605.76991,
1739.334,594.75177,
1736.423,613.64202,
1733.512,616.49591,
1730.602,611.25595,
1727.691,579.02592,
1724.781,610.40198,
1721.870,615.86663,
1718.960,612.85554,
1716.049,627.60154,
1713.138,625.37003,
1710.228,627.98119,
1707.317,658.57543,
1704.407,667.89038,
1701.496,668.5,
1698.586,618.60484,
1695.675,649.12122,
1692.764,676.11477,
1689.854,670.80315,
1686.943,667.60118,
1684.033,663.59934,
1681.122,653.66992,
1678.211,660.43338,
1675.301,762.18549,
1672.390,705.71533,
1669.480,777.25934,
1666.569,747.60157,
1663.659,755.46734,
1660.748,754.83044,
1657.837,822.67496,
1654.927,830.12513,
1652.016,815.27757,
1649.106,846.81825,
1646.195,859.16433,
1643.285,846.41146,
1640.374,886.31533,
1637.463,924.17574,
1634.553,907.66745,
1631.642,986.20576,
1628.732,1050.7844,
1625.821,1098.555,
1622.911,1182.0266,
1620.000,1290.1267,
1617.089,1375.7886,
1614.179,1447.4695,
1611.268,1553.4848,
1608.358,1633.7542,
1605.447,1663.9002,
1602.536,1685.0696,
1599.626,1723.2973,
1596.715,1689.2884,
1593.805,1652.4097,
1590.894,1597.4211,
1587.984,1627.742,
1585.073,1631.7984,
1582.162,1631.5,
1579.252,1624.9536,
1576.341,1617.0915,
1573.431,1573.9918,
1570.520,1558.6781,
1567.610,1529.1858,
1564.699,1534.0006,
1561.788,1512.0355,
1558.878,1446.5617,
1555.967,1403.0014,
1553.057,1395.4138,
1550.146,1370.0746,
1547.235,1306.8642,
1544.325,1297.6868,
1541.414,1265.8147,
1538.504,1220.4172,
1535.593,1224.8037,
1532.683,1203.5582,
1529.772,1174.6749,
1526.861,1175.8674,
1523.951,1141.0368,
1521.040,1108.1474,
1518.130,1113.6743,
1515.219,1084.6194,
1512.309,1100.7928,
1509.398,1078.1218,
1506.487,1052.2084,
1503.577,1067.4749,
1500.666,1035.1862,
1497.756,1057.4154,
1494.845,1067.8997,
1491.934,1053.1567,
1489.024,948.24497,
1486.113,996.42407,
1483.203,996.94733,
1480.292,971.89317,
1477.382,961.84226,
1474.471,969.70855,
1471.560,918.80071,
1468.650,895.08363,
1465.739,878.76873,
1462.829,884.2268,
1459.918,886.87011,
1457.008,885.56159,
1454.097,871.01368,
1451.186,883.18472,
1448.276,922.01371,
1445.365,917.78752,
1442.455,932.39369,
1439.544,911.9296,
1436.633,905.27657,
1433.723,892.89499,
1430.812,849.08589,
1427.902,881.4098,
1424.991,877.61875,
1422.081,840.80092,
1419.170,826.26722,
1416.259,838.27107,
1413.349,848.29717,
1410.438,809.213,
1407.528,843.64308,
1404.617,844.31784,
1401.707,809.13173,
1398.796,796.91608,
1395.885,835.70504,
1392.975,888.5,
1390.064,873.78454,
1387.154,840.36929,
1384.243,842.01641,
1381.332,819.94667,
1378.422,817.4322,
1375.511,854.90344,
1372.601,939.3629,
1369.690,979.93168,
1366.780,920.55312,
1363.869,973.24179,
1360.958,1010.0635,
1358.048,1039.2325,
1355.137,1072.8476,
1352.227,1091.2451,
1349.316,1094.5,
1346.406,1114.2973,
1343.495,1169.4547,
1340.584,1206.7144,
1337.674,1200.5368,
1334.763,1218.982,
1331.853,1257.9257,
1328.942,1262.1684,
1326.032,1286.153,
1323.121,1324.1024,
1320.210,1358.1413,
1317.300,1369.5,
1314.389,1384.917,
1311.479,1409.5485,
1308.568,1432.1982,
1305.657,1457.3668,
1302.747,1493.2708,
1299.836,1561.5197,
1296.926,1605.2264,
1294.015,1620.8549,
1291.105,1690.1823,
1288.194,1769.7894,
1285.283,1854.0883,
1282.373,1907.078,
1279.462,1938.4213,
1276.552,1956.6103,
1273.641,1973.8882,
1270.731,1993.0881,
1267.820,1989.3065,
1264.909,1967.4448,
1261.999,1953.0992,
1259.088,1969.5174,
1256.178,1944.8063,
1253.267,1857.6429,
1250.356,1824.373,
1247.446,1793.5106,
1244.535,1728.9108,
1241.625,1675.2334,
1238.714,1624.023,
1235.804,1527.9466,
1232.893,1502.0039,
1229.982,1482.9361,
1227.072,1436.7652,
1224.161,1436.0215,
1221.251,1399.2745,
1218.340,1372.8959,
1215.430,1359.4441,
1212.519,1328.6927,
1209.608,1307.0681,
1206.698,1323.9893,
1203.787,1328.1081,
1200.877,1357.107,
1197.966,1334.628,
1195.055,1377.0157,
1192.145,1402.5322,
1189.234,1414.3391,
1186.324,1479.1423,
1183.413,1510.6269,
1180.503,1508.0961,
1177.592,1531.3581,
1174.681,1461.6267,
1171.771,1463.283,
1168.860,1497.2204,
1165.950,1448.8975,
1163.039,1418.3415,
1160.129,1421.7072,
1157.218,1398.2522,
1154.307,1368.5813,
1151.397,1365.8549,
1148.486,1340.598,
1145.576,1351.7676,
1142.665,1334.8973,
1139.754,1331.0591,
1136.844,1315.7936,
1133.933,1287.7993,
1131.023,1264.0023,
1128.112,1256.9996,
1125.202,1260.7754,
1122.291,1261.3828,
1119.380,1281.4047,
1116.470,1271.6969,
1113.559,1304.523,
1110.649,1299.4386,
1107.738,1315.6118,
1104.828,1316.5272,
1101.917,1307.4357,
1099.006,1335.3252,
1096.096,1256.5426,
1093.185,1289.9067,
1090.275,1280.3609,
1087.364,1309.7478,
1084.453,1316.063,
1081.543,1298.5445,
1078.632,1274.158,
1075.722,1256.5776,
1072.811,1279.4928,
1069.901,1293.465,
1066.990,1341.3832,
1064.079,1311.6692,
1061.169,1322.3243,
1058.258,1356.6637,
1055.348,1363.445,
1052.437,1350.9277,
1049.527,1373.4664,
1046.616,1372.5976,
1043.705,1379.4369,
1040.795,1403.2092,
1037.884,1418.0287,
1034.974,1422.7345,
1032.063,1430.3153,
1029.153,1440.3189,
1026.242,1422.1548,
1023.331,1411.5006,
1020.421,1454.8116,
1017.510,1478.4219,
1014.600,1489.1127,
1011.689,1496.3642,
1008.778,1501.1086,
1005.868,1574.7626,
1002.957,1604.0146,
1000.047,1678.388,
997.136,1693.3408,
994.226,1715.3918,
991.315,1741.8441,
988.404,1715.7166,
985.494,1705.2149,
982.583,1647.8257,
979.673,1665.1076,
976.762,1682.1323,
973.852,1686.174,
970.941,1678.276,
968.030,1661.3959,
965.120,1649.7327,
962.209,1705.1479,
959.299,1703.8763,
956.388,1669.8219,
953.477,1666.6403,
950.567,1692.3629,
947.656,1682.8315,
944.746,1677.7342,
941.835,1701.7944,
938.925,1702.2356,
936.014,1686.3485,
933.103,1670.3222,
930.193,1658.1078,
927.282,1629.6128,
924.372,1576.3396,
921.461,1570.9728,
918.551,1562.2051,
915.640,1545.3014,
912.729,1531.2316,
909.819,1528.6095,
906.908,1514.2883,
903.998,1519.8629,
901.087,1527.8651,
898.176,1554.4054,
895.266,1576.9608,
892.355,1574.013,
889.445,1587.4412,
886.534,1620.06,
883.624,1643.3208,
880.713,1681.1006,
877.802,1692.4778,
874.892,1666.3831,
871.981,1692.0068,
869.071,1671.1215,
866.160,1658.5305,
863.250,1657.121,
860.339,1649.1187,
857.428,1626.6738,
854.518,1610.3074,
851.607,1603.6509,
848.697,1574.2995,
845.786,1584.3345,
842.875,1597.1108,
839.965,1574.6746,
837.054,1543.6116,
834.144,1553.5567,
831.233,1551.5003,
828.323,1556.9186,
825.412,1542.2846,
822.501,1499.0746,
819.591,1518.9081,
816.680,1480.2371,
813.770,1447.3194,
810.859,1441.6223,
807.949,1445.9878,
805.038,1433.3916,
802.127,1449.031,
799.217,1455.7177,
796.306,1435.3647,
793.396,1422.7825,
790.485,1434.5539,
787.574,1452.815,
784.664,1434.7725,
781.753,1432.842,
778.843,1433.9901,
775.932,1433.8827,
773.022,1430.598,
770.111,1418.3344,
767.200,1439.5781,
764.290,1429.7415,
761.379,1430.1038,
758.469,1449.5,
755.558,1448.722,
752.648,1422.6547,
749.737,1424.6807,
746.826,1392.601,
743.916,1343.4025,
741.005,1313.8797,
738.095,1237.5633,
735.184,1194.1771,
732.274,1162.0936,
729.363,1192.5723,
726.452,1291.7856,
723.542,1326.5895,
720.631,1334.6163,
717.721,1357.6953,
714.810,1373.8807,
711.899,1384.4703,
708.989,1427.2374,
706.078,1401.057,
703.168,1374.4617,
700.257,1361.9126,
697.347,1359.6742,
694.436,1349.1072,
691.525,1334.6387,
688.615,1330.2422,
685.704,1334.2486,
682.794,1330.4363,
679.883,1298.9778,
676.973,1331.834,
674.062,1325.7384,
671.151,1318.5,
668.241,1326.3622,
665.330,1351.3109,
662.420,1347.3173,
659.509,1354.1192,
656.598,1357.2018,
653.688,1347.6786,
650.777,1321.527,
647.867,1322.3233,
644.956,1337.3596,
642.046,1338.6226,
639.135,1335.0459,
636.224,1363.4881,
633.314,1361.1062,
630.403,1352.2231,
627.493,1350.7248,
624.582,1355.3811,
621.672,1345.8772,
618.761,1363.7385,
615.850,1367.847,
612.940,1387.6751,
610.029,1430.3413,
607.119,1441.3961,
604.208,1416.9395,
601.297,1425.4437,
598.387,1440.7738,
595.476,1428.306,
592.566,1394.4621,
589.655,1390.4437,
586.745,1352.4428,
583.834,1305.6721,
580.923,1320.5948,
578.013,1336.2895,
575.102,1324.4395,
572.192,1327.5059,
569.281,1359.5616,
566.371,1387.7361,
563.460,1354.5211,
560.549,1356.5548,
557.639,1378.797,
554.728,1391.6332,
551.818,1409.5805,
548.907,1390.9517,
545.996,1380.3879,
543.086,1389.5197,
540.175,1403.5354,
537.265,1454.4753,
534.354,1455.4391,
531.444,1432.4842,
528.533,1421.8177,
525.622,1454.4074,
522.712,1491.2309,
519.801,1499.0436,
516.891,1488.4818,
513.980,1527.9708,
511.070,1565.3087,
508.159,1596.6924,
505.248,1612.746,
502.338,1604.8615,
499.427,1617.2108,
496.517,1648.7828,
493.606,1684.2962,
490.695,1713.2118,
487.785,1725.5284,
484.874,1736.5471,
481.964,1736.5167,
479.053,1723.6165,
476.143,1699.0417,
473.232,1723.3985,
470.321,1716.9564,
467.411,1683.5446,
464.500,1637.1788,
461.590,1663.9797,
458.679,1692.4112,
455.769,1721.4724,
452.858,1741.5349,
449.947,1684.24,
447.037,1675.5338,
444.126,1690.4394,
441.216,1715.5426,
438.305,1733.0671,
435.395,1736.1556,
432.484,1753.1701,
429.573,1774.725,
426.663,1767.1236,
423.752,1798.5813,
420.842,1829.8541,
417.931,1857.395,
415.020,1881.6625,
412.110,1830.5555,
409.199,1837.4168,
406.289,1868.9276,
403.378,1882.3771,
400.468,1846.0893,
397.557,1837.5849,
394.646,1843.4628,
391.736,1851.0171,
388.825,1835.9325,
385.915,1832.5644,
383.004,1845.7784,
380.094,1876.6152,
377.183,1878.8726,
374.272,1900.6684,
371.362,1937.6313,
368.451,1986.0987,
365.541,2028.8792,
362.630,2026.2977,
359.719,2015.9798,
356.809,2018.911,
353.898,2009.1766,
350.988,2014.0948,
348.077,2016.1439,
345.167,2005.8406,
342.256,2012.5642,
339.345,2024.5972,
336.435,2032.3896,
333.524,2028.49,
330.614,1996.4483,
327.703,2008.5764,
324.793,2028.4688,
321.882,2025.5216,
318.971,2034.4429,
316.061,2059.9624,
313.150,2086.7333,
310.240,2097.1229,
307.329,2126.0855,
304.418,2147.9869,
301.508,2147.8969,
298.597,2100.5102,
295.687,2142.5523,
292.776,2174.5001,
289.866,2213.4105,
286.955,2331.6066,
284.044,2437.0499,
281.134,2492.5732,
278.223,2518.4694,
275.313,2648.156,
272.402,2678.9854,
269.492,2718.2549,
266.581,2802.4398,
263.670,2871.5467,
260.760,2903.5148,
257.849,2910.1373,
254.939,2897.6613,
252.028,2919.9392,
249.117,2889.6697,
246.207,2849.1823,
243.296,2871.1434,
240.386,2855.2162,
237.475,2809.3864,
234.565,2739.1913,
231.654,2661.0403,
228.743,2611.1287,
225.833,2564.5475,
222.922,2511.6802,
220.012,2451.2101,
217.101,2388.317,
214.191,2332.572,
211.280,2296.1988,
208.369,2251.7856,
205.459,2229.903,
202.548,2223.7395,
199.638,2201.9701,
196.727,2164.0795,
193.816,2142.5102,
190.906,2149.0429,
187.995,2136.0105,
185.085,2157.5071,
182.174,2179.0564,
179.264,2151.5913,
176.353,2152.3447,
173.442,2198.3695,
170.532,2270.4596,
167.621,2227.201,
164.711,2217.0767,
161.800,2191.2201,
158.890,2111.3304,
155.979,2024.6499,
153.068,1873.4901,
150.158,1676.5739,
147.247,1500.6756,
144.337,1279.1519,
141.426,1028.6799,
138.516,752.67677,
135.605,549.86024,
132.694,380.61788,
129.784,246.05437,
126.873,161.66905,
123.963,104.09602,
121.052,66.984348,
118.141,50.564602,
115.231,40.552015,
112.320,30.992733,
109.410,22.272803,
106.499,15.863406,
103.589,19.54229,
100.678,19.968918,
97.767,10.726729,
94.857,14.657934,
91.946,11.66267,
89.036,5.5160812,
86.125,11.898929,
83.215,12.96908,
80.304,12.021135,
77.393,10.604795,
74.483,13.775675,
71.572,11.876479,
68.662,5.084395,
65.751,0.84568854,
62.840,3.8353179,
59.930,7.7508552,
57.019,4.9305273,
54.109,9.2772868,
51.198,10.087126,
48.288,4.4886751,
45.377,3.081919,
42.466,4.1488774,
39.556,6.9604743,
36.645,9.7692352,
33.735,6.3460123,
30.824,1.8373391,
27.914,-0.26618666,
25.003,6.3490122,
22.092,9.8541909,
19.182,8.5915315,
16.271,11.389492,
13.361,26.829571,
10.450,63.807325,
7.539,164.36474,
4.629,135.76955,
1.718,30.831917,
-1.192,-144.15136,
-4.103,-109.37907,
-7.013,-49.698322,
-9.924,2.5,
