,PLB3B3~1,
Wavenumbers [1/cm],Intensity,
3014.167,0,
3011.256,1,
3008.346,44.153574,
3005.435,31.501769,
3002.525,50.302573,
2999.614,42.950654,
2996.704,50.770101,
2993.793,48.133064,
2990.882,57.81671,
2987.972,75.848651,
2985.061,57.970459,
2982.151,57.147886,
2979.240,54.748086,
2976.329,71.010921,
2973.419,76.738382,
2970.508,83.69998,
2967.598,53.669077,
2964.687,78.461956,
2961.777,57.478292,
2958.866,73.662707,
2955.955,75.964606,
2953.045,76.449662,
2950.134,80.670568,
2947.224,77.199282,
2944.313,89.393163,
2941.403,96,
2938.492,103.43632,
2935.581,96.435604,
2932.671,81.965717,
2929.760,108.32692,
2926.850,108.84323,
2923.939,100,
2921.028,109.24715,
2918.118,110.67758,
2915.207,93.943074,
2912.297,102.97038,
2909.386,97.240863,
2906.476,97.876426,
2903.565,95,
2900.654,100.50555,
2897.744,84.11315,
2894.833,88.876365,
2891.923,73.269196,
2889.012,57.040463,
2886.102,45.898664,
2883.191,6.0283205,
2880.280,-76.004823,
2877.370,-306.48208,
2874.459,-416.89914,
2871.549,-246.03783,
2868.638,-24.670203,
2865.727,24.765367,
2862.817,40.743308,
2859.906,74.202282,
2856.996,73.475092,
2854.085,110.68913,
2851.175,91.689771,
2848.264,104.05416,
2845.353,98.280371,
2842.443,108.20487,
2839.532,96.238853,
2836.622,107.84831,
2833.711,108.05181,
2830.801,99.108085,
2827.890,101.45804,
2824.979,113.48191,
2822.069,120.0796,
2819.158,119.01886,
2816.248,110.48263,
2813.337,117.77317,
2810.427,118.38981,
2807.516,113.42453,
2804.605,115.81731,
2801.695,117.86842,
2798.784,115.14785,
2795.874,120.86545,
2792.963,96.928188,
2790.052,122.99249,
2787.142,114.46065,
2784.231,129.41925,
2781.321,111.00576,
2778.410,122.68021,
2775.500,123.36103,
2772.589,124.96101,
2769.678,121.17745,
2766.768,124.3767,
2763.857,116.26397,
2760.947,134.06935,
2758.036,133.98719,
2755.126,111.90171,
2752.215,120,
2749.304,126.10611,
2746.394,128.84676,
2743.483,136.94998,
2740.573,131.24111,
2737.662,125.65977,
2734.751,124.90771,
2731.841,121.75641,
2728.930,123.12285,
2726.020,130.33681,
2723.109,129.45367,
2720.199,133.27504,
2717.288,132.98176,
2714.377,132.77508,
2711.467,151.27911,
2708.556,135.64884,
2705.646,133.08449,
2702.735,156.98968,
2699.825,148.95637,
2696.914,151,
2694.003,142.44064,
2691.093,147.83876,
2688.182,136.29111,
2685.272,154.92888,
2682.361,130.21179,
2679.450,133.2469,
2676.540,132.28454,
2673.629,144.34082,
2670.719,139.07301,
2667.808,148.46501,
2664.898,144.51945,
2661.987,139.76654,
2659.076,139.36422,
2656.166,153.22514,
2653.255,152.21939,
2650.345,157.64791,
2647.434,147.71478,
2644.524,157.50596,
2641.613,154.28598,
2638.702,156.04734,
2635.792,151.21735,
2632.881,168.35108,
2629.971,157.29521,
2627.060,166.83281,
2624.149,165.02813,
2621.239,157.24852,
2618.328,151,
2615.418,151,
2612.507,157.20551,
2609.597,166.4491,
2606.686,163.41566,
2603.775,163.88095,
2600.865,167.76451,
2597.954,157.62908,
2595.044,183.39238,
2592.133,163.27382,
2589.223,176.8316,
2586.312,174.77892,
2583.401,164,
2580.491,180.69707,
2577.580,170.98185,
2574.670,155.29547,
2571.759,167.22259,
2568.848,169.71262,
2565.938,181.47616,
2563.027,179.77958,
2560.117,164.55139,
2557.206,182.79336,
2554.296,184.65675,
2551.385,180.37197,
2548.474,199.51896,
2545.564,180.91801,
2542.653,191.31543,
2539.743,196.53081,
2536.832,175.87663,
2533.922,189.92115,
2531.011,189.94958,
2528.100,185.94071,
2525.190,193.13606,
2522.279,195.15584,
2519.369,179.50934,
2516.458,177.99646,
2513.548,186.94527,
2510.637,201.43038,
2507.726,206.75093,
2504.816,194.99887,
2501.905,182.3189,
2498.995,194.07494,
2496.084,209.46689,
2493.173,196.05232,
2490.263,204.75257,
2487.352,194.2504,
2484.442,197.43684,
2481.531,199.95204,
2478.621,200.32225,
2475.710,218.86965,
2472.799,200.02693,
2469.889,195.4543,
2466.978,202.77314,
2464.068,202.12697,
2461.157,203.69493,
2458.247,216.7059,
2455.336,217.02152,
2452.425,199.0613,
2449.515,213,
2446.604,206.30189,
2443.694,194.58142,
2440.783,222.52928,
2437.872,217.96354,
2434.962,213.58526,
2432.051,207.90131,
2429.141,214.84702,
2426.230,209.45634,
2423.320,213.02793,
2420.409,229.78866,
2417.498,236.3343,
2414.588,224.20544,
2411.677,231.25101,
2408.767,238,
2405.856,247.3809,
2402.946,227.88025,
2400.035,222.09156,
2397.124,226.67379,
2394.214,228.1072,
2391.303,217.85637,
2388.393,231.67678,
2385.482,192.07091,
2382.571,167.65813,
2379.661,169.88374,
2376.750,207.35936,
2373.840,249.33431,
2370.929,257.94585,
2368.019,248.30174,
2365.108,246.09162,
2362.197,255.2219,
2359.287,258.38663,
2356.376,267.98591,
2353.466,270.27404,
2350.555,248.62991,
2347.645,244.40795,
2344.734,255.8203,
2341.823,256.04975,
2338.913,268.84922,
2336.002,255.75349,
2333.092,266.67829,
2330.181,265.52684,
2327.270,255.66006,
2324.360,255.53773,
2321.449,266.75512,
2318.539,275.85014,
2315.628,269.69744,
2312.718,281.48238,
2309.807,278.29795,
2306.896,293.22848,
2303.986,289.78576,
2301.075,270.0852,
2298.165,287.51986,
2295.254,268.6032,
2292.344,288.26139,
2289.433,294.66409,
2286.522,305.29455,
2283.612,299.43875,
2280.701,297.19281,
2277.791,296.5191,
2274.880,286.71197,
2271.969,292.61317,
2269.059,295.3515,
2266.148,283.40902,
2263.238,291.4942,
2260.327,299.03408,
2257.417,264.21889,
2254.506,291.51856,
2251.595,296.15279,
2248.685,310.83261,
2245.774,306.38483,
2242.864,303.29674,
2239.953,320.63451,
2237.043,312.10358,
2234.132,314.2597,
2231.221,320.2894,
2228.311,309.56187,
2225.400,312.36589,
2222.490,320.54388,
2219.579,305.44475,
2216.669,320.96661,
2213.758,330.60915,
2210.847,297.3401,
2207.937,333.12698,
2205.026,319.44373,
2202.116,336.37792,
2199.205,335.59953,
2196.294,345.562,
2193.384,333.21098,
2190.473,336.57981,
2187.563,367.029,
2184.652,370.89143,
2181.742,359.29549,
2178.831,360.87938,
2175.920,366.08015,
2173.010,375.52551,
2170.099,375.4003,
2167.189,392.9713,
2164.278,392.52161,
2161.368,410.42888,
2158.457,406.11814,
2155.546,419.0904,
2152.636,392.85648,
2149.725,386.32214,
2146.815,435.36492,
2143.904,422.40148,
2140.993,425.3016,
2138.083,430.2948,
2135.172,453.90764,
2132.262,446.22359,
2129.351,450.85871,
2126.441,431.26206,
2123.530,439.20203,
2120.619,448.74347,
2117.709,407.81119,
2114.798,422.84983,
2111.888,391.82532,
2108.977,388.17881,
2106.067,385.44973,
2103.156,384.87984,
2100.245,371.00251,
2097.335,377.52879,
2094.424,392.17041,
2091.514,379.64247,
2088.603,384.69583,
2085.692,382.72496,
2082.782,385.48188,
2079.871,365.99884,
2076.961,394.6752,
2074.050,396.64242,
2071.140,372.73542,
2068.229,386.45573,
2065.318,389.21026,
2062.408,378.76477,
2059.497,386.85123,
2056.587,394.06993,
2053.676,380.2006,
2050.766,395.53737,
2047.855,373.28479,
2044.944,383.66506,
2042.034,385.39303,
2039.123,380.74074,
2036.213,380.03997,
2033.302,386.3041,
2030.391,386.47494,
2027.481,396.1096,
2024.570,412.95685,
2021.660,389.59649,
2018.749,409.08823,
2015.839,384.65485,
2012.928,376,
2010.017,375.02606,
2007.107,380.11777,
2004.196,398.1905,
2001.286,413.25087,
1998.375,413.8248,
1995.465,375.81607,
1992.554,391.41743,
1989.643,385.34564,
1986.733,374.48158,
1983.822,382.29468,
1980.912,375.95033,
1978.001,374.64379,
1975.090,389.78932,
1972.180,386.27661,
1969.269,365.54594,
1966.359,361.18926,
1963.448,372.76619,
1960.538,379.24604,
1957.627,361.27553,
1954.716,370.65528,
1951.806,373.24839,
1948.895,377.23483,
1945.985,376.49347,
1943.074,378.01501,
1940.164,339.13466,
1937.253,355.91277,
1934.342,362.41017,
1931.432,364.12303,
1928.521,373,
1925.611,356.42225,
1922.700,349.20856,
1919.790,346.41621,
1916.879,350.65125,
1913.968,360.9877,
1911.058,410.02701,
1908.147,368.66424,
1905.237,365.05877,
1902.326,336.69184,
1899.415,327.31704,
1896.505,283.47586,
1893.594,297.98788,
1890.684,332.32673,
1887.773,349.50843,
1884.863,383.06378,
1881.952,394.11755,
1879.041,399.5649,
1876.131,380.82615,
1873.220,381.23011,
1870.310,384.78475,
1867.399,390.90404,
1864.489,364,
1861.578,365.86799,
1858.667,381.506,
1855.757,376.56563,
1852.846,399.92312,
1849.936,355.90691,
1847.025,358.7056,
1844.114,377.30124,
1841.204,406.15734,
1838.293,405.00832,
1835.383,395.628,
1832.472,406.82609,
1829.562,411.88958,
1826.651,399.42712,
1823.740,405.91956,
1820.830,389.93683,
1817.919,391.32939,
1815.009,385.29389,
1812.098,402.85038,
1809.188,399.37211,
1806.277,382.37624,
1803.366,392.26618,
1800.456,407.17564,
1797.545,392.81561,
1794.635,392.16102,
1791.724,403.63102,
1788.813,422.60077,
1785.903,410.22685,
1782.992,353.41577,
1780.082,274.26644,
1777.171,127.65738,
1774.261,113.80542,
1771.350,229.94153,
1768.439,376.68431,
1765.529,420.00188,
1762.618,435.86501,
1759.708,417.52151,
1756.797,436.34091,
1753.887,468.1793,
1750.976,458.92409,
1748.065,443.55453,
1745.155,456.16116,
1742.244,465.67573,
1739.334,430.08001,
1736.423,428.13082,
1733.512,431.08942,
1730.602,467.40085,
1727.691,451.59656,
1724.781,481.54225,
1721.870,508.9001,
1718.960,504.77768,
1716.049,478.66973,
1713.138,494.5199,
1710.228,487.55644,
1707.317,488.65371,
1704.407,500.67916,
1701.496,519.31941,
1698.586,538.5557,
1695.675,516.60728,
1692.764,509.31967,
1689.854,510.91339,
1686.943,496.50588,
1684.033,518.42877,
1681.122,532.76211,
1678.211,548.84772,
1675.301,562.95683,
1672.390,550.86243,
1669.480,505.45725,
1666.569,562.3174,
1663.659,586.60802,
1660.748,563.23138,
1657.837,575.89666,
1654.927,615.81257,
1652.016,608.0729,
1649.106,610.80415,
1646.195,604.51051,
1643.285,666.38737,
1640.374,683.02091,
1637.463,684.03603,
1634.553,686.41378,
1631.642,714.45603,
1628.732,756.07111,
1625.821,768.04907,
1622.911,842.57737,
1620.000,885.45825,
1617.089,929.12438,
1614.179,970.81556,
1611.268,1026.8809,
1608.358,1096.6756,
1605.447,1145.2575,
1602.536,1139.613,
1599.626,1217.1943,
1596.715,1155.0223,
1593.805,1165.8866,
1590.894,1120.4438,
1587.984,1093.2138,
1585.073,1038.951,
1582.162,1047.5326,
1579.252,1022.3595,
1576.341,1014.3979,
1573.431,1039.0616,
1570.520,987.14297,
1567.610,1014.4517,
1564.699,977.07282,
1561.788,946.43672,
1558.878,944.73105,
1555.967,914.94876,
1553.057,895.81038,
1550.146,899.5309,
1547.235,881.74825,
1544.325,880.00723,
1541.414,870.55794,
1538.504,865.30366,
1535.593,859.44491,
1532.683,847.51273,
1529.772,852.27503,
1526.861,837.52782,
1523.951,846.2086,
1521.040,888.91686,
1518.130,886.73904,
1515.219,892.76017,
1512.309,873.86933,
1509.398,844.09679,
1506.487,876.1105,
1503.577,859.14336,
1500.666,887.76883,
1497.756,882.11916,
1494.845,928.5181,
1491.934,844.74173,
1489.024,765.81731,
1486.113,829.75952,
1483.203,825.23016,
1480.292,798.54466,
1477.382,846.53613,
1474.471,796.07492,
1471.560,768.29201,
1468.650,765,
1465.739,799.58647,
1462.829,797.51457,
1459.918,805.09964,
1457.008,831.63088,
1454.097,811.3462,
1451.186,794.63443,
1448.276,809.14474,
1445.365,786.28436,
1442.455,761.80041,
1439.544,737.08355,
1436.633,731.19463,
1433.723,750.87538,
1430.812,750.22165,
1427.902,752.7745,
1424.991,743.29688,
1422.081,694.37371,
1419.170,727.15459,
1416.259,731.37987,
1413.349,762.72012,
1410.438,746.40837,
1407.528,733.71252,
1404.617,752.37523,
1401.707,710.35625,
1398.796,667.13635,
1395.885,685.16151,
1392.975,673.37385,
1390.064,635.06668,
1387.154,652.31696,
1384.243,608.13684,
1381.332,578.34002,
1378.422,568.09152,
1375.511,628.0455,
1372.601,640.98041,
1369.690,672.00279,
1366.780,684.92035,
1363.869,745.11816,
1360.958,765.67957,
1358.048,744.8274,
1355.137,775.15746,
1352.227,811.33985,
1349.316,827.21911,
1346.406,858.68069,
1343.495,858,
1340.584,867.9993,
1337.674,909.92637,
1334.763,878.22297,
1331.853,936.63853,
1328.942,899.86358,
1326.032,911.31241,
1323.121,909.81325,
1320.210,938.63235,
1317.300,949.86838,
1314.389,971.66715,
1311.479,994.12622,
1308.568,996.23272,
1305.657,1001.4381,
1302.747,1020.6234,
1299.836,1101.3857,
1296.926,1097.7691,
1294.015,1114.3169,
1291.105,1148.4606,
1288.194,1185.7485,
1285.283,1167.5079,
1282.373,1183.578,
1279.462,1195.7059,
1276.552,1219.4804,
1273.641,1237.473,
1270.731,1207.591,
1267.820,1187.2851,
1264.909,1194.7911,
1261.999,1186.699,
1259.088,1205.8536,
1256.178,1243.8276,
1253.267,1200.1323,
1250.356,1202.6086,
1247.446,1182.2504,
1244.535,1160.5134,
1241.625,1163.8444,
1238.714,1156.6774,
1235.804,1115.6069,
1232.893,1088.2404,
1229.982,1131.2947,
1227.072,1110.4726,
1224.161,1132.5341,
1221.251,1107.9641,
1218.340,1057.1878,
1215.430,1053.7182,
1212.519,1059.4921,
1209.608,1051.8981,
1206.698,1048.2763,
1203.787,1017.9347,
1200.877,1027.1233,
1197.966,1093.6611,
1195.055,1099.5597,
1192.145,1152.594,
1189.234,1188.1662,
1186.324,1208.3646,
1183.413,1229.3655,
1180.503,1250.3961,
1177.592,1244.737,
1174.681,1192.2671,
1171.771,1200.2376,
1168.860,1167.1933,
1165.950,1154.3245,
1163.039,1171.5553,
1160.129,1164.6638,
1157.218,1171.3065,
1154.307,1194.4523,
1151.397,1199.3932,
1148.486,1200.6917,
1145.576,1246.2223,
1142.665,1159.2069,
1139.754,1217.0903,
1136.844,1210.2906,
1133.933,1191.6159,
1131.023,1164.2278,
1128.112,1161.7113,
1125.202,1192.2367,
1122.291,1169.6213,
1119.380,1160.4417,
1116.470,1205.4507,
1113.559,1194.7618,
1110.649,1186.0709,
1107.738,1179.1776,
1104.828,1173.3356,
1101.917,1174.8463,
1099.006,1180.4949,
1096.096,1165.0751,
1093.185,1182.6351,
1090.275,1186.4278,
1087.364,1168.4747,
1084.453,1161.1249,
1081.543,1165.0675,
1078.632,1166.8062,
1075.722,1173.4717,
1072.811,1222.1933,
1069.901,1210.8409,
1066.990,1203.5333,
1064.079,1201.3195,
1061.169,1192.1632,
1058.258,1207.8682,
1055.348,1232.8269,
1052.437,1207.5047,
1049.527,1155.8797,
1046.616,1204.5342,
1043.705,1196.1262,
1040.795,1216.9017,
1037.884,1225.4369,
1034.974,1219.6276,
1032.063,1213.5156,
1029.153,1197.5579,
1026.242,1210.5323,
1023.331,1222.6659,
1020.421,1261.9464,
1017.510,1271.2767,
1014.600,1269.3834,
1011.689,1264.0225,
1008.778,1232.9889,
1005.868,1198.0077,
1002.957,1198.8681,
1000.047,1241.224,
997.136,1309.8593,
994.226,1361.2767,
991.315,1363.7772,
988.404,1326.7302,
985.494,1314.5972,
982.583,1296.6095,
979.673,1297.6582,
976.762,1290.1935,
973.852,1288.4201,
970.941,1285.405,
968.030,1259.5895,
965.120,1229.2971,
962.209,1300.0581,
959.299,1325.4567,
956.388,1309.7214,
953.477,1302.4536,
950.567,1322.5356,
947.656,1339.6631,
944.746,1329.4684,
941.835,1318.4724,
938.925,1373.2504,
936.014,1375.6854,
933.103,1340.1726,
930.193,1319.2058,
927.282,1298.396,
924.372,1268.7998,
921.461,1298.138,
918.551,1295.4767,
915.640,1282.0254,
912.729,1288.4659,
909.819,1312.2182,
906.908,1275.9939,
903.998,1316.9497,
901.087,1296.1747,
898.176,1298.5194,
895.266,1325.761,
892.355,1328.7752,
889.445,1290.169,
886.534,1307.5323,
883.624,1298.2162,
880.713,1298.6346,
877.802,1272.6926,
874.892,1175.7822,
871.981,1010.2061,
869.071,807.20076,
866.160,861.0048,
863.250,1042.0106,
860.339,1215.8207,
857.428,1299.9131,
854.518,1305.1355,
851.607,1206.1192,
848.697,1097.5203,
845.786,1039.3931,
842.875,1080.9764,
839.965,1210.1706,
837.054,1316.2326,
834.144,1336.9514,
831.233,1389.6631,
828.323,1398.6683,
825.412,1381.3902,
822.501,1378.8936,
819.591,1383.852,
816.680,1387.2051,
813.770,1372.3374,
810.859,1340.438,
807.949,1327.6074,
805.038,1365.2035,
802.127,1358.6185,
799.217,1322.9666,
796.306,1324.6217,
793.396,1347.0688,
790.485,1351.2594,
787.574,1297.4323,
784.664,1335.1575,
781.753,1347.3679,
778.843,1354.9008,
775.932,1363.395,
773.022,1370.8732,
770.111,1370.0556,
767.200,1338.7862,
764.290,1341.1354,
761.379,1352.7571,
758.469,1354.4888,
755.558,1345.851,
752.648,1374.3621,
749.737,1376.0833,
746.826,1360.9458,
743.916,1329.805,
741.005,1283.6899,
738.095,1245.5317,
735.184,1160.1983,
732.274,1114.3267,
729.363,1128.5622,
726.452,1190.7939,
723.542,1245.0232,
720.631,1318.3376,
717.721,1329.6888,
714.810,1349.0282,
711.899,1384.1584,
708.989,1346.2329,
706.078,1391.6743,
703.168,1371.4245,
700.257,1372.8663,
697.347,1397.6963,
694.436,1375.1091,
691.525,1379.1281,
688.615,1352.9568,
685.704,1346.4973,
682.794,1379.1274,
679.883,1443.6304,
676.973,1413.1783,
674.062,1426.7805,
671.151,1431.8634,
668.241,1420.6645,
665.330,1409.1302,
662.420,1390.7594,
659.509,1383.1904,
656.598,1390.9532,
653.688,1405.8403,
650.777,1411.514,
647.867,1397.1801,
644.956,1338.2765,
642.046,1268.7592,
639.135,1223.6114,
636.224,1241.5133,
633.314,1343.9313,
630.403,1389.51,
627.493,1400.3115,
624.582,1394.2343,
621.672,1386.3143,
618.761,1388.2798,
615.850,1428.1201,
612.940,1463.7569,
610.029,1472.3152,
607.119,1480.2115,
604.208,1503.7204,
601.297,1491.5637,
598.387,1474.0129,
595.476,1484.5942,
592.566,1490.8908,
589.655,1502.3662,
586.745,1506.6981,
583.834,1499.0712,
580.923,1478.1137,
578.013,1496.9473,
575.102,1468.1583,
572.192,1453.7185,
569.281,1469.2038,
566.371,1448.073,
563.460,1477.0406,
560.549,1499.7456,
557.639,1511.3428,
554.728,1515.2956,
551.818,1519.9775,
548.907,1504.5458,
545.996,1489.3345,
543.086,1491.3947,
540.175,1534.9989,
537.265,1488.749,
534.354,1497.593,
531.444,1502.986,
528.533,1448.3728,
525.622,1481.7386,
522.712,1479.2919,
519.801,1464.9805,
516.891,1456.3821,
513.980,1478.0624,
511.070,1484.2261,
508.159,1496.5065,
505.248,1504.9957,
502.338,1497.22,
499.427,1538.8989,
496.517,1545.4748,
493.606,1537.2891,
490.695,1529.0698,
487.785,1536.7678,
484.874,1539.2924,
481.964,1529.2028,
479.053,1510.5067,
476.143,1495.9154,
473.232,1516.5821,
470.321,1527.4329,
467.411,1525.1881,
464.500,1510.6509,
461.590,1496.8676,
458.679,1514.4615,
455.769,1529.1644,
452.858,1525.386,
449.947,1548.304,
447.037,1527.5161,
444.126,1513.9576,
441.216,1523.2332,
438.305,1547.615,
435.395,1571.9804,
432.484,1558.4116,
429.573,1517.0774,
426.663,1487.4319,
423.752,1193.4788,
420.842,879.30206,
417.931,625.83437,
415.020,519.66423,
412.110,959.35756,
409.199,1281.413,
406.289,1423.4021,
403.378,1347.7797,
400.468,1282.7642,
397.557,1316.4999,
394.646,1398.1667,
391.736,1480.5312,
388.825,1497.1243,
385.915,1497.7425,
383.004,1493.1434,
380.094,1492.382,
377.183,1519.4712,
374.272,1541.1123,
371.362,1562.1241,
368.451,1583.9088,
365.541,1582.4077,
362.630,1579.2688,
359.719,1583.2153,
356.809,1595.3268,
353.898,1551.1477,
350.988,1571.5492,
348.077,1591.4494,
345.167,1572.773,
342.256,1568.2905,
339.345,1572.8458,
336.435,1586.0502,
333.524,1606.3658,
330.614,1586.2466,
327.703,1612.3445,
324.793,1644.289,
321.882,1647.9603,
318.971,1631.6046,
316.061,1628.4416,
313.150,1636.0809,
310.240,1652.4075,
307.329,1695.8782,
304.418,1713.9119,
301.508,1714.6062,
298.597,1713.1253,
295.687,1704.1959,
292.776,1704.1667,
289.866,1730.7068,
286.955,1828.9573,
284.044,1884.1125,
281.134,1943.9179,
278.223,2011.7902,
275.313,2058.2121,
272.402,2094.1406,
269.492,2080.9979,
266.581,2005.1684,
263.670,1909.595,
260.760,1993.79,
257.849,2113.4506,
254.939,2163.3547,
252.028,2126.3601,
249.117,2105.6044,
246.207,2120.9187,
243.296,2209.4952,
240.386,2203.3282,
237.475,2184.2428,
234.565,2160.098,
231.654,2116.2749,
228.743,2155.3309,
225.833,2150.7537,
222.922,2058.4224,
220.012,2046.037,
217.101,2052.305,
214.191,2041.3625,
211.280,1969.3437,
208.369,1943.1428,
205.459,1913.0375,
202.548,1888.5153,
199.638,1920.4439,
196.727,1891.8508,
193.816,1880.1481,
190.906,1910.0542,
187.995,1826.0673,
185.085,1786.1243,
182.174,1786.9283,
179.264,1834.6309,
176.353,1814.3688,
173.442,1814.8649,
170.532,1828.903,
167.621,1725.0825,
164.711,1684.3864,
161.800,1631.7115,
158.890,1510.7973,
155.979,1364.6341,
153.068,1251.5672,
150.158,1151.5396,
147.247,984.25677,
144.337,824.31935,
141.426,662.68337,
138.516,494.93082,
135.605,351.41152,
132.694,245.5327,
129.784,168.31735,
126.873,103.24054,
123.963,70.082545,
121.052,49.050926,
118.141,34.058984,
115.231,29.026008,
112.320,21.916369,
109.410,15.272711,
106.499,16.697021,
103.589,13.638473,
100.678,10.456757,
97.767,9.0348814,
94.857,9,
91.946,11.015554,
89.036,13.322613,
86.125,9.0673809,
83.215,12.778283,
80.304,13.40851,
77.393,2.7859607,
74.483,9.2064845,
71.572,11.188239,
68.662,7.6536625,
65.751,4.1214071,
62.840,3.963404,
59.930,4.4381414,
57.019,2.3228954,
54.109,0.20851746,
51.198,0.2064371,
48.288,2.9716878,
45.377,-0.54520254,
42.466,-0.35112264,
39.556,1.4244071,
36.645,-2.086544,
33.735,2.7117331,
30.824,5.5702433,
27.914,-2.1426844,
25.003,0.11318738,
22.092,3.2916182,
19.182,6.0686486,
16.271,8.167119,
13.361,42.29518,
10.450,87.519241,
7.539,84.72598,
4.629,-104.97494,
1.718,-402.37901,
-1.192,-794.87138,
-4.103,-679.10623,
-7.013,-397.49116,
-9.924,2,
