,PLBC2C~1,
Wavenumbers [1/cm],Intensity,
3014.167,-2.25,
3011.256,1.75,
3008.346,10.740328,
3005.435,-3.3242016,
3002.525,16.090045,
2999.614,9.2253272,
2996.704,10.068557,
2993.793,-1.8968882,
2990.882,11.925588,
2987.972,13.73991,
2985.061,12.19335,
2982.151,7.4659619,
2979.240,17.26807,
2976.329,18.015016,
2973.419,24.119191,
2970.508,26.366663,
2967.598,18.272088,
2964.687,11.615489,
2961.777,9.3140473,
2958.866,41.421616,
2955.955,30.955757,
2953.045,20.300338,
2950.134,26.388492,
2947.224,25.091626,
2944.313,37.19943,
2941.403,37.75,
2938.492,33.302837,
2935.581,29.680051,
2932.671,31.033291,
2929.760,49.353849,
2926.850,57.38421,
2923.939,34.109812,
2921.028,47.079536,
2918.118,44.707174,
2915.207,22.338615,
2912.297,37.68653,
2909.386,32.180647,
2906.476,33.463498,
2903.565,37.557414,
2900.654,30.925921,
2897.744,41.787717,
2894.833,38.152184,
2891.923,39.291704,
2889.012,41.958093,
2886.102,44.56216,
2883.191,47.748112,
2880.280,91.180621,
2877.370,35.378074,
2874.459,1.5863035,
2871.549,-27.815796,
2868.638,21.391196,
2865.727,21.957715,
2862.817,19.307481,
2859.906,21.52208,
2856.996,36.673012,
2854.085,57.271015,
2851.175,31.653633,
2848.264,26.392166,
2845.353,34.008804,
2842.443,44.152785,
2839.532,32.436624,
2836.622,43.598307,
2833.711,48.534937,
2830.801,34.865435,
2827.890,44.666079,
2824.979,44.317982,
2822.069,46.704512,
2819.158,40.08962,
2816.248,34.25579,
2813.337,58.914646,
2810.427,45.353298,
2807.516,40.440783,
2804.605,45.56731,
2801.695,44.789466,
2798.784,36.193538,
2795.874,33.459756,
2792.963,41.607235,
2790.052,37.751287,
2787.142,36.144847,
2784.231,44.911494,
2781.321,38.064301,
2778.410,41.090105,
2775.500,45.642756,
2772.589,37.096329,
2769.678,47.640747,
2766.768,53.503394,
2763.857,46.329963,
2760.947,48.712175,
2758.036,42.75,
2755.126,36.940171,
2752.215,46.79102,
2749.304,44.282386,
2746.394,49.596765,
2743.483,57.149982,
2740.573,50.991108,
2737.662,41.973372,
2734.751,43.866488,
2731.841,39.39835,
2728.930,40.567704,
2726.020,48.744792,
2723.109,34.111001,
2720.199,58.515706,
2717.288,52.731757,
2714.377,62.104101,
2711.467,64.406039,
2708.556,52.835052,
2705.646,49.679564,
2702.735,64.247421,
2699.825,57.348164,
2696.914,60.845465,
2694.003,64.777639,
2691.093,65.946157,
2688.182,64.095927,
2685.272,66.838197,
2682.361,47.902839,
2679.450,49.918735,
2676.540,54.993889,
2673.629,61.440612,
2670.719,59.742612,
2667.808,65.701364,
2664.898,63.009727,
2661.987,66.016711,
2659.076,65.131467,
2656.166,63.152628,
2653.255,54.306122,
2650.345,49.613883,
2647.434,51.778866,
2644.524,63.136093,
2641.613,65.807197,
2638.702,73.639533,
2635.792,56.373139,
2632.881,65.553659,
2629.971,67.85742,
2627.060,67.082502,
2624.149,67.318759,
2621.239,71.022234,
2618.328,46.089098,
2615.418,59.722735,
2612.507,64.303387,
2609.597,68.831837,
2606.686,60.697799,
2603.775,61.547615,
2600.865,61.395075,
2597.954,61.468711,
2595.044,74.758857,
2592.133,61.132048,
2589.223,63.557377,
2586.312,76.016362,
2583.401,64.545626,
2580.491,68.201919,
2577.580,65.735147,
2574.670,60.347584,
2571.759,76.35616,
2568.848,55.407322,
2565.938,76.226298,
2563.027,66.140881,
2560.117,64.852785,
2557.206,70.598707,
2554.296,73.436499,
2551.385,74.559978,
2548.474,81.602047,
2545.564,78.003244,
2542.653,86.22315,
2539.743,82.441001,
2536.832,66.75,
2533.922,69.671154,
2531.011,71.074465,
2528.100,83.485179,
2525.190,77.378279,
2522.279,98.718244,
2519.369,77.75,
2516.458,69.410766,
2513.548,83.786069,
2510.637,66.287068,
2507.726,90.374537,
2504.816,86.124293,
2501.905,79.315244,
2498.995,66.004098,
2496.084,84.21689,
2493.173,76.881456,
2490.263,71.356776,
2487.352,84.3744,
2484.442,77.173978,
2481.531,82.329771,
2478.621,67.626718,
2475.710,103.5353,
2472.799,73.530294,
2469.889,73.536717,
2466.978,89.409712,
2464.068,90.834649,
2461.157,99.285086,
2458.247,78.779343,
2455.336,87.2373,
2452.425,90.400938,
2449.515,96.136692,
2446.604,87.167083,
2443.694,88.634071,
2440.783,98.988739,
2437.872,86.005255,
2434.962,90.64862,
2432.051,91.089624,
2429.141,93.479466,
2426.230,79.597485,
2423.320,96.164105,
2420.409,98.077032,
2417.498,103.70788,
2414.588,85.955444,
2411.677,70.82575,
2408.767,96.714568,
2405.856,99.945174,
2402.946,95.951968,
2400.035,91.346247,
2397.124,83.322183,
2394.214,98.669597,
2391.303,96.175476,
2388.393,84.270919,
2385.482,92.309382,
2382.571,88.914532,
2379.661,80.819929,
2376.750,73.274584,
2373.840,92.084314,
2370.929,94.76083,
2368.019,100.5936,
2365.108,100.09817,
2362.197,103.76369,
2359.287,98.556685,
2356.376,93.757044,
2353.466,102.99319,
2350.555,87.799858,
2347.645,87.07847,
2344.734,89.173959,
2341.823,89.733417,
2338.913,106.26342,
2336.002,102.90782,
2333.092,100.41695,
2330.181,99.821578,
2327.270,102.80501,
2324.360,101.84194,
2321.449,117.54931,
2318.539,109.77141,
2315.628,106.56535,
2312.718,103.86674,
2309.807,123.61337,
2306.896,122.75783,
2303.986,116.17848,
2301.075,103.75,
2298.165,110.93283,
2295.254,90.24549,
2292.344,116.32673,
2289.433,121.055,
2286.522,124.53116,
2283.612,127.15943,
2280.701,115.09531,
2277.791,117.1088,
2274.880,101.75,
2271.969,104.45782,
2269.059,116.57017,
2266.148,98.674877,
2263.238,105.04342,
2260.327,121.68103,
2257.417,117.66611,
2254.506,115.43664,
2251.595,119.32823,
2248.685,124.79804,
2245.774,118.83808,
2242.864,103.5006,
2239.953,126.01902,
2237.043,119.4775,
2234.132,124.30065,
2231.221,127.59239,
2228.311,127.88016,
2225.400,136.18709,
2222.490,116.19298,
2219.579,116.82714,
2216.669,123.24762,
2213.758,123.75,
2210.847,123.75,
2207.937,145.81349,
2205.026,134.41676,
2202.116,132.53662,
2199.205,136.39988,
2196.294,138.75,
2193.384,134.48699,
2190.473,122.45422,
2187.563,170.6775,
2184.652,153.34021,
2181.742,137.68156,
2178.831,135.82783,
2175.920,142.66439,
2173.010,153.45068,
2170.099,155.01686,
2167.189,152.84328,
2164.278,165.89673,
2161.368,171.89224,
2158.457,169.92305,
2155.546,169.9308,
2152.636,160.66496,
2149.725,168.05871,
2146.815,177.54979,
2143.904,155.45631,
2140.993,169.35319,
2138.083,178.97485,
2135.172,200.77519,
2132.262,189.61356,
2129.351,186.26035,
2126.441,169.96354,
2123.530,192.80612,
2120.619,194.17217,
2117.709,168.84944,
2114.798,161.9154,
2111.888,163.23752,
2108.977,157.6639,
2106.067,141.85758,
2103.156,133.35082,
2100.245,141.74812,
2097.335,141.64005,
2094.424,156.28756,
2091.514,131.10211,
2088.603,132.7177,
2085.692,137.83925,
2082.782,137.99094,
2079.871,152.89352,
2076.961,147.3312,
2074.050,161.39242,
2071.140,137.96814,
2068.229,144.40888,
2065.318,122.10851,
2062.408,131.24244,
2059.497,140.16668,
2056.587,148.58716,
2053.676,131.78443,
2050.766,148.05643,
2047.855,125.66456,
2044.944,123.8141,
2042.034,134.77896,
2039.123,147.40993,
2036.213,139.23219,
2033.302,148.77145,
2030.391,153.15709,
2027.481,146.75,
2024.570,137.47882,
2021.660,123.51868,
2018.749,157.87622,
2015.839,135.21194,
2012.928,134.27853,
2010.017,139.17888,
2007.107,127.98177,
2004.196,122.23809,
2001.286,121.75,
1998.375,105.04921,
1995.465,103.25625,
1992.554,110.00878,
1989.643,101.09564,
1986.733,105.10789,
1983.822,98.969349,
1980.912,125.05647,
1978.001,106.06354,
1975.090,101.96832,
1972.180,91.853728,
1969.269,84.221249,
1966.359,95.020454,
1963.448,99.097423,
1960.538,96.93849,
1957.627,97.641642,
1954.716,81.238356,
1951.806,105.20998,
1948.895,75.112358,
1945.985,72.792484,
1943.074,78.226055,
1940.164,75.663549,
1937.253,71.558933,
1934.342,57.758556,
1931.432,89.346218,
1928.521,92.917528,
1925.611,72.659195,
1922.700,75.08149,
1919.790,78.472524,
1916.879,58.284488,
1913.968,48.759837,
1911.058,106.31455,
1908.147,61.071197,
1905.237,80.169101,
1902.326,72.650735,
1899.415,66.315832,
1896.505,14.430456,
1893.594,16.545867,
1890.684,47.325253,
1887.773,41.68086,
1884.863,66.522209,
1881.952,77.75,
1879.041,86.071394,
1876.131,63.504258,
1873.220,77.798755,
1870.310,91.888993,
1867.399,73.069872,
1864.489,50.944718,
1861.578,57.991586,
1858.667,77.842827,
1855.757,65.75358,
1852.846,56.473093,
1849.936,36.517773,
1847.025,29.57238,
1844.114,43.601795,
1841.204,75.243003,
1838.293,79.280766,
1835.383,53.645507,
1832.472,61.983044,
1829.562,72.388802,
1826.651,63.860894,
1823.740,67.757678,
1820.830,68.435019,
1817.919,76.708141,
1815.009,56.487918,
1812.098,63.521647,
1809.188,81.633682,
1806.277,38.745934,
1803.366,58.766636,
1800.456,60.5194,
1797.545,75.225102,
1794.635,86.008941,
1791.724,63.555787,
1788.813,84.358485,
1785.903,97.383813,
1782.992,64.480287,
1780.082,68.443953,
1777.171,10.417024,
1774.261,0.79977912,
1771.350,1.1417582,
1768.439,51.603982,
1765.529,82.932417,
1762.618,96.895645,
1759.708,80.673642,
1756.797,83.795456,
1753.887,99.159622,
1750.976,104.13285,
1748.065,99.846777,
1745.155,90.47259,
1742.244,87.76359,
1739.334,81.95706,
1736.423,120.02284,
1733.512,88.725475,
1730.602,98.426628,
1727.691,95.467431,
1724.781,111.41441,
1721.870,94.216535,
1718.960,96.150089,
1716.049,101.94487,
1713.138,101.04001,
1710.228,114.67475,
1707.317,96.404858,
1704.407,100.93718,
1701.496,100.83845,
1698.586,107.21789,
1695.675,108.68571,
1692.764,86.975398,
1689.854,78.096452,
1686.943,93.21039,
1684.033,122.02975,
1681.122,118.81797,
1678.211,120.73097,
1675.301,169.59891,
1672.390,90.764954,
1669.480,95.677802,
1666.569,87.664104,
1663.659,157.5904,
1660.748,88.752652,
1657.837,139.79374,
1654.927,141.32828,
1652.016,123.99299,
1649.106,133.26038,
1646.195,114.6611,
1643.285,152.57032,
1640.374,186.62109,
1637.463,134.47058,
1634.553,173.95689,
1631.642,188.05402,
1628.732,215.60779,
1625.821,191.78337,
1622.911,242.46261,
1620.000,270.39724,
1617.089,289.37189,
1614.179,309.18598,
1611.268,310.71282,
1608.358,363.17473,
1605.447,407.23605,
1602.536,359.4281,
1599.626,392.54731,
1596.715,413.90202,
1593.805,386.23705,
1590.894,382.75,
1587.984,399.20575,
1585.073,344.74527,
1582.162,338.08954,
1579.252,348.56961,
1576.341,343.54043,
1573.431,333.91826,
1570.520,293.53115,
1567.610,278.76956,
1564.699,289.35048,
1561.788,258.53907,
1558.878,274.47434,
1555.967,260.34142,
1553.057,246.38792,
1550.146,235.07366,
1547.235,216.5338,
1544.325,227.97808,
1541.414,240.04971,
1538.504,234.15338,
1535.593,218.09023,
1532.683,207.96576,
1529.772,227.27476,
1526.861,245.33603,
1523.951,235.41375,
1521.040,223.72229,
1518.130,234.52506,
1515.219,256.0305,
1512.309,238.50225,
1509.398,234.74245,
1506.487,219.04159,
1503.577,200.83602,
1500.666,223.22699,
1497.756,257.22439,
1494.845,237.4693,
1491.934,206.66496,
1489.024,180.67765,
1486.113,194.58545,
1483.203,198.4145,
1480.292,205.53809,
1477.382,205.1335,
1474.471,179.42649,
1471.560,151.43135,
1468.650,158.78202,
1465.739,159.98559,
1462.829,166.8959,
1459.918,167.6726,
1457.008,183.56565,
1454.097,170.01246,
1451.186,150.29545,
1448.276,157.08772,
1445.365,119.82109,
1442.455,116.29664,
1439.544,109.00065,
1436.633,84.342845,
1433.723,111.37311,
1430.812,115.08506,
1427.902,106.50195,
1424.991,96.076566,
1422.081,68.225687,
1419.170,79.574966,
1416.259,57.448109,
1413.349,35.134697,
1410.438,43.045813,
1407.528,51.324967,
1404.617,63.905437,
1401.707,35.714047,
1398.796,-12.770936,
1395.885,-4.7930851,
1392.975,10.790751,
1390.064,-4.2337161,
1387.154,52.478749,
1384.243,40.715325,
1381.332,36.856654,
1378.422,40.484752,
1375.511,-61.624373,
1372.601,-22.700905,
1369.690,-17.535555,
1366.780,14.431407,
1363.869,18.391138,
1360.958,44.479084,
1358.048,68.836301,
1355.137,88.366417,
1352.227,107.07031,
1349.316,116.13883,
1346.406,124.41349,
1343.495,133.52524,
1340.584,112.64279,
1337.674,124.03966,
1334.763,184.92643,
1331.853,189.56258,
1328.942,177.2975,
1326.032,220.60914,
1323.121,223.34036,
1320.210,256.70972,
1317.300,273.56954,
1314.389,283.02798,
1311.479,294.93445,
1308.568,297.75,
1305.657,296.90713,
1302.747,312.54274,
1299.836,383.24141,
1296.926,384.99811,
1294.015,347.30584,
1291.105,404.7463,
1288.194,453.48589,
1285.283,450.86194,
1282.373,430.56256,
1279.462,428.33811,
1276.552,454.6556,
1273.641,471.15787,
1270.731,474.92166,
1267.820,508.34878,
1264.909,481.94722,
1261.999,440.34918,
1259.088,456.76736,
1256.178,475.73558,
1253.267,444.2262,
1250.356,433.75,
1247.446,425.53582,
1244.535,425.20088,
1241.625,412.58338,
1238.714,389.48634,
1235.804,407.14314,
1232.893,442.24769,
1229.982,451.58477,
1227.072,417.18291,
1224.161,441.64612,
1221.251,399.10141,
1218.340,362.02002,
1215.430,358.45749,
1212.519,378.33278,
1209.608,395.10438,
1206.698,396.26065,
1203.787,396.03643,
1200.877,387.47437,
1197.966,399.16344,
1195.055,421.08122,
1192.145,435.26881,
1189.234,473.78479,
1186.324,491.11348,
1183.413,472.085,
1180.503,480.77751,
1177.592,525.95168,
1174.681,472.86302,
1171.771,466.70879,
1168.860,464.92261,
1165.950,456.68711,
1163.039,470.11486,
1160.129,482.0587,
1157.218,487.19221,
1154.307,488.00795,
1151.397,481.01506,
1148.486,470.44455,
1145.576,502.17179,
1142.665,488.85309,
1139.754,495.07266,
1136.844,503.75303,
1133.933,506.75,
1131.023,495.4197,
1128.112,488.46346,
1125.202,495.12682,
1122.291,485.12871,
1119.380,494.75,
1116.470,494.75,
1113.559,471.55253,
1110.649,466.71454,
1107.738,490.79018,
1104.828,512.4144,
1101.917,510.31194,
1099.006,499.22424,
1096.096,496.42748,
1093.185,491.15946,
1090.275,502.88905,
1087.364,477.61896,
1084.453,497.37293,
1081.543,504.34472,
1078.632,494.22596,
1075.722,519.42461,
1072.811,502.1772,
1069.901,522.2622,
1066.990,509.20003,
1064.079,522.76285,
1061.169,527.98849,
1058.258,513.46892,
1055.348,511.74188,
1052.437,544.14226,
1049.527,525.0451,
1046.616,506.79969,
1043.705,510.14536,
1040.795,518.77355,
1037.884,517.18689,
1034.974,523.2951,
1032.063,536.07331,
1029.153,514.02296,
1026.242,507.96827,
1023.331,516.0828,
1020.421,556.78768,
1017.510,558.06228,
1014.600,549.55637,
1011.689,553.32465,
1008.778,551.21611,
1005.868,559.91217,
1002.957,577.97961,
1000.047,572.742,
997.136,584.43314,
994.226,597.42688,
991.315,592.83417,
988.404,575.39852,
985.494,578.61574,
982.583,572.61985,
979.673,568.09177,
976.762,567.9242,
973.852,561.67784,
970.941,550.37895,
968.030,546.25291,
965.120,554.84308,
962.209,577.00917,
959.299,570.12626,
956.388,585.90871,
953.477,593.11842,
950.567,586.2399,
947.656,601.08154,
944.746,595.9842,
941.835,598.17944,
938.925,605.3305,
936.014,603.18591,
933.103,586.45098,
930.193,572.14222,
927.282,595.1836,
924.372,547.82962,
921.461,579.30641,
918.551,575.322,
915.640,560.20034,
912.729,564.80069,
909.819,584.63711,
906.908,568.63103,
903.998,588.42947,
901.087,584.20241,
898.176,574.93244,
895.266,576.14578,
892.355,587.12176,
889.445,583.76469,
886.534,578.74077,
883.624,597.26213,
880.713,613.38463,
877.802,612.80217,
874.892,594.78614,
871.981,569.41596,
869.071,428.23119,
866.160,428.58855,
863.250,472.25057,
860.339,520.72264,
857.428,563.55021,
854.518,599.66677,
851.607,562.22365,
848.697,554.37437,
845.786,544.40861,
842.875,534.00226,
839.965,537.75505,
837.054,569.84303,
834.144,578.13056,
831.233,611.08107,
828.323,600.53769,
825.412,583.40889,
822.501,606.43092,
819.591,621.3061,
816.680,597.7115,
813.770,609.91858,
810.859,596.83424,
807.949,573.26222,
805.038,584.36503,
802.127,556.3787,
799.217,564.18547,
796.306,569.45272,
793.396,590.21585,
790.485,614.64317,
787.574,591.22066,
784.664,577.27875,
781.753,586.82771,
778.843,612.35329,
775.932,630.28091,
773.022,621.96045,
770.111,603.97373,
767.200,596.6595,
764.290,601.10666,
761.379,604.5684,
758.469,601.70367,
755.558,598.28488,
752.648,616.20616,
749.737,608.65258,
746.826,601.35134,
743.916,610.919,
741.005,643.05138,
738.095,672.27894,
735.184,640.71207,
732.274,595.19616,
729.363,550.27471,
726.452,520.3812,
723.542,534.95028,
720.631,582.38688,
717.721,609.3526,
714.810,633.59649,
711.899,648.34403,
708.989,607.99778,
706.078,624.57736,
703.168,609.92615,
700.257,590.3237,
697.347,583.66263,
694.436,598.75381,
691.525,635.72885,
688.615,624.88266,
685.704,612.02323,
682.794,612.0904,
679.883,620.54295,
676.973,638.17311,
674.062,644.30233,
671.151,628.65513,
668.241,612.22971,
665.330,629.06931,
662.420,614.69214,
659.509,602.22603,
656.598,596.75,
653.688,606.41179,
650.777,638.83101,
647.867,641.21999,
644.956,644.2266,
642.046,615.06974,
639.135,571.12117,
636.224,568.97281,
633.314,613.43337,
630.403,602.284,
627.493,610.17854,
624.582,635.56657,
621.672,580.91898,
618.761,606.86775,
615.850,638.3405,
612.940,658.11614,
610.029,663.51197,
607.119,680.09422,
604.208,674.64987,
601.297,690.19516,
598.387,689.83228,
595.476,643.04712,
592.566,646.19539,
589.655,661.00358,
586.745,672.65572,
583.834,678.62834,
580.923,681.75,
578.013,681.75,
575.102,677.73488,
572.192,674.75,
569.281,674.3282,
566.371,671.98033,
563.460,673.16094,
560.549,674.72456,
557.639,681.65839,
554.728,697.20801,
551.818,688.62454,
548.907,674.56174,
545.996,681.91279,
543.086,699.71055,
540.175,671.6793,
537.265,682.06275,
534.354,682.73647,
531.444,674.01281,
528.533,662.90883,
525.622,679.20372,
522.712,652.41233,
519.801,636.18692,
516.891,642.21951,
513.980,644.5424,
511.070,646.86304,
508.159,663.98726,
505.248,676.24203,
502.338,660.20184,
499.427,675.63848,
496.517,680.31566,
493.606,692.86371,
490.695,712.36364,
487.785,680.80222,
484.874,683.50469,
481.964,676.53749,
479.053,663.69173,
476.143,675.97913,
473.232,676.75,
470.321,689.88756,
467.411,692.10003,
464.500,658.00211,
461.590,667.95674,
458.679,697.16414,
455.769,704.88717,
452.858,679.68116,
449.947,727.04491,
447.037,705.80521,
444.126,686.85909,
441.216,692.05721,
438.305,711.1055,
435.395,707.84927,
432.484,706.41701,
429.573,708.03999,
426.663,704.99943,
423.752,621.75713,
420.842,539.62472,
417.931,450.70593,
415.020,330.88535,
412.110,465.7565,
409.199,603.79147,
406.289,689.33845,
403.378,672.70646,
400.468,659.85455,
397.557,641.35381,
394.646,642.56401,
391.736,684.416,
388.825,736.45796,
385.915,717.6896,
383.004,690.60543,
380.094,697.78839,
377.183,698.54087,
374.272,670.52542,
371.362,671.17917,
368.451,728.56463,
365.541,709.05069,
362.630,709.75865,
359.719,706.16694,
356.809,687.19989,
353.898,711.16143,
350.988,719.37746,
348.077,719.87877,
345.167,717.1067,
342.256,704.40653,
339.345,703.40716,
336.435,704.63963,
333.524,701.04536,
330.614,678.69069,
327.703,713.33582,
324.793,756.35908,
321.882,766.70854,
318.971,749.60935,
316.061,751.56303,
313.150,769.44998,
310.240,800.61884,
307.329,815.3281,
304.418,825.76549,
301.508,842.18695,
298.597,881.42904,
295.687,854.95142,
292.776,839.91666,
289.866,840.15121,
286.955,846.79974,
284.044,874.31497,
281.134,940.10915,
278.223,1021.2232,
275.313,990.27528,
272.402,1016.8615,
269.492,1055.6421,
266.581,1081.3914,
263.670,992.43456,
260.760,1004.884,
257.849,1051.5549,
254.939,1085.3135,
252.028,1083.5785,
249.117,1087.3183,
246.207,1086.4994,
243.296,1062.3422,
240.386,1023.1825,
237.475,1030.2589,
234.565,1071.0245,
231.654,1060.0687,
228.743,1045.6673,
225.833,1022.4199,
222.922,986.28469,
220.012,911.97205,
217.101,936.82158,
214.191,973.54358,
211.280,926.2585,
208.369,911.98499,
205.459,883.19423,
202.548,854.14279,
199.638,891.15089,
196.727,907.39324,
193.816,912.54591,
190.906,907.87078,
187.995,854.29296,
185.085,864.5942,
182.174,885.58464,
179.264,844.38698,
176.353,842.31312,
173.442,861.51533,
170.532,883.2572,
167.621,801.78696,
164.711,798.14487,
161.800,775.42767,
158.890,660.27125,
155.979,643.1099,
153.068,595.37129,
150.158,523.2225,
147.247,467.22222,
144.337,398.42843,
141.426,315.26996,
138.516,214.90519,
135.605,152.86695,
132.694,111.22121,
129.784,81.920883,
126.873,46.879521,
123.963,28.937667,
121.052,15.650794,
118.141,2.800558,
115.231,9.8557035,
112.320,11.902728,
109.410,11.022711,
106.499,12.447021,
103.589,11.629491,
100.678,7.2189179,
97.767,-2.0232706,
94.857,3.9869014,
91.946,5.9437783,
89.036,4.5242042,
86.125,3.1057936,
83.215,7.5282832,
80.304,7.6796444,
77.393,-4.3592446,
74.483,2.6116195,
71.572,6.0252958,
68.662,4.1265925,
65.751,-2.2314672,
62.840,0.56701983,
59.930,4.6262828,
57.019,0.3957909,
54.109,-1.4443217,
51.198,-0.74195362,
48.288,2.7103629,
45.377,-2.2132836,
42.466,-2.6011226,
39.556,0.32559289,
36.645,3.836544,
33.735,2.1537577,
30.824,-0.69177395,
27.914,-2.0941244,
25.003,-9.0990122,
22.092,-12.604191,
19.182,-10.815226,
16.271,2.4750869,
13.361,27.558525,
10.450,26.385217,
7.539,-138.41721,
4.629,-505.50208,
1.718,-900.7637,
-1.192,-1199.1416,
-4.103,-903.63945,
-7.013,-479.99468,
-9.924,-3.25,
