,PLDDA2~1,
Raman shift [1/cm],Intensity,
3014.167,0.75,
3011.256,-0.10007516,
3008.346,68.480361,
3005.435,99.78887,
3002.525,106.50503,
2999.614,118.94738,
2996.704,118.33453,
2993.793,103.85542,
2990.882,117.62024,
2987.972,127.73991,
2985.061,121.3165,
2982.151,130.72144,
2979.240,128.51233,
2976.329,153.25273,
2973.419,161.21213,
2970.508,150.31659,
2967.598,159.46687,
2964.687,162.76563,
2961.777,168.86984,
2958.866,154.40825,
2955.955,182.44467,
2953.045,167.85068,
2950.134,178.81415,
2947.224,188.15215,
2944.313,174.94088,
2941.403,208.95301,
2938.492,182.5901,
2935.581,190.24445,
2932.671,189.11485,
2929.760,207.86922,
2926.850,209.38421,
2923.939,211.59113,
2921.028,217.76775,
2918.118,232.44647,
2915.207,214.93368,
2912.297,234.69922,
2909.386,227.35584,
2906.476,220.88203,
2903.565,229.84629,
2900.654,238.36173,
2897.744,229.66199,
2894.833,223.98709,
2891.923,235.4808,
2889.012,232.33959,
2886.102,203.29325,
2883.191,231.7179,
2880.280,223.49641,
2877.370,204.20356,
2874.459,195.21548,
2871.549,214.67115,
2868.638,222.65928,
2865.727,245.87696,
2862.817,236.57887,
2859.906,242.83832,
2856.996,232.26585,
2854.085,237.55254,
2851.175,248.12954,
2848.264,246.5295,
2845.353,222.39701,
2842.443,242.56602,
2839.532,222.54108,
2836.622,229.39062,
2833.711,235.55061,
2830.801,228.14559,
2827.890,230.27274,
2824.979,244.24397,
2822.069,230.86372,
2819.158,239.60984,
2816.248,234.76158,
2813.337,234.88414,
2810.427,238.97039,
2807.516,237.11687,
2804.605,236.40626,
2801.695,237.69735,
2798.784,228.89785,
2795.874,230.87927,
2792.963,239.89277,
2790.052,217.75429,
2787.142,232.52635,
2784.231,224.39598,
2781.321,212.13293,
2778.410,236.06979,
2775.500,227.73035,
2772.589,238.63456,
2769.678,238.21416,
2766.768,243.61991,
2763.857,252.01204,
2760.947,252.81304,
2758.036,248.34864,
2755.126,250.27137,
2752.215,250.89993,
2749.304,270.17443,
2746.394,236.6189,
2743.483,250.35002,
2740.573,248.52434,
2737.662,243.2071,
2734.751,248.40054,
2731.841,249.31777,
2728.930,246.75,
2726.020,251.75521,
2723.109,250.4305,
2720.199,260.45628,
2717.288,256.2938,
2714.377,264.58738,
2711.467,248.91374,
2708.556,262.96263,
2705.646,258.4542,
2702.735,269.39947,
2699.825,269.37916,
2696.914,262.4636,
2694.003,273.97927,
2691.093,267.8571,
2688.182,275.15074,
2685.272,279.96195,
2682.361,260.75546,
2679.450,270.84057,
2676.540,259.19713,
2673.629,278.75898,
2670.719,273.46534,
2667.808,283.21501,
2664.898,279.07491,
2661.987,270.8501,
2659.076,289.58835,
2656.166,277.20028,
2653.255,268.93198,
2650.345,273.04583,
2647.434,289.57852,
2644.524,285.43344,
2641.613,272.83548,
2638.702,283.51328,
2635.792,294.21959,
2632.881,281.97629,
2629.971,274.26005,
2627.060,298.58593,
2624.149,283.72187,
2621.239,293.00445,
2618.328,307.52077,
2615.418,279.08636,
2612.507,294.50488,
2609.597,295.66816,
2606.686,295.99698,
2603.775,291.63095,
2600.865,302.39508,
2597.954,308.31877,
2595.044,299.75,
2592.133,304.0303,
2589.223,296.94262,
2586.312,313.26256,
2583.401,319.34125,
2580.491,322.29808,
2577.580,321.72689,
2574.670,311.07085,
2571.759,319.75,
2568.848,312.34112,
2565.938,305.74986,
2563.027,324.01819,
2560.117,313.21727,
2557.206,319.50277,
2554.296,314.004,
2551.385,305.56805,
2548.474,320.89833,
2545.564,335.40179,
2542.653,328.20302,
2539.743,323.70071,
2536.832,320.19859,
2533.922,339.62385,
2531.011,330.92507,
2528.100,326.61759,
2525.190,337.39918,
2522.279,329.32792,
2519.369,322.25934,
2516.458,326.8619,
2513.548,331.7954,
2510.637,341.62703,
2507.726,333.50463,
2504.816,327.62599,
2501.905,327.25732,
2498.995,331.58607,
2496.084,342.60365,
2493.173,340.51325,
2490.263,336.36807,
2487.352,330.20907,
2484.442,344.73714,
2481.531,360.5425,
2478.621,354.23337,
2475.710,356.88802,
2472.799,367.35098,
2469.889,358.32343,
2466.978,352.544,
2464.068,361.03048,
2461.157,357.86745,
2458.247,371.01476,
2455.336,362.90067,
2452.425,345.05188,
2449.515,374.08057,
2446.604,383.34683,
2443.694,374.98274,
2440.783,375.51126,
2437.872,377.3699,
2434.962,385.86983,
2432.051,369.60196,
2429.141,367.92069,
2426.230,370.35885,
2423.320,391.23604,
2420.409,378.88459,
2417.498,385.53652,
2414.588,394.47241,
2411.677,387.82172,
2408.767,391.01476,
2405.856,387.24528,
2402.946,371.9046,
2400.035,402.91435,
2397.124,398.29012,
2394.214,386.75,
2391.303,390.50135,
2388.393,397.48257,
2385.482,389.19062,
2382.571,400.07906,
2379.661,396.16871,
2376.750,387.32881,
2373.840,408.92803,
2370.929,422.66336,
2368.019,402.47354,
2365.108,393.88874,
2362.197,411.90347,
2359.287,414.75836,
2356.376,417.74296,
2353.466,416.91606,
2350.555,419.82479,
2347.645,420.22283,
2344.734,425.96198,
2341.823,406.08166,
2338.913,425.94704,
2336.002,433.70461,
2333.092,421.18679,
2330.181,439.61184,
2327.270,441.02503,
2324.360,425.64854,
2321.449,444.61053,
2318.539,448.09254,
2315.628,445.6165,
2312.718,428.9174,
2309.807,438.7747,
2306.896,450.23043,
2303.986,442.31493,
2301.075,451.62231,
2298.165,441.78816,
2295.254,432.85772,
2292.344,451.37649,
2289.433,460.33681,
2286.522,446.93744,
2283.612,462.03062,
2280.701,466.61547,
2277.791,458.99045,
2274.880,467.31795,
2271.969,465.91872,
2269.059,455.45301,
2266.148,482.63648,
2263.238,448.46818,
2260.327,482.74973,
2257.417,461.44333,
2254.506,475.7044,
2251.595,477.17177,
2248.685,459.18085,
2245.774,480.48575,
2242.864,469.59288,
2239.953,477.65352,
2237.043,468.42571,
2234.132,486.21229,
2231.221,499.72418,
2228.311,501.75,
2225.400,483.3692,
2222.490,506.97806,
2219.579,518.11762,
2216.669,516.76908,
2213.758,513.40229,
2210.847,539.54342,
2207.937,524.64579,
2205.026,540.75,
2202.116,539.17675,
2199.205,538.04977,
2196.294,567.47793,
2193.384,585.329,
2190.473,570.16432,
2187.563,591.78383,
2184.652,599.80428,
2181.742,613.43277,
2178.831,637.46598,
2175.920,658.1562,
2173.010,693.12698,
2170.099,715.74852,
2167.189,748.92221,
2164.278,772.01633,
2161.368,780.31991,
2158.457,831.66047,
2155.546,882.85485,
2152.636,912.89891,
2149.725,944.38085,
2146.815,953.61652,
2143.904,990.45631,
2140.993,1001.3268,
2138.083,1000.9749,
2135.172,1019.8004,
2132.262,1020.0088,
2129.351,1018.4638,
2126.441,987.59457,
2123.530,910.61531,
2120.619,897.37391,
2117.709,868.18237,
2114.798,790.54977,
2111.888,749.52541,
2108.977,714.68376,
2106.067,660.31436,
2103.156,652.14918,
2100.245,642.7155,
2097.335,590.76047,
2094.424,601.73992,
2091.514,566.39247,
2088.603,584.7361,
2085.692,596.29281,
2082.782,561.47708,
2079.871,569.46528,
2076.961,568.13747,
2074.050,581.87727,
2071.140,564.10637,
2068.229,558.84506,
2065.318,557.5775,
2062.408,561.28782,
2059.497,536.50592,
2056.587,541.61014,
2053.676,546.48353,
2050.766,549.44208,
2047.855,535.46521,
2044.944,528.41025,
2042.034,543.61702,
2039.123,540.15067,
2036.213,539.67441,
2033.302,541.6194,
2030.391,553.97025,
2027.481,532.68924,
2024.570,554.24922,
2021.660,523.99691,
2018.749,552.67402,
2015.839,546.58005,
2012.928,527.33558,
2010.017,557.61971,
2007.107,556.02661,
2004.196,546.91669,
2001.286,536.8313,
1998.375,532.70866,
1995.465,521.59107,
1992.554,517.75,
1989.643,505.19933,
1986.733,510.58947,
1983.822,509.58383,
1980.912,519.15581,
1978.001,520.64797,
1975.090,523.39732,
1972.180,507.16356,
1969.269,491.635,
1966.359,490.72314,
1963.448,506.51619,
1960.538,483.78169,
1957.627,500.93268,
1954.716,494.03727,
1951.806,484.24678,
1948.895,491.58202,
1945.985,477.1585,
1943.074,476.50649,
1940.164,475.01933,
1937.253,472.85021,
1934.342,470.33983,
1931.432,480.75,
1928.521,448.92962,
1925.611,445.44466,
1922.700,461.03867,
1919.790,449.10855,
1916.879,456.98276,
1913.968,419.79672,
1911.058,444.12839,
1908.147,470.70906,
1905.237,437.6545,
1902.326,471.55448,
1899.415,435.18417,
1896.505,461.61743,
1893.594,461.74697,
1890.684,454.32525,
1887.773,459.07715,
1884.863,458.99374,
1881.952,460.81741,
1879.041,478.36683,
1876.131,468.90556,
1873.220,440.47114,
1870.310,464.59748,
1867.399,459.86196,
1864.489,441.84042,
1861.578,464.64043,
1858.667,430.0314,
1855.757,466.32995,
1852.846,486.73975,
1849.936,467.44872,
1847.025,447.68672,
1844.114,472.98061,
1841.204,481.20105,
1838.293,485.24418,
1835.383,492.029,
1832.472,491.78478,
1829.562,487.83359,
1826.651,478.54467,
1823.740,492.2213,
1820.830,489.49008,
1817.919,509.55254,
1815.009,487.35051,
1812.098,462.10434,
1809.188,496.33131,
1806.277,487.01558,
1803.366,520.18437,
1800.456,488.45367,
1797.545,518.30316,
1794.635,525.68503,
1791.724,533.96366,
1788.813,508.54846,
1785.903,507.03292,
1782.992,520.16431,
1780.082,517.71213,
1777.171,497.41702,
1774.261,504.59012,
1771.350,531.76726,
1768.439,550.51495,
1765.529,528.02033,
1762.618,513.23313,
1759.708,525.50012,
1756.797,527.60606,
1753.887,521.44242,
1750.976,548.10536,
1748.065,522.73926,
1745.155,517.46598,
1742.244,522.4665,
1739.334,534.49823,
1736.423,537.51075,
1733.512,531.38413,
1730.602,556.67861,
1727.691,516.61973,
1724.781,550.51775,
1721.870,558.11663,
1718.960,566.61679,
1716.049,567.07205,
1713.138,541.95512,
1710.228,556.02624,
1707.317,577.326,
1704.407,598.61634,
1701.496,626.27334,
1698.586,625.97805,
1695.675,595.80732,
1692.764,560.61474,
1689.854,582.66734,
1686.943,624.33352,
1684.033,650.12909,
1681.122,577.02443,
1678.211,589.61676,
1675.301,655.54649,
1672.390,672.6543,
1669.480,640.99066,
1666.569,670.78809,
1663.659,674.63195,
1660.748,728.67552,
1657.837,776.07805,
1654.927,788.94596,
1652.016,715.30514,
1649.106,778.38651,
1646.195,804.27748,
1643.285,825.81836,
1640.374,829.25174,
1637.463,853.23639,
1634.553,880.96179,
1631.642,962.64035,
1628.732,1043.9752,
1625.821,1081.7788,
1622.911,1125.5021,
1620.000,1188.9437,
1617.089,1285.7997,
1614.179,1351.8887,
1611.268,1424.036,
1608.358,1553.5225,
1605.447,1571.0644,
1602.536,1606.2298,
1599.626,1627.1487,
1596.715,1640.5488,
1593.805,1578.2524,
1590.894,1534.6425,
1587.984,1534.0805,
1585.073,1487.1043,
1582.162,1473.7407,
1579.252,1487.4794,
1576.341,1477.933,
1573.431,1477.0995,
1570.520,1457.1118,
1567.610,1425.4163,
1564.699,1393.549,
1561.788,1392.4964,
1558.878,1363.6601,
1555.967,1306.4675,
1553.057,1284.75,
1550.146,1244.1901,
1547.235,1211.0758,
1544.325,1174.0802,
1541.414,1158.931,
1538.504,1150.3083,
1535.593,1137.6715,
1532.683,1128.8057,
1529.772,1094.4816,
1526.861,1072.5779,
1523.951,1067.4502,
1521.040,1044.6946,
1518.130,1031.4024,
1515.219,1000.3908,
1512.309,968.29953,
1509.398,957.76511,
1506.487,970.15209,
1503.577,933.21594,
1500.666,968.0638,
1497.756,946.3686,
1494.845,941.02961,
1491.934,923.64921,
1489.024,892.84944,
1486.113,917.71203,
1483.203,885.99963,
1480.292,865.62828,
1477.382,830.42007,
1474.471,800.49601,
1471.560,800.28099,
1468.650,789.7678,
1465.739,798.48127,
1462.829,809.13727,
1459.918,783.12545,
1457.008,802.3813,
1454.097,793.29909,
1451.186,746.14652,
1448.276,762.59485,
1445.365,775.71603,
1442.455,789.91701,
1439.544,772.42303,
1436.633,778.59508,
1433.723,789.77113,
1430.812,739.34623,
1427.902,721.3892,
1424.991,706.22501,
1422.081,647.03147,
1419.170,674.58429,
1416.259,676.50975,
1413.349,655.35849,
1410.438,681.63964,
1407.528,677.08149,
1404.617,660.29159,
1401.707,660.51946,
1398.796,654.83744,
1395.885,662.35252,
1392.975,672.81184,
1390.064,663.17441,
1387.154,703.67482,
1384.243,668.57477,
1381.332,601.72593,
1378.422,650.32966,
1375.511,661.57103,
1372.601,706.90695,
1369.690,784.47113,
1366.780,868.8252,
1363.869,892.10886,
1360.958,862.71983,
1358.048,901.928,
1355.137,933.96748,
1352.227,944.76317,
1349.316,962.58351,
1346.406,997.15157,
1343.495,1060.0513,
1340.584,1023.428,
1337.674,1066.8973,
1334.763,1135.5968,
1331.853,1157.8504,
1328.942,1172.9814,
1326.032,1215.531,
1323.121,1280.3223,
1320.210,1278.4405,
1317.300,1314.3783,
1314.389,1391.9731,
1311.479,1405.4784,
1308.568,1386.0687,
1305.657,1419.8738,
1302.747,1438.1165,
1299.836,1507.1039,
1296.926,1568.3737,
1294.015,1603.308,
1291.105,1734.1896,
1288.194,1762.9324,
1285.283,1826.6103,
1282.373,1867.2031,
1279.462,1889.3772,
1276.552,1928.0887,
1273.641,1966.8237,
1270.731,1970.5754,
1267.820,1958.0351,
1264.909,1971.8274,
1261.999,2008.4504,
1259.088,2000.2413,
1256.178,1948.3626,
1253.267,1886.0463,
1250.356,1826.4058,
1247.446,1753.5313,
1244.535,1678.0983,
1241.625,1614.5278,
1238.714,1560.691,
1235.804,1513.3229,
1232.893,1482.7562,
1229.982,1454.6273,
1227.072,1451.0061,
1224.161,1416.2893,
1221.251,1372.5245,
1218.340,1360.3978,
1215.430,1339.2791,
1212.519,1314.9586,
1209.608,1319.8619,
1206.698,1341.9627,
1203.787,1339.8656,
1200.877,1356.6943,
1197.966,1355.7951,
1195.055,1386.467,
1192.145,1435.3279,
1189.234,1448.4524,
1186.324,1494.1181,
1183.413,1522.151,
1180.503,1523.252,
1177.592,1550.5884,
1174.681,1542.1884,
1171.771,1509.8022,
1168.860,1468.72,
1165.950,1442.9802,
1163.039,1450.3213,
1160.129,1429.7964,
1157.218,1428.095,
1154.307,1433.1351,
1151.397,1413.8354,
1148.486,1416.4532,
1145.576,1396.7092,
1142.665,1372.7356,
1139.754,1372.3773,
1136.844,1357.3433,
1133.933,1343.7119,
1131.023,1341.1105,
1128.112,1339.4649,
1125.202,1334.6485,
1122.291,1339.8645,
1119.380,1313.0965,
1116.470,1348.3976,
1113.559,1349.657,
1110.649,1348.0952,
1107.738,1352.5724,
1104.828,1346.3475,
1101.917,1331.75,
1099.006,1334.9046,
1096.096,1351.4701,
1093.185,1379.5662,
1090.275,1351.807,
1087.364,1342.0055,
1084.453,1337.9377,
1081.543,1346.2673,
1078.632,1357.5562,
1075.722,1356.3232,
1072.811,1372.1844,
1069.901,1378.2972,
1066.990,1352.8834,
1064.079,1373.9706,
1061.169,1399.4529,
1058.258,1431.7712,
1055.348,1449.6977,
1052.437,1424.0298,
1049.527,1442.3612,
1046.616,1484.065,
1043.705,1475.647,
1040.795,1491.5436,
1037.884,1498.7041,
1034.974,1505.9227,
1032.063,1522.3655,
1029.153,1516.8272,
1026.242,1534.1264,
1023.331,1505.5852,
1020.421,1507.4181,
1017.510,1536.5227,
1014.600,1566.4774,
1011.689,1574.9038,
1008.778,1567.2949,
1005.868,1594.3446,
1002.957,1660.5919,
1000.047,1756.654,
997.136,1781.7021,
994.226,1792.8113,
991.315,1804.8342,
988.404,1782.0482,
985.494,1757.4623,
982.583,1744.614,
979.673,1755.188,
976.762,1749.7693,
973.852,1735.6778,
970.941,1734.7523,
968.030,1753.9003,
965.120,1754.7214,
962.209,1747.901,
959.299,1753.8325,
956.388,1728.7518,
953.477,1729.7675,
950.567,1762.75,
947.656,1763.5299,
944.746,1769.4768,
941.835,1760.0322,
938.925,1774.8593,
936.014,1762.5053,
933.103,1748.1057,
930.193,1759.5502,
927.282,1756.4127,
924.372,1713.2868,
921.461,1684.9216,
918.551,1658.7411,
915.640,1633.0017,
912.729,1620.0437,
909.819,1632.7508,
906.908,1640.3327,
903.998,1652.6805,
901.087,1637.2913,
898.176,1631.522,
895.266,1639.6066,
892.355,1660.0424,
889.445,1736.4158,
886.534,1744.2638,
883.624,1760.5523,
880.713,1774.3846,
877.802,1768.9387,
874.892,1746.3823,
871.981,1744.2568,
869.071,1723.3715,
866.160,1743.2086,
863.250,1734.3545,
860.339,1722.4776,
857.428,1729.3064,
854.518,1713.6186,
851.607,1674.5114,
848.697,1680.1307,
845.786,1666.5483,
842.875,1645.9536,
839.965,1646.6774,
837.054,1673.7035,
834.144,1669.5597,
831.233,1674.0829,
828.323,1669.826,
825.412,1655.0229,
822.501,1640.6862,
819.591,1651.4294,
816.680,1602.8717,
813.770,1580.0995,
810.859,1571.945,
807.949,1566.4427,
805.038,1561.6328,
802.127,1593.7347,
799.217,1553.5173,
796.306,1537.6149,
793.396,1542.2004,
790.485,1557.6992,
787.574,1582.6913,
784.664,1554.8075,
781.753,1549.75,
778.843,1542.8888,
775.932,1547.7868,
773.022,1576.2716,
770.111,1586.0825,
767.200,1592.8405,
764.290,1583.7703,
761.379,1555.2689,
758.469,1530.6558,
755.558,1556.1422,
752.648,1535.7771,
749.737,1508.9024,
746.826,1496.2838,
743.916,1472.0159,
741.005,1408.274,
738.095,1386.3533,
735.184,1259.3296,
732.274,1213.4313,
729.363,1259.7875,
726.452,1361.8528,
723.542,1456.5518,
720.631,1522.9131,
717.721,1541.75,
714.810,1535.2785,
711.899,1517.9777,
708.989,1488.9284,
706.078,1488.75,
703.168,1490.5717,
700.257,1498.3512,
697.347,1498.8379,
694.436,1467.6883,
691.525,1502.252,
688.615,1482.7068,
685.704,1462.4331,
682.794,1466.3456,
679.883,1496.885,
676.973,1477.6521,
674.062,1464.1788,
671.151,1470.5849,
668.241,1491.7062,
665.330,1510.2206,
662.420,1499.0383,
659.509,1490.4007,
656.598,1487.6155,
653.688,1496.1114,
650.777,1520.372,
647.867,1509.2234,
644.956,1498.0819,
642.046,1487.3602,
639.135,1474.0906,
636.224,1452.8415,
633.314,1471.1021,
630.403,1496.4424,
627.493,1510.3659,
624.582,1512.9283,
621.672,1527.1842,
618.761,1514.0711,
615.850,1516.9128,
612.940,1523.0915,
610.029,1528.3533,
607.119,1555.9904,
604.208,1563.0101,
601.297,1561.7589,
598.387,1555.3104,
595.476,1547.7899,
592.566,1558.8089,
589.655,1541.3133,
586.745,1529.0141,
583.834,1519.5037,
580.923,1493.6837,
578.013,1482.6974,
575.102,1472.2934,
572.192,1476.754,
569.281,1496.9996,
566.371,1509.5216,
563.460,1538.9687,
560.549,1555.6228,
557.639,1558.8701,
554.728,1554.0949,
551.818,1559.5571,
548.907,1575.3759,
545.996,1594.4697,
543.086,1607.0658,
540.175,1594.6075,
537.265,1577.8159,
534.354,1590.3126,
531.444,1605.6848,
528.533,1598.7985,
525.622,1613.5415,
522.712,1652.5484,
519.801,1669.6399,
516.891,1671.1749,
513.980,1727.6985,
511.070,1736.9761,
508.159,1742.093,
505.248,1755.0134,
502.338,1784.1733,
499.427,1832.7987,
496.517,1833.3056,
493.606,1837.2097,
490.695,1864.071,
487.785,1866.3803,
484.874,1893.2452,
481.964,1899.8597,
479.053,1877.5347,
476.143,1830.6889,
473.232,1834.2246,
470.321,1830.9111,
467.411,1831.3348,
464.500,1849.9937,
461.590,1820.1298,
458.679,1818.9038,
455.769,1837.6676,
452.858,1869.4086,
449.947,1904.5494,
447.037,1903.8621,
444.126,1894.6833,
441.216,1884.1782,
438.305,1863.6061,
435.395,1887.6311,
432.484,1896.749,
429.573,1881.9399,
426.663,1848.4937,
423.752,1888.2926,
420.842,1862.4515,
417.931,1833.2361,
415.020,1915.8971,
412.110,1931.919,
409.199,1949.9529,
406.289,1968.4236,
403.378,1982.7705,
400.468,1988.8184,
397.557,1979.4387,
394.646,1963.3631,
391.736,1946.6494,
388.825,1881.0313,
385.915,1883.5699,
383.004,1910.4597,
380.094,1931.5159,
377.183,1966.1298,
374.272,2019.7152,
371.362,2062.9309,
368.451,2078.0235,
365.541,2082.5268,
362.630,2111.6083,
359.719,2134.454,
356.809,2133.7047,
353.898,2132.9559,
350.988,2127.8676,
348.077,2128.6869,
345.167,2142.5285,
342.256,2177.6408,
339.345,2190.9386,
336.435,2174.5961,
333.524,2125.5016,
330.614,2149.3466,
327.703,2164.9645,
324.793,2184.3506,
321.882,2217.7157,
318.971,2203.5903,
316.061,2198.2617,
313.150,2194.9786,
310.240,2186.0732,
307.329,2232.916,
304.418,2249.0143,
301.508,2237.4792,
298.597,2206.3817,
295.687,2215.2631,
292.776,2229.9167,
289.866,2273.2653,
286.955,2418.0555,
284.044,2517.8124,
281.134,2583.3753,
278.223,2623.7558,
275.313,2671.6513,
272.402,2673.6174,
269.492,2713.06,
266.581,2815.6898,
263.670,2884.7967,
260.760,2917.2872,
257.849,2947.7404,
254.939,3002.0477,
252.028,3015.7792,
249.117,2988.3152,
246.207,2941.6053,
243.296,2910.1278,
240.386,2940.7056,
237.475,2912.2634,
234.565,2827.8571,
231.654,2765.0441,
228.743,2740.818,
225.833,2705.3093,
222.922,2642.0026,
220.012,2625.9744,
217.101,2573.6413,
214.191,2525.8428,
211.280,2529.4801,
208.369,2518.985,
205.459,2510.556,
202.548,2509.2598,
199.638,2529.5779,
196.727,2498.6008,
193.816,2475.4592,
190.906,2482.7912,
187.995,2512.4762,
185.085,2560.5785,
182.174,2603.7294,
179.264,2607.3432,
176.353,2609.0316,
173.442,2610.4751,
170.532,2607.0456,
167.621,2566.671,
164.711,2517.3836,
161.800,2474.394,
158.890,2449.9233,
155.979,2316.6006,
153.068,2168.5709,
150.158,1999.3192,
147.247,1761.677,
144.337,1461.7158,
141.426,1154.4327,
138.516,864.0918,
135.605,606.59867,
132.694,412.32499,
129.784,272.35319,
126.873,177.95606,
123.963,125.17486,
121.052,92.667769,
118.141,74.820219,
115.231,46.327186,
112.320,30.937277,
109.410,25.75,
106.499,25.75,
103.589,25.189746,
100.678,22.577026,
97.767,16.889526,
94.857,9.8201095,
91.946,7.1531109,
89.036,8.7660812,
86.125,15.148929,
83.215,14.626319,
80.304,11.552837,
77.393,8.0119869,
74.483,11.68081,
71.572,12.662944,
68.662,10.403663,
65.751,6.8714071,
62.840,9.1219139,
59.930,12.000855,
57.019,9.1805273,
54.109,6.3613566,
51.198,5.6548278,
48.288,7.699038,
45.377,1.3686354,
42.466,2.0477547,
39.556,6.5197628,
36.645,5.1153824,
33.735,-0.96173312,
30.824,-4.0411303,
27.914,2.9706222,
25.003,5.6179124,
22.092,7.0729046,
19.182,7.8872972,
16.271,12.084238,
13.361,20.493328,
10.450,34.67778,
7.539,63.30871,
4.629,66.6194,
1.718,60.825646,
-1.192,54.551346,
-4.103,19.112839,
-7.013,-2.9459776,
-9.924,-2.25,
