,PLC501~1,
Raman shift [1/cm],Intensity,
3014.167,0.125,
3011.256,1.6750107,
3008.346,97.321509,
3005.435,98.241609,
3002.525,108.88003,
2999.614,118.78865,
2996.704,120.71778,
2993.793,118.73502,
2990.882,130.68988,
2987.972,126.19058,
2985.061,136.4649,
2982.151,133.125,
2979.240,140.125,
2976.329,140.125,
2973.419,137.04798,
2970.508,165.79153,
2967.598,162.74629,
2964.687,170.82677,
2961.777,158.87706,
2958.866,161.4519,
2955.955,174.67809,
2953.045,170.22568,
2950.134,178.15708,
2947.224,186.29581,
2944.313,196.6193,
2941.403,209.94662,
2938.492,188.68868,
2935.581,209.77526,
2932.671,210.88465,
2929.760,204.31345,
2926.850,203.91598,
2923.939,213.60161,
2921.028,212.79546,
2918.118,215.6653,
2915.207,218.71361,
2912.297,222.11231,
2909.386,222.31478,
2906.476,214.09411,
2903.565,221.49611,
2900.654,227.07746,
2897.744,223.03699,
2894.833,213.65082,
2891.923,212.5577,
2889.012,210.91691,
2886.102,208.91689,
2883.191,212.12122,
2880.280,190.17762,
2877.370,155.21226,
2874.459,144.81081,
2871.549,192.38819,
2868.638,190.30645,
2865.727,225.27888,
2862.817,197.55282,
2859.906,210.17628,
2856.996,222.64085,
2854.085,242.0116,
2851.175,227.38705,
2848.264,221.70334,
2845.353,210.44851,
2842.443,223.12848,
2839.532,218.57277,
2836.622,228.88346,
2833.711,230.49548,
2830.801,211.03897,
2827.890,225.75088,
2824.979,239.11294,
2822.069,214.14774,
2819.158,222.20587,
2816.248,236.60763,
2813.337,243.01159,
2810.427,236.86743,
2807.516,234.49187,
2804.605,254.8774,
2801.695,235.94077,
2798.784,235.53362,
2795.874,238.98516,
2792.963,232.91064,
2790.052,250.12092,
2787.142,235.25662,
2784.231,242.67313,
2781.321,226.75937,
2778.410,237.84584,
2775.500,222.95431,
2772.589,241.58677,
2769.678,247.44581,
2766.768,237.13857,
2763.857,243.283,
2760.947,251.16913,
2758.036,242.8765,
2755.126,245.50534,
2752.215,241.80675,
2749.304,251.08182,
2746.394,251.60684,
2743.483,263.72497,
2740.573,246.05853,
2737.662,260.21081,
2734.751,252.61515,
2731.841,250.31364,
2728.930,265.77758,
2726.020,260.56887,
2723.109,276.0835,
2720.199,258.18442,
2717.288,255.47537,
2714.377,263.4791,
2711.467,263.84589,
2708.556,278.9549,
2705.646,270.05456,
2702.735,263.47553,
2699.825,283.54865,
2696.914,273.36271,
2694.003,269.79491,
2691.093,277.5534,
2688.182,279.99833,
2685.272,264.96568,
2682.361,269.03657,
2679.450,278.83282,
2676.540,292.69819,
2673.629,276.77071,
2670.719,278.41705,
2667.808,276.02773,
2664.898,292.74854,
2661.987,295.02523,
2659.076,295.39656,
2656.166,301.18991,
2653.255,299.3869,
2650.345,279.58053,
2647.434,293.86778,
2644.524,295.75811,
2641.613,301.75354,
2638.702,296.20391,
2635.792,295.28153,
2632.881,294.27974,
2629.971,295.125,
2627.060,298.79125,
2624.149,295.69376,
2621.239,290.37945,
2618.328,308.16739,
2615.418,308.79318,
2612.507,313.70996,
2609.597,303.50224,
2606.686,304.98242,
2603.775,299.00595,
2600.865,322.0022,
2597.954,315.59795,
2595.044,313.05415,
2592.133,331.57088,
2589.223,317.96814,
2586.312,331.5371,
2583.401,316.81844,
2580.491,317.22116,
2577.580,348.10024,
2574.670,332.29479,
2571.759,325.72089,
2568.848,320.47858,
2565.938,341.88699,
2563.027,331.22272,
2560.117,330.58294,
2557.206,334.54935,
2554.296,325.52775,
2551.385,332.74496,
2548.474,325.01385,
2545.564,348.33361,
2542.653,324.91358,
2539.743,346.10035,
2536.832,354.16612,
2533.922,346.58231,
2531.011,370.72537,
2528.100,341.53261,
2525.190,338.77418,
2522.279,335.78157,
2519.369,352.74742,
2516.458,357.78931,
2513.548,346.22512,
2510.637,341.86279,
2507.726,350.62685,
2504.816,354.12613,
2501.905,362.74817,
2498.995,352.24444,
2496.084,357.19122,
2493.173,365.78295,
2490.263,368.72048,
2487.352,386.45727,
2484.442,369.13143,
2481.531,364.125,
2478.621,381.01606,
2475.710,371.15567,
2472.799,374.3851,
2469.889,361.94492,
2466.978,367.72278,
2464.068,360.71755,
2461.157,388.47247,
2458.247,391.13967,
2455.336,383.82754,
2452.425,382.125,
2449.515,388.75701,
2446.604,387.53513,
2443.694,393.6135,
2440.783,400.98311,
2437.872,391.01561,
2434.962,388.65034,
2432.051,396.46462,
2429.141,402.41324,
2426.230,400.25538,
2423.320,398.91061,
2420.409,406.15058,
2417.498,409.33005,
2414.588,408.125,
2411.677,409.44772,
2408.767,423.43701,
2405.856,428.33696,
2402.946,421.60132,
2400.035,439.40905,
2397.124,420.69718,
2394.214,426.31261,
2391.303,415.34045,
2388.393,418.87151,
2385.482,421.99281,
2382.571,414.44125,
2379.661,425.96212,
2376.750,435.86144,
2373.840,428.49691,
2370.929,449.86509,
2368.019,456.4378,
2365.108,459.4051,
2362.197,443.15237,
2359.287,454.29325,
2356.376,460.12148,
2353.466,439.86638,
2350.555,446.8297,
2347.645,432.9409,
2344.734,433.70104,
2341.823,439.04208,
2338.913,457.65784,
2336.002,460.125,
2333.092,465.75708,
2330.181,448.24526,
2327.270,462.85988,
2324.360,463.25943,
2321.449,466.38691,
2318.539,462.95373,
2315.628,486.5099,
2312.718,470.09415,
2309.807,476.39825,
2306.896,482.39261,
2303.986,480.42362,
2301.075,486.40153,
2298.165,493.13454,
2295.254,477.44815,
2292.344,480.91337,
2289.433,486.46864,
2286.522,493.23211,
2283.612,503.33547,
2280.701,499.20125,
2277.791,495.88455,
2274.880,494.40492,
2271.969,514.38015,
2269.059,518.33208,
2266.148,523.42049,
2263.238,516.22925,
2260.327,518.53885,
2257.417,519.61778,
2254.506,505.93412,
2251.595,517.4013,
2248.685,510.39428,
2245.774,532.1575,
2242.864,536.03272,
2239.953,547.07676,
2237.043,535.83893,
2234.132,542.89117,
2231.221,538.49185,
2228.311,558.22033,
2225.400,546.18129,
2222.490,548.86769,
2219.579,554.17642,
2216.669,566.08684,
2213.758,572.16813,
2210.847,575.96127,
2207.937,574.24715,
2205.026,577.12471,
2202.116,589.84474,
2199.205,602.71253,
2196.294,590.88503,
2193.384,626.17607,
2190.473,614.09565,
2187.563,600.31834,
2184.652,643.58908,
2181.742,668.44384,
2178.831,669.69305,
2175.920,674.94286,
2173.010,702.90108,
2170.099,703.79216,
2167.189,740.06042,
2164.278,732.15214,
2161.368,746.98107,
2158.457,774.63215,
2155.546,782.125,
2152.636,810.69407,
2149.725,823.125,
2146.815,834.72457,
2143.904,846.42611,
2140.993,858.90266,
2138.083,880.91229,
2135.172,877.99905,
2132.262,891.87324,
2129.351,879.04217,
2126.441,876.892,
2123.530,830.29336,
2120.619,836.04281,
2117.709,781.2345,
2114.798,770.0325,
2111.888,726.72572,
2108.977,712.39652,
2106.067,705.54122,
2103.156,693.44681,
2100.245,658.11935,
2097.335,645.99412,
2094.424,627.67264,
2091.514,648.91807,
2088.603,653.05591,
2085.692,629.93921,
2082.782,617.29771,
2079.871,642.41204,
2076.961,665.89802,
2074.050,611.65833,
2071.140,623.57316,
2068.229,636.02343,
2065.318,634.96323,
2062.408,620.00396,
2059.497,631.13096,
2056.587,638.79933,
2053.676,641.94162,
2050.766,627.35669,
2047.855,631.89717,
2044.944,623.45994,
2042.034,611.77808,
2039.123,596.28662,
2036.213,614.77834,
2033.302,618.125,
2030.391,613.61665,
2027.481,638.64913,
2024.570,637.16815,
2021.660,637.00674,
2018.749,620.80883,
2015.839,634.62762,
2012.928,618.10151,
2010.017,628.38558,
2007.107,611.05585,
2004.196,626.89885,
2001.286,633.29109,
1998.375,637.77953,
1995.465,601.79465,
1992.554,606.90133,
1989.643,628.43373,
1986.733,609.92763,
1983.822,619.04671,
1980.912,593.13531,
1978.001,615.45525,
1975.090,612.77995,
1972.180,600.77924,
1969.269,613.95547,
1966.359,598.61126,
1963.448,621.26768,
1960.538,603.91065,
1957.627,587.31694,
1954.716,584.18245,
1951.806,572.52242,
1948.895,583.31321,
1945.985,603.08252,
1943.074,591.19886,
1940.164,576.14412,
1937.253,564.54245,
1934.342,563.64639,
1931.432,565.54771,
1928.521,582.00929,
1925.611,583.91728,
1922.700,557.38191,
1919.790,559.73762,
1916.879,580.66026,
1913.968,595.10902,
1911.058,576.51239,
1908.147,591.07678,
1905.237,558.125,
1902.326,559.17981,
1899.415,563.76525,
1896.505,553.81159,
1893.594,539.03051,
1890.684,559.54975,
1887.773,569.23714,
1884.863,570.95188,
1881.952,566.84756,
1879.041,566.39447,
1876.131,568.75376,
1873.220,573.48342,
1870.310,555.56001,
1867.399,565.93308,
1864.489,604.42402,
1861.578,586.5646,
1858.667,582.15194,
1855.757,583.74075,
1852.846,568.38653,
1849.936,576.93881,
1847.025,585.71137,
1844.114,585.27321,
1841.204,573.0271,
1838.293,556.15493,
1835.383,556.70598,
1832.472,588.73022,
1829.562,603.31901,
1826.651,610.59522,
1823.740,579.63835,
1820.830,592.58979,
1817.919,610.71189,
1815.009,623.39981,
1812.098,575.75495,
1809.188,617.02412,
1806.277,615.23566,
1803.366,609.07509,
1800.456,609.31252,
1797.545,659.05434,
1794.635,608.996,
1791.724,616.21227,
1788.813,658.92731,
1785.903,658.85567,
1782.992,624.93123,
1780.082,594.11238,
1777.171,588.79256,
1774.261,601.61519,
1771.350,618.9165,
1768.439,631.61597,
1765.529,644.85184,
1762.618,643.57438,
1759.708,640.01625,
1756.797,650.18561,
1753.887,646.76494,
1750.976,649.45615,
1748.065,658.89612,
1745.155,661.31853,
1742.244,660.47645,
1739.334,650.90853,
1736.423,656.31003,
1733.512,668.12909,
1730.602,709.27387,
1727.691,698.32752,
1724.781,690.33842,
1721.870,698.17267,
1718.960,691.08045,
1716.049,700.87065,
1713.138,714.23995,
1710.228,701.32995,
1707.317,737.16157,
1704.407,765.48333,
1701.496,715.25523,
1698.586,717.51688,
1695.675,753.68193,
1692.764,748.55123,
1689.854,741.42815,
1686.943,799.10146,
1684.033,752.36681,
1681.122,754.07402,
1678.211,824.44927,
1675.301,803.19284,
1672.390,783.19678,
1669.480,807.74269,
1666.569,883.98535,
1663.659,873.40265,
1660.748,889.81649,
1657.837,874.67174,
1654.927,900.69475,
1652.016,965.03154,
1649.106,922.0308,
1646.195,958.07705,
1643.285,957.44662,
1640.374,1014.8358,
1637.463,1047.4765,
1634.553,1013.7358,
1631.642,1121.3204,
1628.732,1139.7709,
1625.821,1248.1479,
1622.911,1282.9278,
1620.000,1363.1045,
1617.089,1413.13,
1614.179,1492.8407,
1611.268,1616.4406,
1608.358,1648.7671,
1605.447,1701.9826,
1602.536,1715.3758,
1599.626,1731.7639,
1596.715,1686.8373,
1593.805,1686.5967,
1590.894,1643.0915,
1587.984,1633.6606,
1585.073,1605.048,
1582.162,1548.3621,
1579.252,1544.6714,
1576.341,1546.9261,
1573.431,1522.8466,
1570.520,1509.2456,
1567.610,1501.9092,
1564.699,1459.5233,
1561.788,1442.0123,
1558.878,1439.7595,
1555.967,1396.1818,
1553.057,1379.8663,
1550.146,1367.7614,
1547.235,1313.8505,
1544.325,1319.8846,
1541.414,1310.321,
1538.504,1268.3628,
1535.593,1258.6381,
1532.683,1268.2317,
1529.772,1256.4066,
1526.861,1229.5506,
1523.951,1222.3343,
1521.040,1190.5607,
1518.130,1170.386,
1515.219,1164.9248,
1512.309,1166.179,
1509.398,1160.1552,
1506.487,1198.8733,
1503.577,1173.9494,
1500.666,1163.6553,
1497.756,1136.659,
1494.845,1143.6453,
1491.934,1156.1124,
1489.024,1152.2624,
1486.113,1124.3085,
1483.203,1104.3616,
1480.292,1091.9429,
1477.382,1108.7147,
1474.471,1110.0555,
1471.560,1053.9744,
1468.650,1017.4097,
1465.739,1016.5299,
1462.829,1019.5282,
1459.918,1038.4622,
1457.008,1039.9094,
1454.097,1030.2844,
1451.186,1033.8774,
1448.276,1025.4836,
1445.365,995.80036,
1442.455,970.51766,
1439.544,1005.9007,
1436.633,1001.2799,
1433.723,980.63254,
1430.812,962.09064,
1427.902,948.74165,
1424.991,932.62969,
1422.081,947.72211,
1419.170,922.33913,
1416.259,950.52752,
1413.349,991.35561,
1410.438,923.0499,
1407.528,901.99983,
1404.617,899.73095,
1401.707,887.8256,
1398.796,877.93271,
1395.885,871.71161,
1392.975,831.81086,
1390.064,750.4128,
1387.154,702.82428,
1384.243,617.26184,
1381.332,588.793,
1378.422,591.77669,
1375.511,701.38006,
1372.601,833.98799,
1369.690,913.7028,
1366.780,957.59844,
1363.869,992.27817,
1360.958,1017.31,
1358.048,1034.618,
1355.137,1087.3852,
1352.227,1113.1118,
1349.316,1105.7899,
1346.406,1135.3009,
1343.495,1180.301,
1340.584,1245.0178,
1337.674,1248.4818,
1334.763,1243.866,
1331.853,1263.3378,
1328.942,1360.1871,
1326.032,1329.7127,
1323.121,1370.5106,
1320.210,1394.7842,
1317.300,1434.7194,
1314.389,1472.9725,
1311.479,1481.193,
1308.568,1460.6798,
1305.657,1437.9013,
1302.747,1449.7206,
1299.836,1460.1644,
1296.926,1548.5178,
1294.015,1599.9999,
1291.105,1686.657,
1288.194,1756.4332,
1285.283,1836.9973,
1282.373,1875.1484,
1279.462,1870.5958,
1276.552,1898.7551,
1273.641,1932.6348,
1270.731,1913.3026,
1267.820,1904.3327,
1264.909,1911.774,
1261.999,1958.5272,
1259.088,1914.7454,
1256.178,1912.9815,
1253.267,1847.1462,
1250.356,1804.7756,
1247.446,1802.3392,
1244.535,1776.9063,
1241.625,1729.3806,
1238.714,1699.8978,
1235.804,1681.9745,
1232.893,1658.6381,
1229.982,1599.0023,
1227.072,1595.3811,
1224.161,1549.7378,
1221.251,1526.9793,
1218.340,1485.8475,
1215.430,1460.6196,
1212.519,1447.0698,
1209.608,1457.3875,
1206.698,1494.3377,
1203.787,1495.3562,
1200.877,1530.2951,
1197.966,1549.1775,
1195.055,1583.4017,
1192.145,1628.9462,
1189.234,1686.8917,
1186.324,1712.216,
1183.413,1732.1149,
1180.503,1742.6348,
1177.592,1720.5392,
1174.681,1727.2688,
1171.771,1673.125,
1168.860,1673.125,
1165.950,1673.125,
1163.039,1668.2362,
1160.129,1646.0699,
1157.218,1670.5839,
1154.307,1708.7858,
1151.397,1692.6978,
1148.486,1660.8772,
1145.576,1647.4697,
1142.665,1632.3752,
1139.754,1642.5158,
1136.844,1626.9171,
1133.933,1609.7409,
1131.023,1585.1854,
1128.112,1577.2661,
1125.202,1596.9511,
1122.291,1591.0024,
1119.380,1597.2376,
1116.470,1608.7105,
1113.559,1579.9683,
1110.649,1594.6994,
1107.738,1585.6923,
1104.828,1584.6012,
1101.917,1610.3085,
1099.006,1611.3725,
1096.096,1602.91,
1093.185,1599.398,
1090.275,1611.2641,
1087.364,1620.9862,
1084.453,1627.4998,
1081.543,1648.5303,
1078.632,1651.7544,
1075.722,1607.3131,
1072.811,1610.1107,
1069.901,1638.055,
1066.990,1624.7667,
1064.079,1651.0676,
1061.169,1658.4974,
1058.258,1655.2424,
1055.348,1678.1142,
1052.437,1726.781,
1049.527,1729.118,
1046.616,1703.0531,
1043.705,1724.7895,
1040.795,1718.7164,
1037.884,1734.8947,
1034.974,1749.1869,
1032.063,1731.7405,
1029.153,1725.4752,
1026.242,1736.7196,
1023.331,1742.1247,
1020.421,1767.5236,
1017.510,1764.1181,
1014.600,1780.6155,
1011.689,1826.9622,
1008.778,1848.8318,
1005.868,1847.3721,
1002.957,1874.9034,
1000.047,1944.645,
997.136,1999.6659,
994.226,2015.3251,
991.315,1991.0755,
988.404,1946.4504,
985.494,1917.3935,
982.583,1929.3853,
979.673,1899.6642,
976.762,1897.5186,
973.852,1887.7706,
970.941,1874.8309,
968.030,1892.5238,
965.120,1889.1572,
962.209,1896.8301,
959.299,1898.8332,
956.388,1917.0439,
953.477,1928.6588,
950.567,1924.6022,
947.656,1925.576,
944.746,1944.2663,
941.835,1911.1128,
938.925,1904.4411,
936.014,1926.3697,
933.103,1929.8234,
930.193,1897.1262,
927.282,1893.3541,
924.372,1897.5822,
921.461,1853.2046,
918.551,1841.1915,
915.640,1846.6747,
912.729,1836.4388,
909.819,1805.5749,
906.908,1854.4355,
903.998,1844.3992,
901.087,1844.944,
898.176,1848.5566,
895.266,1854.886,
892.355,1866.6956,
889.445,1875.0883,
886.534,1901.8409,
883.624,1910.4892,
880.713,1918.7596,
877.802,1916.4402,
874.892,1894.4258,
871.981,1868.8685,
869.071,1858.0082,
866.160,1865.0945,
863.250,1869.125,
860.339,1883.444,
857.428,1897.8378,
854.518,1850.6305,
851.607,1868.104,
848.697,1836.0463,
845.786,1828.4285,
842.875,1830.5322,
839.965,1836.1109,
837.054,1908.9017,
834.144,1889.0117,
831.233,1898.4574,
828.323,1890.2878,
825.412,1880.5984,
822.501,1889.4441,
819.591,1874.5689,
816.680,1884.5417,
813.770,1887.7515,
810.859,1889.0275,
807.949,1874.9664,
805.038,1837.1162,
802.127,1853.5787,
799.217,1817.1101,
796.306,1834.2063,
793.396,1832.9873,
790.485,1797.652,
787.574,1807.1561,
784.664,1807.9762,
781.753,1816.1768,
778.843,1814.244,
775.932,1820.1618,
773.022,1846.1106,
770.111,1839.57,
767.200,1816.2856,
764.290,1839.7525,
761.379,1844.0071,
758.469,1815.7065,
755.558,1812.8607,
752.648,1770.5013,
749.737,1762.125,
746.826,1685.6647,
743.916,1560.1504,
741.005,1425.0762,
738.095,1097.078,
735.184,797.12821,
732.274,743.08525,
729.363,966.66337,
726.452,1370.5795,
723.542,1655.486,
720.631,1731.5236,
717.721,1785.6414,
714.810,1820.4999,
711.899,1834.125,
708.989,1834.125,
706.078,1819.7015,
703.168,1824.0189,
700.257,1823.7616,
697.347,1805.2566,
694.436,1766.5178,
691.525,1780.9863,
688.615,1809.2814,
685.704,1806.4256,
682.794,1795.7632,
679.883,1837.6296,
676.973,1848.8488,
674.062,1835.811,
671.151,1817.0434,
668.241,1798.1688,
665.330,1781.3561,
662.420,1828.4813,
659.509,1832.4106,
656.598,1824.7975,
653.688,1826.0263,
650.777,1848.2879,
647.867,1823.6018,
644.956,1830.508,
642.046,1827.76,
639.135,1816.2691,
636.224,1828.0971,
633.314,1822.5396,
630.403,1819.9426,
627.493,1822.5817,
624.582,1830.0673,
621.672,1838.7792,
618.761,1831.5256,
615.850,1832.9819,
612.940,1839.5403,
610.029,1852.4381,
607.119,1890.3404,
604.208,1922.5255,
601.297,1910.6947,
598.387,1883.6854,
595.476,1869.7026,
592.566,1812.2466,
589.655,1814.4349,
586.745,1821.559,
583.834,1819.9292,
580.923,1811.8881,
578.013,1772.6514,
575.102,1781.627,
572.192,1813.9892,
569.281,1850.7648,
566.371,1876.5914,
563.460,1902.4055,
560.549,1913.0996,
557.639,1913.8564,
554.728,1913.1743,
551.818,1913.9546,
548.907,1920.8285,
545.996,1934.0672,
543.086,1944.9375,
540.175,1930.1432,
537.265,1921.1579,
534.354,1946.2197,
531.444,1973.289,
528.533,1972.8356,
525.622,1996.89,
522.712,1970.5738,
519.801,1959.672,
516.891,1981.0722,
513.980,2010.4954,
511.070,2010.3076,
508.159,2026.3174,
505.248,2045.6257,
502.338,2048.7742,
499.427,2105.118,
496.517,2093.5392,
493.606,2088.2671,
490.695,2115.7713,
487.785,2098.8359,
484.874,2119.3891,
481.964,2117.175,
479.053,2097.7797,
476.143,2104.6914,
473.232,2120.2325,
470.321,2091.5781,
467.411,2061.2032,
464.500,2078.5238,
461.590,2054.7859,
458.679,2061.3321,
455.769,2067.7141,
452.858,2060.1929,
449.947,2080.0551,
447.037,2088.3723,
444.126,2092.6038,
441.216,2096.5802,
438.305,2104.9614,
435.395,2085.1446,
432.484,2074.125,
429.573,2073.5925,
426.663,2071.3121,
423.752,2025.7928,
420.842,1990.141,
417.931,1989.0089,
415.020,2051.9526,
412.110,2092.1689,
409.199,2115.4159,
406.289,2121.4353,
403.378,2110.0994,
400.468,2102.5394,
397.557,2092.4128,
394.646,2065.4628,
391.736,2009.3,
388.825,1921.055,
385.915,1854.6783,
383.004,1849.107,
380.094,1924.7392,
377.183,1936.7788,
374.272,2067.1356,
371.362,2172.9477,
368.451,2170.4441,
365.541,2175.6979,
362.630,2202.2521,
359.719,2222.2371,
356.809,2221.3937,
353.898,2242.36,
350.988,2236.1903,
348.077,2234.5469,
345.167,2255.3142,
342.256,2259.0495,
339.345,2256.9364,
336.435,2242.1885,
333.524,2212.9336,
330.614,2270.3106,
327.703,2287.0982,
324.793,2285.6094,
321.882,2284.125,
318.971,2284.125,
316.061,2309.029,
313.150,2324.9631,
310.240,2292.31,
307.329,2329.7154,
304.418,2303.6333,
301.508,2229.5095,
298.597,2136.9574,
295.687,2030.2479,
292.776,2036.042,
289.866,2145.6224,
286.955,2314.0518,
284.044,2482.3349,
281.134,2638.7014,
278.223,2769.8852,
275.313,2822.9388,
272.402,2915.4514,
269.492,2999.4732,
266.581,3056.5949,
263.670,3091.1484,
260.760,3125.677,
257.849,3155.3106,
254.939,3175.8593,
252.028,3256.4718,
249.117,3240.0718,
246.207,3188.4814,
243.296,3205.3183,
240.386,3143.1318,
237.475,3068.7854,
234.565,3003.2047,
231.654,2997.3617,
228.743,2988.6452,
225.833,2964.2214,
222.922,2922.0423,
220.012,2941.7133,
217.101,2890.7113,
214.191,2826.5352,
211.280,2811.2585,
208.369,2742.1709,
205.459,2698.3452,
202.548,2684.0052,
199.638,2694.89,
196.727,2699.4299,
193.816,2696.3086,
190.906,2684.3632,
187.995,2662.6424,
185.085,2643.7765,
182.174,2639.3521,
179.264,2669.7083,
176.353,2671.8434,
173.442,2648.2839,
170.532,2607.621,
167.621,2603.2951,
164.711,2598.446,
161.800,2554.8196,
158.890,2436.7843,
155.979,2266.1094,
153.068,2071.4646,
150.158,1857.5264,
147.247,1630.6535,
144.337,1343.1283,
141.426,1041.6089,
138.516,745.53281,
135.605,546.02495,
132.694,374.85236,
129.784,238.3274,
126.873,167.52954,
123.963,109.87567,
121.052,73.725529,
118.141,65.158705,
115.231,50.913593,
112.320,37.075917,
109.410,26.397711,
106.499,27.822021,
103.589,22.522455,
100.678,18.396622,
97.767,19.107559,
94.857,23.282934,
91.946,23.512557,
89.036,20.108919,
86.125,13.726071,
83.215,14.779602,
80.304,14.251808,
77.393,5.7537685,
74.483,7.0904049,
71.572,9.9367606,
68.662,13.40207,
65.751,16.227874,
62.840,10.862874,
59.930,4.3122862,
57.019,5.0173682,
54.109,11.096608,
51.198,12.410517,
48.288,6.1419873,
45.377,8.2521215,
42.466,9.125,
39.556,9.0098814,
36.645,8.3076912,
33.735,13.836733,
30.824,16.474356,
27.914,8.0602534,
25.003,17.0872,
22.092,25.062427,
19.182,29.376711,
16.271,37.071103,
13.361,140.01054,
10.450,378.68535,
7.539,968.76183,
4.629,1459.8015,
1.718,1710.2693,
-1.192,1495.5488,
-4.103,935.19886,
-7.013,410.83973,
-9.924,-1.875,
