,PLA41D~1,
Raman shift [1/cm],Intensity,
3014.167,-3.125,
3011.256,-0.07509663,
3008.346,77.696656,
3005.435,77.030479,
3002.525,92.00755,
2999.614,79.776309,
2996.704,87.919329,
2993.793,86.989632,
2990.882,93.745235,
2987.972,85.996079,
2985.061,104.11145,
2982.151,105.68173,
2979.240,109.99001,
2976.329,124.13456,
2973.419,114.79798,
2970.508,131.82493,
2967.598,144.63243,
2964.687,118.91984,
2961.777,116.96901,
2958.866,130.87055,
2955.955,136.11615,
2953.045,140.32466,
2950.134,139.08783,
2947.224,140.38744,
2944.313,156.52671,
2941.403,167.04197,
2938.492,144.73679,
2935.581,149.69217,
2932.671,164.51448,
2929.760,156.52884,
2926.850,149.97951,
2923.939,167.55255,
2921.028,165.08666,
2918.118,172.85611,
2915.207,181.28639,
2912.297,168.92578,
2909.386,170.69251,
2906.476,177.06882,
2903.565,171.82685,
2900.654,167.26327,
2897.744,186.33439,
2894.833,153.77172,
2891.923,176.7949,
2889.012,168.66691,
2886.102,170.29121,
2883.191,159.88633,
2880.280,128.59748,
2877.370,97.683206,
2874.459,84.101535,
2871.549,128.77004,
2868.638,160.2853,
2865.727,170.72112,
2862.817,172.21726,
2859.906,182.62144,
2856.996,168.89311,
2854.085,182.48007,
2851.175,172.44728,
2848.264,173.66417,
2845.353,178.96127,
2842.443,176.08684,
2839.532,171.3078,
2836.622,158.02669,
2833.711,168.34126,
2830.801,166.08382,
2827.890,183.35226,
2824.979,173.875,
2822.069,162.13656,
2819.158,183.73484,
2816.248,184.86342,
2813.337,180.10183,
2810.427,181.875,
2807.516,185.24187,
2804.605,190.875,
2801.695,184.6513,
2798.784,183.57931,
2795.874,179.58476,
2792.963,175.51766,
2790.052,184.872,
2787.142,185.83542,
2784.231,177.71351,
2781.321,196.18354,
2778.410,185.875,
2775.500,190.47017,
2772.589,190.53019,
2769.678,200.66345,
2766.768,174.26527,
2763.857,209.50506,
2760.947,201.40337,
2758.036,188.08508,
2755.126,205.83226,
2752.215,200.32055,
2749.304,192.04588,
2746.394,193.35684,
2743.483,195.57501,
2740.573,190.21348,
2737.662,196.54512,
2734.751,198.875,
2731.841,190.84752,
2728.930,214.38358,
2726.020,201.09954,
2723.109,196.66892,
2720.199,199.7969,
2717.288,197.50639,
2714.377,197.13336,
2711.467,207.08819,
2708.556,214.30026,
2705.646,211.19891,
2702.735,209.22037,
2699.825,218.42954,
2696.914,219.92273,
2694.003,197.70101,
2691.093,214.64275,
2688.182,226.38537,
2685.272,212.43261,
2682.361,218.4809,
2679.450,216.45937,
2676.540,226.13921,
2673.629,231.90643,
2670.719,222.37131,
2667.808,211.5559,
2664.898,228.09582,
2661.987,229.27507,
2659.076,236.23922,
2656.166,242.03523,
2653.255,228.39371,
2650.345,227.09097,
2647.434,231.04648,
2644.524,240.98295,
2641.613,242.90328,
2638.702,228.03281,
2635.792,225.59384,
2632.881,232.38083,
2629.971,250.08984,
2627.060,240.04219,
2624.149,235.875,
2621.239,229.86314,
2618.328,239.70545,
2615.418,238.19773,
2612.507,237.91059,
2609.597,252.13049,
2606.686,239.01758,
2603.775,247.875,
2600.865,252.46205,
2597.954,240.16248,
2595.044,246.53576,
2592.133,253.98971,
2589.223,246.28446,
2586.312,262.84989,
2583.401,254.28375,
2580.491,249.14904,
2577.580,276.85189,
2574.670,263.15174,
2571.759,255.6173,
2568.848,262.86955,
2565.938,267.16083,
2563.027,255.26588,
2560.117,257.15536,
2557.206,271.95618,
2554.296,270.67363,
2551.385,260.93296,
2548.474,255.875,
2545.564,273.3052,
2542.653,262.55957,
2539.743,261.78874,
2536.832,281.71239,
2533.922,278.96962,
2531.011,282.95016,
2528.100,265.08054,
2525.190,265.73361,
2522.279,283.49982,
2519.369,280.40303,
2516.458,286.98336,
2513.548,285.49316,
2510.637,268.79724,
2507.726,284.12407,
2504.816,275.62359,
2501.905,276.61402,
2498.995,286.11388,
2496.084,290.18162,
2493.173,283.69056,
2490.263,293.03209,
2487.352,285.1254,
2484.442,290.02061,
2481.531,292.08772,
2478.621,289.7328,
2475.710,294.95935,
2472.799,302.91539,
2469.889,301.14648,
2466.978,295.16379,
2464.068,287.00197,
2461.157,296.60746,
2458.247,296.62492,
2455.336,289.51297,
2452.425,302.46464,
2449.515,307.13903,
2446.604,306.45792,
2443.694,317.78208,
2440.783,301.25225,
2437.872,309.16672,
2434.962,314.51095,
2432.051,306.89967,
2429.141,322.24538,
2426.230,324.20096,
2423.320,317.44623,
2420.409,331.54797,
2417.498,324.12217,
2414.588,332.49469,
2411.677,327.51642,
2408.767,316.86319,
2405.856,327.94635,
2402.946,331.55329,
2400.035,322.27875,
2397.124,332.29213,
2394.214,317.06539,
2391.303,332.69817,
2388.393,343.59362,
2385.482,320.06467,
2382.571,352.88781,
2379.661,344.15414,
2376.750,338.45381,
2373.840,331.81566,
2370.929,351.63675,
2368.019,344.99506,
2365.108,354.66558,
2362.197,360.05584,
2359.287,355.69004,
2356.376,357.86796,
2353.466,358.84415,
2350.555,351.86446,
2347.645,344.26836,
2344.734,362.7552,
2341.823,339.30616,
2338.913,348.67055,
2336.002,369.39176,
2333.092,356.17404,
2330.181,353.91079,
2327.270,370.99492,
2324.360,362.68159,
2321.449,363.02805,
2318.539,359.00345,
2315.628,378.82384,
2312.718,387.52478,
2309.807,365.83139,
2306.896,382.65435,
2303.986,382.99828,
2301.075,376.27923,
2298.165,387.25973,
2295.254,376.15506,
2292.344,377.08243,
2289.433,389.88273,
2286.522,400.60261,
2283.612,401.28443,
2280.701,400.47141,
2277.791,375.31769,
2274.880,410.51699,
2271.969,406.29887,
2269.059,400.34367,
2266.148,402.4159,
2263.238,409.97152,
2260.327,418.53013,
2257.417,414.82389,
2254.506,423.53884,
2251.595,430.73319,
2248.685,409.98853,
2245.774,411.88583,
2242.864,408.71788,
2239.953,423.60598,
2237.043,423.52358,
2234.132,419.33729,
2231.221,422.19022,
2228.311,445.10048,
2225.400,410.55049,
2222.490,436.47441,
2219.579,443.43025,
2216.669,438.35831,
2213.758,446.44102,
2210.847,449.68104,
2207.937,460.4271,
2205.026,456.98549,
2202.116,473.61279,
2199.205,473.69994,
2196.294,461.94904,
2193.384,484.55805,
2190.473,513.31866,
2187.563,478.9765,
2184.652,500.17622,
2181.742,520.78644,
2178.831,546.08892,
2175.920,533.11544,
2173.010,560.72647,
2170.099,573.07441,
2167.189,587.76737,
2164.278,575.22274,
2161.368,599.15947,
2158.457,631.22941,
2155.546,618.57304,
2152.636,622.08239,
2149.725,644.19043,
2146.815,674.9073,
2143.904,670.98279,
2140.993,684.75337,
2138.083,674.80506,
2135.172,693.81622,
2132.262,705.88204,
2129.351,690.75075,
2126.441,674.27303,
2123.530,649.74031,
2120.619,638.15022,
2117.709,632.49175,
2114.798,597.50176,
2111.888,561.55059,
2108.977,543.15314,
2106.067,548.21716,
2103.156,523.60011,
2100.245,507.86935,
2097.335,495.86453,
2094.424,480.09809,
2091.514,506.31054,
2088.603,511.70452,
2085.692,488.91599,
2082.782,492.01146,
2079.871,498.69647,
2076.961,536.29188,
2074.050,483.02045,
2071.140,489.09314,
2068.229,501.24871,
2065.318,486.96125,
2062.408,493.72371,
2059.497,500.86904,
2056.587,486.10776,
2053.676,502.10704,
2050.766,477.33838,
2047.855,480.21675,
2044.944,489.21475,
2042.034,474.00798,
2039.123,481.21507,
2036.213,479.66388,
2033.302,482.85317,
2030.391,485.94285,
2027.481,515.37472,
2024.570,495.53294,
2021.660,496.4611,
2018.749,466.63481,
2015.839,487.48917,
2012.928,497.41527,
2010.017,492.30388,
2007.107,486.96846,
2004.196,498.57741,
2001.286,489.35206,
1998.375,493.18406,
1995.465,451.10536,
1992.554,482.57461,
1989.643,460.87735,
1986.733,478.33991,
1983.822,467.88756,
1980.912,458.91436,
1978.001,464.86574,
1975.090,488.31926,
1972.180,459.28991,
1969.269,473.48141,
1966.359,472.46932,
1963.448,463.79706,
1960.538,457.57141,
1957.627,465.68306,
1954.716,455.21972,
1951.806,423.96148,
1948.895,468.21097,
1945.985,487.86683,
1943.074,448.03368,
1940.164,438.75946,
1937.253,432.76181,
1934.342,449.94345,
1931.432,454.98856,
1928.521,422.35341,
1925.611,437.58896,
1922.700,430.08909,
1919.790,447.26781,
1916.879,425.75824,
1913.968,445.84795,
1911.058,425.99813,
1908.147,438.02241,
1905.237,418.23533,
1902.326,436.44686,
1899.415,428.1872,
1896.505,427.35086,
1893.594,421.875,
1890.684,419.29332,
1887.773,427.27129,
1884.863,432.96156,
1881.952,415.83266,
1879.041,449.72548,
1876.131,465.31814,
1873.220,438.85277,
1870.310,444.15749,
1867.399,436.01894,
1864.489,472.23937,
1861.578,431.408,
1858.667,426.875,
1855.757,429.06712,
1852.846,439.63397,
1849.936,443.06119,
1847.025,451.57571,
1844.114,460.39024,
1841.204,433.91346,
1838.293,434.86336,
1835.383,459.36298,
1832.472,467.35152,
1829.562,460.95859,
1826.651,470.13166,
1823.740,455.94776,
1820.830,458.90658,
1817.919,470.01876,
1815.009,471.01877,
1812.098,455.61517,
1809.188,453.875,
1806.277,463.65368,
1803.366,463.14118,
1800.456,480.0291,
1797.545,493.60582,
1794.635,437.16408,
1791.724,475.18565,
1788.813,491.68117,
1785.903,496.57084,
1782.992,455.5084,
1780.082,461.53586,
1777.171,433.53827,
1774.261,441.31541,
1771.350,481.624,
1768.439,496.11005,
1765.529,485.4166,
1762.618,488.41318,
1759.708,504.59226,
1756.797,506.39773,
1753.887,508.72048,
1750.976,504.41296,
1748.065,509.9472,
1745.155,493.99125,
1742.244,496.4556,
1739.334,509.72206,
1736.423,515.70116,
1733.512,514.69207,
1730.602,536.31551,
1727.691,507.02729,
1724.781,499.80788,
1721.870,525.018,
1718.960,536.63062,
1716.049,510.18883,
1713.138,533.08986,
1710.228,552.67005,
1707.317,556.64414,
1704.407,566.75737,
1701.496,556.93643,
1698.586,512.44773,
1695.675,575.31031,
1692.764,552.42007,
1689.854,540.35137,
1686.943,552.43657,
1684.033,593.83188,
1681.122,599.79004,
1678.211,615.72272,
1675.301,644.78558,
1672.390,605.00659,
1669.480,649.32423,
1666.569,704.58299,
1663.659,681.46669,
1660.748,657.22207,
1657.837,675.02809,
1654.927,683.58533,
1652.016,754.14603,
1649.106,725.75632,
1646.195,760.82705,
1643.285,759.51302,
1640.374,787.92029,
1637.463,836.10037,
1634.553,795.33801,
1631.642,893.34189,
1628.732,936.21868,
1625.821,993.90902,
1622.911,1045.582,
1620.000,1109.0687,
1617.089,1129.477,
1614.179,1235.8011,
1611.268,1289.9046,
1608.358,1327.1425,
1605.447,1331.7036,
1602.536,1370.0824,
1599.626,1390.3537,
1596.715,1355.571,
1593.805,1300.8981,
1590.894,1309.8464,
1587.984,1282.4279,
1585.073,1239.5882,
1582.162,1222.8564,
1579.252,1186.5064,
1576.341,1222.9335,
1573.431,1208.0303,
1570.520,1196.2887,
1567.610,1182.2081,
1564.699,1131.4731,
1561.788,1121.6214,
1558.878,1131.0199,
1555.967,1123.965,
1553.057,1111.2199,
1550.146,1079.2205,
1547.235,1042.3942,
1544.325,1030.5716,
1541.414,1011.3528,
1538.504,992.84739,
1535.593,1022.0637,
1532.683,1018.0422,
1529.772,972.8563,
1526.861,953.18419,
1523.951,930.24772,
1521.040,913.40389,
1518.130,888.59943,
1515.219,903.39534,
1512.309,886.17678,
1509.398,873.38633,
1506.487,891.32374,
1503.577,897.875,
1500.666,896.86768,
1497.756,886.8917,
1494.845,863.55537,
1491.934,879.875,
1489.024,879.875,
1486.113,905.83703,
1483.203,848.36777,
1480.292,840.875,
1477.382,843.29974,
1474.471,863.82685,
1471.560,831.4147,
1468.650,785.44441,
1465.739,768.95353,
1462.829,767.875,
1459.918,792.73709,
1457.008,787.99776,
1454.097,767.11011,
1451.186,789.58873,
1448.276,800.37829,
1445.365,772.58906,
1442.455,773.15484,
1439.544,784.34277,
1436.633,787.63171,
1433.723,758.63783,
1430.812,729.3183,
1427.902,734.6946,
1424.991,727.1125,
1422.081,731.46239,
1419.170,709.40943,
1416.259,699.3945,
1413.349,741.67898,
1410.438,734.18183,
1407.528,704.27527,
1404.617,691.70074,
1401.707,674.44685,
1398.796,676.39594,
1395.885,675.4457,
1392.975,623.0823,
1390.064,563.15954,
1387.154,485.81606,
1384.243,340.80472,
1381.332,321.2615,
1378.422,439.725,
1375.511,494.99507,
1372.601,583.42418,
1369.690,674.8828,
1366.780,698.37942,
1363.869,733.56647,
1360.958,749.17608,
1358.048,782.32053,
1355.137,835.41604,
1352.227,867.53515,
1349.316,888.59465,
1346.406,899.86734,
1343.495,894.53188,
1340.584,973.98221,
1337.674,968.15979,
1334.763,955.00413,
1331.853,984.67552,
1328.942,1031.2377,
1326.032,1067.053,
1323.121,1056.8328,
1320.210,1037.5566,
1317.300,1102.8833,
1314.389,1166.7503,
1311.479,1143.1762,
1308.568,1094.4382,
1305.657,1092.7179,
1302.747,1101.1429,
1299.836,1131.1576,
1296.926,1173.917,
1294.015,1282.3972,
1291.105,1305.3664,
1288.194,1373.3719,
1285.283,1460.0433,
1282.373,1454.3361,
1279.462,1435.424,
1276.552,1468.8594,
1273.641,1522.8185,
1270.731,1548.581,
1267.820,1539.3577,
1264.909,1510.6226,
1261.999,1535.1454,
1259.088,1460.3515,
1256.178,1520.1092,
1253.267,1454.1555,
1250.356,1434.2613,
1247.446,1430.0077,
1244.535,1405.0626,
1241.625,1367.7269,
1238.714,1331.4205,
1235.804,1309.9915,
1232.893,1323.6377,
1229.982,1265.5377,
1227.072,1255.5793,
1224.161,1203.6043,
1221.251,1184.1964,
1218.340,1139.415,
1215.430,1098.1568,
1212.519,1101.4381,
1209.608,1130.2538,
1206.698,1151.8327,
1203.787,1184.1464,
1200.877,1203.2123,
1197.966,1224.7921,
1195.055,1237.8205,
1192.145,1272.1828,
1189.234,1308.1779,
1186.324,1348.6048,
1183.413,1374.8496,
1180.503,1367.7338,
1177.592,1340.6224,
1174.681,1330.0017,
1171.771,1331.2047,
1168.860,1345.4941,
1165.950,1317.8486,
1163.039,1278.0501,
1160.129,1264.4649,
1157.218,1283.143,
1154.307,1314.0058,
1151.397,1332.093,
1148.486,1324.4802,
1145.576,1293.2197,
1142.665,1278.1252,
1139.754,1291.5203,
1136.844,1276.6671,
1133.933,1261.8369,
1131.023,1255.4587,
1128.112,1241.0197,
1125.202,1227.5368,
1122.291,1255.2429,
1119.380,1237.1002,
1116.470,1260.0459,
1113.559,1272.9272,
1110.649,1264.7426,
1107.738,1233.6916,
1104.828,1238.0893,
1101.917,1275.4667,
1099.006,1270.3906,
1096.096,1241.5951,
1093.185,1269.6912,
1090.275,1281.5862,
1087.364,1275.6415,
1084.453,1275.2498,
1081.543,1280.0661,
1078.632,1269.399,
1075.722,1248.1497,
1072.811,1284.2473,
1069.901,1289.4869,
1066.990,1311.6999,
1064.079,1296.4596,
1061.169,1302.3394,
1058.258,1300.053,
1055.348,1300.4521,
1052.437,1347.2512,
1049.527,1334.2107,
1046.616,1342.899,
1043.705,1359.2903,
1040.795,1353.0204,
1037.884,1361.5414,
1034.974,1357.6263,
1032.063,1339.7515,
1029.153,1378.9016,
1026.242,1362.4674,
1023.331,1368.5412,
1020.421,1386.6054,
1017.510,1384.3503,
1014.600,1407.326,
1011.689,1453.7212,
1008.778,1466.4614,
1005.868,1470.0063,
1002.957,1484.6323,
1000.047,1548.027,
997.136,1589.0821,
994.226,1595.6289,
991.315,1567.781,
988.404,1517.4975,
985.494,1494.5873,
982.583,1481.739,
979.673,1490.8497,
976.762,1495.4621,
973.852,1495.875,
970.941,1491.7257,
968.030,1481.4241,
965.120,1478.8929,
962.209,1483.1556,
959.299,1502.2895,
956.388,1517.7145,
953.477,1527.1632,
950.567,1531.875,
947.656,1530.9837,
944.746,1524.1873,
941.835,1527.9241,
938.925,1520.3203,
936.014,1529.0265,
933.103,1536.5786,
930.193,1524.6777,
927.282,1515.3709,
924.372,1506.0692,
921.461,1472.4734,
918.551,1462.0369,
915.640,1448.8519,
912.729,1433.632,
909.819,1443.6526,
906.908,1441.9677,
903.998,1443.4657,
901.087,1443.875,
898.176,1455.3277,
895.266,1470.4142,
892.355,1484.0421,
889.445,1527.684,
886.534,1522.8658,
883.624,1500.3444,
880.713,1514.8824,
877.802,1526.3689,
874.892,1494.4181,
871.981,1456.2042,
869.071,1427.8002,
866.160,1445.6437,
863.250,1452.2056,
860.339,1469.9955,
857.428,1507.4924,
854.518,1505.5621,
851.607,1494.7452,
848.697,1475.6796,
845.786,1450.2302,
842.875,1451.702,
839.965,1486.6712,
837.054,1495.0425,
834.144,1509.96,
831.233,1512.2084,
828.323,1510.3913,
825.412,1505.6554,
822.501,1497.8324,
819.591,1492.0476,
816.680,1463.8301,
813.770,1457.5015,
810.859,1461.4849,
807.949,1464.2213,
805.038,1462.2644,
802.127,1482.0194,
799.217,1427.9707,
796.306,1413.4156,
793.396,1420.7682,
790.485,1429.8231,
787.574,1442.2139,
784.664,1477.4787,
781.753,1459.0486,
778.843,1456.1866,
775.932,1452.6036,
773.022,1432.258,
770.111,1492.7588,
767.200,1453.4802,
764.290,1458.945,
761.379,1476.8137,
758.469,1466.1337,
755.558,1402.2429,
752.648,1381.0632,
749.737,1342.2772,
746.826,1282.3813,
743.916,1183.7768,
741.005,1019.7783,
738.095,735.62137,
735.184,400.11981,
732.274,332.46474,
729.363,558.41337,
726.452,966.42247,
723.542,1273.9919,
720.631,1345.9218,
717.721,1390.3716,
714.810,1410.4943,
711.899,1414.578,
708.989,1434.7511,
706.078,1442.888,
703.168,1431.5161,
700.257,1409.6727,
697.347,1389.5708,
694.436,1384.7441,
691.525,1379.9212,
688.615,1393.9689,
685.704,1412.3723,
682.794,1421.8325,
679.883,1411.5506,
676.973,1404.3383,
674.062,1409.2558,
671.151,1410.245,
668.241,1402.5865,
665.330,1389.9717,
662.420,1413.1349,
659.509,1450.8914,
656.598,1447.372,
653.688,1426.1565,
650.777,1453.956,
647.867,1456.345,
644.956,1435.8239,
642.046,1419.5582,
639.135,1416.3423,
636.224,1421.9506,
633.314,1437.0354,
630.403,1449.1519,
627.493,1445.2731,
624.582,1425.6373,
621.672,1406.6294,
618.761,1424.1135,
615.850,1442.5477,
612.940,1458.6811,
610.029,1471.8478,
607.119,1483.6923,
604.208,1462.1546,
601.297,1467.8305,
598.387,1468.83,
595.476,1434.2464,
592.566,1438.1817,
589.655,1427.213,
586.745,1417.8372,
583.834,1409.4833,
580.923,1393.4864,
578.013,1329.1382,
575.102,1339.9808,
572.192,1379.0965,
569.281,1419.0456,
566.371,1458.9594,
563.460,1462.1695,
560.549,1476.4934,
557.639,1491.3379,
554.728,1490.1706,
551.818,1494.8525,
548.907,1495.2656,
545.996,1501.8732,
543.086,1517.7401,
540.175,1540.3208,
537.265,1536.805,
534.354,1522.3327,
531.444,1516.0055,
528.533,1533.696,
525.622,1559.3023,
522.712,1544.2454,
519.801,1536.9851,
516.891,1557.9869,
513.980,1612.9619,
511.070,1572.7968,
508.159,1581.5739,
505.248,1617.8837,
502.338,1636.2591,
499.427,1649.3802,
496.517,1642.1275,
493.606,1627.1452,
490.695,1619.2242,
487.785,1657.7138,
484.874,1649.6581,
481.964,1664.3,
479.053,1688.7045,
476.143,1658.754,
473.232,1683.4929,
470.321,1657.8683,
467.411,1632.7913,
464.500,1669.4981,
461.590,1615.1305,
458.679,1616.9341,
455.769,1643.1625,
452.858,1666.8527,
449.947,1637.8233,
447.037,1631.875,
444.126,1631.875,
441.216,1633.4625,
438.305,1642.6056,
435.395,1652.3983,
432.484,1646.0394,
429.573,1626.7925,
426.663,1609.3092,
423.752,1575.7937,
420.842,1551.3712,
417.931,1542.538,
415.020,1555.4301,
412.110,1630.4995,
409.199,1666.6769,
406.289,1676.121,
403.378,1676.7162,
400.468,1629.8445,
397.557,1621.5589,
394.646,1610.6369,
391.736,1560.2291,
388.825,1446.3402,
385.915,1374.0249,
383.004,1354.4377,
380.094,1396.0959,
377.183,1498.4327,
374.272,1588.752,
371.362,1661.1836,
368.451,1710.5133,
365.541,1721.0208,
362.630,1764.2968,
359.719,1790.4758,
356.809,1772.6938,
353.898,1769.6986,
350.988,1769.96,
348.077,1768.2613,
345.167,1762.7832,
342.256,1780.7128,
339.345,1765.1491,
336.435,1756.0355,
333.524,1780.7441,
330.614,1808.3148,
327.703,1798.3924,
324.793,1776.4925,
321.882,1763.9669,
318.971,1801.8825,
316.061,1808.5269,
313.150,1801.644,
310.240,1800.9019,
307.329,1804.4482,
304.418,1773.0464,
301.508,1707.4872,
298.597,1608.2714,
295.687,1523.3468,
292.776,1492.2917,
289.866,1539.8875,
286.955,1729.7399,
284.044,1923.8548,
281.134,2070.8639,
278.223,2168.5931,
275.313,2255.5421,
272.402,2330.2226,
269.492,2373.7267,
266.581,2382.7127,
263.670,2422.4125,
260.760,2472.5314,
257.849,2531.2281,
254.939,2598.0114,
252.028,2564.1304,
249.117,2546.3067,
246.207,2547.8832,
243.296,2574.9686,
240.386,2534.1246,
237.475,2481.6768,
234.565,2433.9547,
231.654,2428.1117,
228.743,2392.3529,
225.833,2358.3379,
222.922,2337.6859,
220.012,2312.1865,
217.101,2296.0235,
214.191,2277.6027,
211.280,2243.4119,
208.369,2156.7733,
205.459,2116.2743,
202.548,2122.265,
199.638,2153.4679,
196.727,2181.7712,
193.816,2178.0075,
190.906,2131.1385,
187.995,2110.1418,
185.085,2098.6193,
182.174,2111.8963,
179.264,2178.3907,
176.353,2133.9719,
173.442,2117.202,
170.532,2134.8427,
167.621,2100.2358,
164.711,2063.0199,
161.800,1998.3069,
158.890,1882.4308,
155.979,1784.4389,
153.068,1660.3464,
150.158,1507.3838,
147.247,1316.4085,
144.337,1094.8728,
141.426,867.39435,
138.516,644.44117,
135.605,456.39409,
132.694,309.09786,
129.784,200.61046,
126.873,137.67904,
123.963,97.559634,
121.052,64.976853,
118.141,34.992969,
115.231,38.427852,
112.320,30.131374,
109.410,17.693132,
106.499,21.966063,
103.589,18.392964,
100.678,15.418243,
97.767,16.840119,
94.857,19.646956,
91.946,19.262557,
89.036,16.084715,
86.125,11.120278,
83.215,13.591442,
80.304,14.001808,
77.393,5.5037685,
74.483,6.1852699,
71.572,8.6867606,
68.662,11.528663,
65.751,7.9964071,
62.840,4.4664901,
59.930,2.0622862,
57.019,2.7673682,
54.109,7.6522868,
51.198,10.875,
48.288,10.869338,
45.377,10.165959,
42.466,8.2261226,
39.556,5.4145257,
36.645,2.6057648,
33.735,8.1059816,
30.824,12.991452,
27.914,10.186751,
25.003,17.34665,
22.092,24.458236,
19.182,29.829234,
16.271,28.430254,
13.361,146.30469,
10.450,410.07478,
7.539,998.05631,
4.629,1474.6108,
1.718,1717.3648,
-1.192,1520.0729,
-4.103,936.42674,
-7.013,400.75811,
-9.924,-0.125,
