,PL7DC6~1,
Raman shift [1/cm],Intensity,
3014.167,-2.375,
3011.256,0.02487116,
3008.346,105.51861,
3005.435,121.89355,
3002.525,138.43764,
2999.614,134.2393,
2996.704,138.53634,
2993.793,150.51958,
2990.882,133.36547,
2987.972,147.66031,
2985.061,155.06835,
2982.151,164.43173,
2979.240,163.625,
2976.329,165.12773,
2973.419,174.36338,
2970.508,187.49161,
2967.598,190.33825,
2964.687,185.58016,
2961.777,189.34298,
2958.866,200.28771,
2955.955,199.55421,
2953.045,210.72568,
2950.134,218.05066,
2947.224,217.05203,
2944.313,237.46759,
2941.403,252.44662,
2938.492,238.60331,
2935.581,248.34521,
2932.671,249.34171,
2929.760,238.50578,
2926.850,256.89342,
2923.939,259.58293,
2921.028,248.90129,
2918.118,257.9852,
2915.207,259.625,
2912.297,270.57846,
2909.386,255.625,
2906.476,266.10532,
2903.565,266.83463,
2900.654,264.56636,
2897.744,255.38613,
2894.833,243.63518,
2891.923,252.8141,
2889.012,247.79263,
2886.102,249.45743,
2883.191,248.62878,
2880.280,221.56279,
2877.370,194.92737,
2874.459,187.37985,
2871.549,215.84876,
2868.638,246.40024,
2865.727,268.85963,
2862.817,251.42447,
2859.906,256.10648,
2856.996,265.63406,
2854.085,271.54728,
2851.175,250.10091,
2848.264,254.4045,
2845.353,251.94851,
2842.443,255.4445,
2839.532,261.13233,
2836.622,256.19792,
2833.711,254.72078,
2830.801,233.25146,
2827.890,253.89598,
2824.979,257.83498,
2822.069,276.72735,
2819.158,279.54413,
2816.248,277.09605,
2813.337,262.98597,
2810.427,270.27927,
2807.516,264.94156,
2804.605,280.39904,
2801.695,266.00656,
2798.784,268.81185,
2795.874,285.49573,
2792.963,265.5534,
2790.052,276.62178,
2787.142,281.51961,
2784.231,270.04425,
2781.321,284.30493,
2778.410,260.47526,
2775.500,269.94224,
2772.589,253.78095,
2769.678,282.84003,
2766.768,271.50848,
2763.857,278.41691,
2760.947,300.63761,
2758.036,262.80947,
2755.126,296.15278,
2752.215,286.68865,
2749.304,279.77429,
2746.394,283.68346,
2743.483,288.175,
2740.573,278.86611,
2737.662,304.06139,
2734.751,294.15905,
2731.841,292.40888,
2728.930,301.97242,
2726.020,302.17593,
2723.109,291.53233,
2720.199,299.625,
2717.288,306.15055,
2714.377,309.88336,
2711.467,296.78874,
2708.556,308.23132,
2705.646,303.01935,
2702.735,297.79768,
2699.825,313.40686,
2696.914,317.14863,
2694.003,307.09328,
2691.093,321.69601,
2688.182,318.26204,
2685.272,322.74876,
2682.361,309.07806,
2679.450,322.02822,
2676.540,326.74694,
2673.629,329.63847,
2670.719,325.55199,
2667.808,322.81954,
2664.898,314.88473,
2661.987,322.42513,
2659.076,338.97197,
2656.166,339.09254,
2653.255,331.81207,
2650.345,337.60141,
2647.434,328.02569,
2644.524,352.08063,
2641.613,335.91035,
2638.702,343.40407,
2635.792,333.93806,
2632.881,339.44031,
2629.971,334.41016,
2627.060,349.45781,
2624.149,353.625,
2621.239,346.11018,
2618.328,348.77726,
2615.418,334.27046,
2612.507,342.3839,
2609.597,337.99227,
2606.686,359.6511,
2603.775,355.14484,
2600.865,363.79909,
2597.954,365.66672,
2595.044,351.9111,
2592.133,358.3447,
2589.223,363.64922,
2586.312,384.42903,
2583.401,378.17609,
2580.491,372.54328,
2577.580,390.59034,
2574.670,371.28542,
2571.759,376.72603,
2568.848,367.7465,
2565.938,387.29176,
2563.027,374.99091,
2560.117,367.99882,
2557.206,373.56965,
2554.296,385.82637,
2551.385,392.93901,
2548.474,386.18039,
2545.564,389.40341,
2542.653,376.85654,
2539.743,381.57571,
2536.832,390.91098,
2533.922,376.24,
2531.011,416.54984,
2528.100,412.56225,
2525.190,408.57787,
2522.279,401.7188,
2519.369,402.71939,
2516.458,407.29639,
2513.548,402.91605,
2510.637,404.56352,
2507.726,407.68449,
2504.816,414.37472,
2501.905,417.49451,
2498.995,399.10275,
2496.084,413.67731,
2493.173,422.99321,
2490.263,421.61371,
2487.352,426.79193,
2484.442,428.91623,
2481.531,423.57182,
2478.621,434.90941,
2475.710,441.44864,
2472.799,423.06441,
2469.889,439.04883,
2466.978,434.40857,
2464.068,408.64079,
2461.157,433.39498,
2458.247,436.19852,
2455.336,438.92246,
2452.425,442.40802,
2449.515,444.52104,
2446.604,440.15032,
2443.694,450.1135,
2440.783,451.00563,
2437.872,456.11449,
2434.962,443.15034,
2432.051,454.37827,
2429.141,453.23691,
2426.230,453.29904,
2423.320,472.68226,
2420.409,477.07995,
2417.498,476.47049,
2414.588,477.06982,
2411.677,491.47753,
2408.767,464.16634,
2405.856,465.71314,
2402.946,467.26217,
2400.035,483.41374,
2397.124,471.94052,
2394.214,462.5178,
2391.303,477.5918,
2388.393,488.85059,
2385.482,474.37405,
2382.571,484.80234,
2379.661,485.46212,
2376.750,489.5733,
2373.840,487.40937,
2370.929,483.66832,
2368.019,496.28693,
2365.108,511.22971,
2362.197,498.67974,
2359.287,491.42333,
2356.376,510.59154,
2353.466,506.44351,
2350.555,508.34024,
2347.645,503.8237,
2344.734,507.80937,
2341.823,520.47575,
2338.913,519.42055,
2336.002,534.2088,
2333.092,529.50992,
2330.181,522.79895,
2327.270,533.74492,
2324.360,539.07078,
2321.449,523.59439,
2318.539,528.17852,
2315.628,544.57384,
2312.718,545.32544,
2309.807,543.76163,
2306.896,546.63283,
2303.986,543.9691,
2301.075,545.26327,
2298.165,549.82691,
2295.254,527.12049,
2292.344,554.73292,
2289.433,541.60182,
2286.522,553.5936,
2283.612,576.83547,
2280.701,561.45015,
2277.791,555.7853,
2274.880,564.7609,
2271.969,578.59619,
2269.059,573.9765,
2266.148,572.2477,
2263.238,573.32384,
2260.327,585.31475,
2257.417,594.86222,
2254.506,602.50252,
2251.595,601.20689,
2248.685,580.84043,
2245.774,595.54775,
2242.864,602.36565,
2239.953,603.40422,
2237.043,613.39072,
2234.132,596.46659,
2231.221,596.30978,
2228.311,618.63142,
2225.400,619.87831,
2222.490,626.58261,
2219.579,615.91548,
2216.669,627.05584,
2213.758,650.75704,
2210.847,659.65522,
2207.937,663.50285,
2205.026,648.84686,
2202.116,660.98487,
2199.205,680.82406,
2196.294,691.75702,
2193.384,690.59851,
2190.473,712.35857,
2187.563,699.63467,
2184.652,708.55315,
2181.742,749.69344,
2178.831,755.06469,
2175.920,759.70515,
2173.010,787.27693,
2170.099,814.82292,
2167.189,851.64653,
2164.278,863.86923,
2161.368,912.76844,
2158.457,919.26459,
2155.546,945.18558,
2152.636,964.43878,
2149.725,990.1015,
2146.815,1011.991,
2143.904,1018.4317,
2140.993,1036.2546,
2138.083,1043.8134,
2135.172,1047.625,
2132.262,1075.7896,
2129.351,1050.3351,
2126.441,1053.4115,
2123.530,998.49031,
2120.619,977.54281,
2117.709,908.75906,
2114.798,865.52489,
2111.888,835.78811,
2108.977,832.16143,
2106.067,799.70611,
2103.156,781.46615,
2100.245,756.61747,
2097.335,743.42081,
2094.424,735.82175,
2091.514,728.8991,
2088.603,722.44062,
2085.692,723.03028,
2082.782,722.10688,
2079.871,719.05324,
2076.961,733.52718,
2074.050,728.94621,
2071.140,718.68223,
2068.229,728.91017,
2065.318,712.47675,
2062.408,725.39806,
2059.497,727.99998,
2056.587,715.36925,
2053.676,711.99177,
2050.766,704.24085,
2047.855,694.65348,
2044.944,698.01922,
2042.034,708.64805,
2039.123,690.24453,
2036.213,698.89172,
2033.302,704.7556,
2030.391,711.08221,
2027.481,724.08837,
2024.570,703.71129,
2021.660,706.2111,
2018.749,722.01715,
2015.839,708.77723,
2012.928,721.70554,
2010.017,715.05388,
2007.107,709.71846,
2004.196,716.20835,
2001.286,714.79109,
1998.375,715.10433,
1995.465,702.46607,
1992.554,699.50146,
1989.643,671.62735,
1986.733,682.69518,
1983.822,701.06075,
1980.912,693.52566,
1978.001,690.91258,
1975.090,696.09979,
1972.180,682.5545,
1969.269,705.28594,
1966.359,712.21963,
1963.448,697.55366,
1960.538,709.47821,
1957.627,705.60023,
1954.716,678.40062,
1951.806,703.73723,
1948.895,672.59861,
1945.985,706.01225,
1943.074,696.89448,
1940.164,679.625,
1937.253,683.06841,
1934.342,683.0865,
1931.432,679.20229,
1928.521,662.74071,
1925.611,663.7158,
1922.700,666.04213,
1919.790,664.76374,
1916.879,650.67124,
1913.968,691.57336,
1911.058,657.66405,
1908.147,693.71691,
1905.237,651.80149,
1902.326,664.3613,
1899.415,668.87379,
1896.505,660.04645,
1893.594,650.97569,
1890.684,675.07599,
1887.773,667.84928,
1884.863,669.36532,
1881.952,685.17988,
1879.041,681.54712,
1876.131,695.72695,
1873.220,652.55401,
1870.310,676.25723,
1867.399,672.72096,
1864.489,692.65141,
1861.578,671.70718,
1858.667,701.18488,
1855.757,695.03789,
1852.846,685.90191,
1849.936,694.36975,
1847.025,685.03375,
1844.114,689.77321,
1841.204,692.41171,
1838.293,707.63165,
1835.383,712.36899,
1832.472,740.38152,
1829.562,719.49088,
1826.651,691.41967,
1823.740,687.625,
1820.830,701.51489,
1817.919,710.51126,
1815.009,722.75604,
1812.098,702.18407,
1809.188,754.02797,
1806.277,761.53647,
1803.366,729.97436,
1800.456,749.0862,
1797.545,720.78112,
1794.635,707.91408,
1791.724,741.14931,
1788.813,741.64171,
1785.903,774.63095,
1782.992,714.77106,
1780.082,718.2149,
1777.171,699.95154,
1774.261,701.63554,
1771.350,751.39525,
1768.439,765.4136,
1765.529,777.26111,
1762.618,776.59125,
1759.708,762.80963,
1756.797,762.60985,
1753.887,788.7285,
1750.976,801.98364,
1748.065,793.79397,
1745.155,797.84428,
1742.244,789.72013,
1739.334,768.93089,
1736.423,782.40815,
1733.512,805.17789,
1730.602,815.1131,
1727.691,818.92798,
1724.781,790.52167,
1721.870,820.44903,
1718.960,835.38062,
1716.049,829.07423,
1713.138,837.88495,
1710.228,852.67945,
1707.317,853.74043,
1704.407,894.95127,
1701.496,849.48987,
1698.586,860.33274,
1695.675,883.1463,
1692.764,857.17007,
1689.854,864.23524,
1686.943,876.22029,
1684.033,936.10999,
1681.122,925.82891,
1678.211,979.11106,
1675.301,938.75142,
1672.390,970.65192,
1669.480,980.08225,
1666.569,1036.498,
1663.659,1026.9843,
1660.748,1049.2999,
1657.837,1083.3407,
1654.927,1072.4056,
1652.016,1146.5278,
1649.106,1141.8416,
1646.195,1111.8957,
1643.285,1164.5592,
1640.374,1205.9212,
1637.463,1266.4268,
1634.553,1256.955,
1631.642,1345.701,
1628.732,1353.182,
1625.821,1446.6826,
1622.911,1534.1291,
1620.000,1598.8061,
1617.089,1673.1325,
1614.179,1787.3537,
1611.268,1859.9482,
1608.358,1964.6149,
1605.447,2058.2543,
1602.536,2096.241,
1599.626,2048.0287,
1596.715,1990.0765,
1593.805,2016.8209,
1590.894,1958.0974,
1587.984,1949.625,
1585.073,1896.0235,
1582.162,1830.6876,
1579.252,1857.2669,
1576.341,1832.7814,
1573.431,1774.5019,
1570.520,1769.0331,
1567.610,1780.5663,
1564.699,1741.5733,
1561.788,1744.6389,
1558.878,1732.8249,
1555.967,1703.8051,
1553.057,1641.3152,
1550.146,1609.1668,
1547.235,1603.4927,
1544.325,1576.8727,
1541.414,1530.002,
1538.504,1521.5529,
1535.593,1518.6092,
1532.683,1504.2189,
1529.772,1493.669,
1526.861,1471.8203,
1523.951,1456.8343,
1521.040,1415.1262,
1518.130,1385.8567,
1515.219,1392.9055,
1512.309,1376.1205,
1509.398,1392.2331,
1506.487,1434.3973,
1503.577,1387.8866,
1500.666,1408.8196,
1497.756,1375.6501,
1494.845,1340.5855,
1491.934,1363.6754,
1489.024,1379.0753,
1486.113,1317.5016,
1483.203,1299.3025,
1480.292,1284.0488,
1477.382,1343.8601,
1474.471,1337.9058,
1471.560,1320.74,
1468.650,1300.9097,
1465.739,1262.241,
1462.829,1258.3518,
1459.918,1262.1001,
1457.008,1251.5326,
1454.097,1243.7764,
1451.186,1252.0215,
1448.276,1259.2456,
1445.365,1253.6977,
1442.455,1265.3452,
1439.544,1253.4842,
1436.633,1234.4105,
1433.723,1204.0993,
1430.812,1258.9704,
1427.902,1199.6328,
1424.991,1157.9313,
1422.081,1168.5522,
1419.170,1158.3922,
1416.259,1147.7143,
1413.349,1200.0024,
1410.438,1164.4417,
1407.528,1146.1312,
1404.617,1156.2577,
1401.707,1122.4094,
1398.796,1123.499,
1395.885,1160.7313,
1392.975,1123.3319,
1390.064,1038.786,
1387.154,960.82919,
1384.243,886.41695,
1381.332,861.49428,
1378.422,906.18008,
1375.511,1013.9099,
1372.601,1134.5076,
1369.690,1159.1978,
1366.780,1240.8285,
1363.869,1266.7103,
1360.958,1293.053,
1358.048,1322.2377,
1355.137,1361.4863,
1352.227,1401.2656,
1349.316,1432.6228,
1346.406,1459.4147,
1343.495,1476.6006,
1340.584,1494.2324,
1337.674,1482.8058,
1334.763,1517.872,
1331.853,1524.3626,
1328.942,1602.8978,
1326.032,1619.15,
1323.121,1637.6672,
1320.210,1644.9568,
1317.300,1702.2873,
1314.389,1741.625,
1311.479,1745.1201,
1308.568,1735.2574,
1305.657,1714.1203,
1302.747,1728.2535,
1299.836,1743.9076,
1296.926,1787.4789,
1294.015,1913.4262,
1291.105,1978.5018,
1288.194,2072.0905,
1285.283,2133.7212,
1282.373,2166.7109,
1279.462,2182.6641,
1276.552,2201.0975,
1273.641,2222.6987,
1270.731,2222.3339,
1267.820,2188.2767,
1264.909,2163.8679,
1261.999,2243.3947,
1259.088,2182.2826,
1256.178,2179.4815,
1253.267,2115.1806,
1250.356,2078.6937,
1247.446,2038.9417,
1244.535,2012.1652,
1241.625,1978.9621,
1238.714,1923.8592,
1235.804,1896.0619,
1232.893,1889.1381,
1229.982,1829.0424,
1227.072,1811.8415,
1224.161,1761.8758,
1221.251,1731.0342,
1218.340,1676.9825,
1215.430,1652.1755,
1212.519,1646.2864,
1209.608,1650.6738,
1206.698,1680.0294,
1203.787,1697.7305,
1200.877,1679.1324,
1197.966,1719.5946,
1195.055,1761.7277,
1192.145,1812.2029,
1189.234,1866.8501,
1186.324,1897.8986,
1183.413,1916.224,
1180.503,1931.6485,
1177.592,1925.1702,
1174.681,1888.0908,
1171.771,1870.4602,
1168.860,1863.3154,
1165.950,1847.3055,
1163.039,1811.4985,
1160.129,1825.3482,
1157.218,1856.1627,
1154.307,1870.8512,
1151.397,1861.8517,
1148.486,1828.0227,
1145.576,1840.3529,
1142.665,1811.0518,
1139.754,1793.1661,
1136.844,1776.3192,
1133.933,1770.625,
1131.023,1758.8226,
1128.112,1750.2672,
1125.202,1762.0066,
1122.291,1766.2328,
1119.380,1722.2313,
1116.470,1784.0083,
1113.559,1781.5728,
1110.649,1771.4217,
1107.738,1753.6937,
1104.828,1736.2157,
1101.917,1738.9805,
1099.006,1762.924,
1096.096,1758.2274,
1093.185,1735.3993,
1090.275,1759.5216,
1087.364,1772.4862,
1084.453,1778.4373,
1081.543,1781.9397,
1078.632,1777.6705,
1075.722,1767.2578,
1072.811,1779.6178,
1069.901,1793.59,
1066.990,1814.025,
1064.079,1814.5419,
1061.169,1812.625,
1058.258,1799.4969,
1055.348,1801.9081,
1052.437,1847.3452,
1049.527,1831.1285,
1046.616,1844.1609,
1043.705,1875.6848,
1040.795,1908.8882,
1037.884,1928.1881,
1034.974,1914.6315,
1032.063,1889.3017,
1029.153,1909.0671,
1026.242,1896.0927,
1023.331,1879.7927,
1020.421,1909.3888,
1017.510,1932.5894,
1014.600,1946.3919,
1011.689,1967.3129,
1008.778,2005.4217,
1005.868,2056.8026,
1002.957,2076.5908,
1000.047,2158.977,
997.136,2213.88,
994.226,2221.3636,
991.315,2185.4864,
988.404,2125.3291,
985.494,2087.7209,
982.583,2092.0037,
979.673,2071.4072,
976.762,2045.4248,
973.852,2053.3995,
970.941,2087.0345,
968.030,2097.8619,
965.120,2059.5964,
962.209,2052.776,
959.299,2089.1622,
956.388,2103.5051,
953.477,2090.7052,
950.567,2081.7291,
947.656,2106.519,
944.746,2120.9614,
941.835,2095.711,
938.925,2095.5475,
936.014,2106.2124,
933.103,2100.9136,
930.193,2078.6238,
927.282,2080.9752,
924.372,2050.5333,
921.461,2026.0058,
918.551,1996.5495,
915.640,1972.5511,
912.729,1959.7465,
909.819,1954.625,
906.908,1954.625,
903.998,1990.4164,
901.087,2002.8075,
898.176,2013.2145,
895.266,2031.5122,
892.355,2053.6091,
889.445,2069.5552,
886.534,2075.4691,
883.624,2073.2608,
880.713,2082.8528,
877.802,2097.7937,
874.892,2094.778,
871.981,2046.6645,
869.071,2048.3353,
866.160,2038.2756,
863.250,2015.8021,
860.339,2026.831,
857.428,2075.8163,
854.518,2074.0975,
851.607,1986.7302,
848.697,2008.7671,
845.786,2009.0181,
842.875,2012.8502,
839.965,2043.955,
837.054,2022.9506,
834.144,2051.957,
831.233,2066.291,
828.323,2074.087,
825.412,2070.5418,
822.501,2050.2632,
819.591,2020.5128,
816.680,2005.2019,
813.770,2000.9985,
810.859,2004.6862,
807.949,2004.9396,
805.038,1993.521,
802.127,2000.9292,
799.217,2013.5513,
796.306,1990.9491,
793.396,1963.6173,
790.485,1951.1509,
787.574,1946.9328,
784.664,1981.3775,
781.753,2015.1353,
778.843,2000.2002,
775.932,1971.5509,
773.022,1980.0917,
770.111,2021.7882,
767.200,1991.1273,
764.290,1993.3383,
761.379,1986.8703,
758.469,1962.2065,
755.558,1959.9199,
752.648,1936.2964,
749.737,1915.9581,
746.826,1848.8811,
743.916,1746.7219,
741.005,1624.62,
738.095,1341.275,
735.184,1020.171,
732.274,945.5932,
729.363,1152.0938,
726.452,1533.94,
723.542,1784.852,
720.631,1872.0207,
717.721,1931.86,
714.810,1977.1362,
711.899,2002.0507,
708.989,1986.7192,
706.078,1974.6055,
703.168,1971.0178,
700.257,1960.7233,
697.347,1944.6687,
694.436,1937.2977,
691.525,1925.2406,
688.615,1932.0587,
685.704,1929.8545,
682.794,1924.7739,
679.883,1941.4808,
676.973,1938.2753,
674.062,1940.8154,
671.151,1944.3783,
668.241,1950.437,
665.330,1964.8561,
662.420,2011.9813,
659.509,2004.4819,
656.598,1990.7303,
653.688,1987.0053,
650.777,1991.0039,
647.867,1972.6884,
644.956,1970.4825,
642.046,1969.552,
639.135,1971.6556,
636.224,1990.6091,
633.314,1987.4333,
630.403,1993.7195,
627.493,1982.4939,
624.582,1963.6879,
621.672,1995.3676,
618.761,2005.7443,
615.850,2017.9918,
612.940,2038.2618,
610.029,2063.2826,
607.119,2067.2308,
604.208,2061.9449,
601.297,2051.6487,
598.387,2034.7394,
595.476,2012.6993,
592.566,2013.4863,
589.655,2018.1602,
586.745,2009.7758,
583.834,1985.085,
580.923,1947.1938,
578.013,1875.783,
575.102,1904.2328,
572.192,1969.9942,
569.281,2023.5002,
566.371,2017.2392,
563.460,2028.618,
560.549,2039.9596,
557.639,2064.8873,
554.728,2113.1469,
551.818,2089.7374,
548.907,2105.345,
545.996,2110.0716,
543.086,2097.2961,
540.175,2100.4106,
537.265,2103.5221,
534.354,2114.1571,
531.444,2137.2792,
528.533,2168.8174,
525.622,2115.2771,
522.712,2120.0073,
519.801,2138.2626,
516.891,2155.6332,
513.980,2180.4106,
511.070,2195.3033,
508.159,2204.9231,
505.248,2216.6351,
502.338,2238.6642,
499.427,2274.1685,
496.517,2262.1301,
493.606,2267.497,
490.695,2309.0202,
487.785,2297.4734,
484.874,2311.1344,
481.964,2309.6583,
479.053,2300.4053,
476.143,2320.3723,
473.232,2324.5026,
470.321,2299.3499,
467.411,2268.5859,
464.500,2259.8577,
461.590,2269.0466,
458.679,2293.0865,
455.769,2309.9949,
452.858,2310.0566,
449.947,2323.8074,
447.037,2302.9613,
444.126,2294.6492,
441.216,2304.773,
438.305,2294.1059,
435.395,2270.989,
432.484,2269.2103,
429.573,2284.755,
426.663,2293.8767,
423.752,2277.8869,
420.842,2229.0666,
417.931,2195.5697,
415.020,2251.6882,
412.110,2321.665,
409.199,2360.3169,
406.289,2360.3582,
403.378,2316.7095,
400.468,2341.6573,
397.557,2318.2619,
394.646,2286.7396,
391.736,2278.8725,
388.825,2192.8901,
385.915,2100.5686,
383.004,2078.7456,
380.094,2173.0454,
377.183,2200.887,
374.272,2305.7827,
371.362,2409.6996,
368.451,2463.4001,
365.541,2476.1592,
362.630,2460.5066,
359.719,2464.4548,
356.809,2508.7252,
353.898,2460.8021,
350.988,2448.71,
348.077,2458.6277,
345.167,2483.009,
342.256,2530.0743,
339.345,2505.8933,
336.435,2485.6718,
333.524,2520.0948,
330.614,2534.9979,
327.703,2552.9735,
324.793,2559.9536,
321.882,2543.6611,
318.971,2558.5299,
316.061,2555.3237,
313.150,2542.6988,
310.240,2530.0828,
307.329,2557.4958,
304.418,2558.1381,
301.508,2520.4188,
298.597,2425.6454,
295.687,2346.5148,
292.776,2353.4586,
289.866,2462.6256,
286.955,2709.3599,
284.044,2887.5699,
281.134,3033.9442,
278.223,3151.8642,
275.313,3221.8654,
272.402,3324.3414,
269.492,3399.0317,
266.581,3428.302,
263.670,3493.733,
260.760,3549.1918,
257.849,3590.0672,
254.939,3611.3498,
252.028,3636.9596,
249.117,3632.4633,
246.207,3626.8002,
243.296,3669.9904,
240.386,3647.8523,
237.475,3597.5114,
234.565,3531.5726,
231.654,3480.4458,
228.743,3457.5423,
225.833,3431.8557,
222.922,3392.1981,
220.012,3361.5988,
217.101,3354.5693,
214.191,3328.5565,
211.280,3231.8039,
208.369,3212.5144,
205.459,3184.267,
202.548,3163.2852,
199.638,3236.5758,
196.727,3212.4423,
193.816,3184.8291,
190.906,3187.2187,
187.995,3175.6343,
185.085,3157.9122,
182.174,3154.1821,
179.264,3196.8253,
176.353,3149.7219,
173.442,3108.6606,
170.532,3091.4053,
167.621,3123.8492,
164.711,3084.2728,
161.800,3001.5484,
158.890,2887.1117,
155.979,2711.1317,
153.068,2493.3807,
150.158,2238.1553,
147.247,1947.3846,
144.337,1595.4408,
141.426,1238.7169,
138.516,902.49488,
135.605,659.34046,
132.694,458.06172,
129.784,298.41639,
126.873,194.72256,
123.963,129.23753,
121.052,86.559745,
118.141,63.714881,
115.231,51.545304,
112.320,39.423189,
109.410,30.034066,
106.499,32.170531,
103.589,30.383982,
100.678,26.180405,
97.767,19.781966,
94.857,25.168912,
91.946,26.415667,
89.036,23.608919,
86.125,17.226071,
83.215,17.217761,
80.304,17.427837,
77.393,13.886987,
74.483,12.969865,
71.572,12.987352,
68.662,13.34793,
65.751,10.522126,
62.840,8.661596,
59.930,7.4377138,
57.019,6.7326318,
54.109,11.999448,
51.198,12.608907,
48.288,5.625,
45.377,5.625,
42.466,9.7471934,
39.556,14.934289,
36.645,10.721147,
33.735,12.740491,
30.824,17.171209,
27.914,22.079436,
25.003,22.002363,
22.092,25.822759,
19.182,35.448783,
16.271,60.630428,
13.361,231.20049,
10.450,594.53062,
7.539,1424.8276,
4.629,2179.1519,
1.718,2551.6999,
-1.192,2121.5617,
-4.103,1319.7992,
-7.013,584.98241,
-9.924,6.625,
