,PL6E7A~1,
Raman shift [1/cm],Intensity,
3014.167,2.875,
3011.256,0.8248819,
3008.346,103.97054,
3005.435,128.72306,
3002.525,148.17757,
2999.614,136.92435,
2996.704,150.91108,
2993.793,136.99885,
2990.882,140.13453,
2987.972,153.01626,
2985.061,164.47104,
2982.151,169.41452,
2979.240,174.875,
2976.329,182.38865,
2973.419,202.10607,
2970.508,195.42497,
2967.598,199.54046,
2964.687,199.08356,
2961.777,200.43905,
2958.866,216.53325,
2955.955,223.32191,
2953.045,225.75642,
2950.134,223.39689,
2947.224,225.58672,
2944.313,243.58298,
2941.403,237.61314,
2938.492,252.88585,
2935.581,254.35353,
2932.671,244.875,
2929.760,256.63656,
2926.850,263.08402,
2923.939,265.7582,
2921.028,269.51632,
2918.118,280.35359,
2915.207,280.05868,
2912.297,282.89616,
2909.386,294.29835,
2906.476,290.16996,
2903.565,285.90909,
2900.654,271.77993,
2897.744,288.57327,
2894.833,269.411,
2891.923,305.06741,
2889.012,269.7883,
2886.102,279.06284,
2883.191,265.88633,
2880.280,257.76017,
2877.370,259.02619,
2874.459,258.05111,
2871.549,271.88832,
2868.638,298.10385,
2865.727,287.74804,
2862.817,288.30282,
2859.906,295.55876,
2856.996,296.89311,
2854.085,297.27627,
2851.175,303.44728,
2848.264,296.316,
2845.353,312.07702,
2842.443,281.46525,
2839.532,310.8301,
2836.622,286.17839,
2833.711,285.24548,
2830.801,288.27059,
2827.890,289.8103,
2824.979,288.50493,
2822.069,295.04558,
2819.158,297.33321,
2816.248,288.82868,
2813.337,301.42134,
2810.427,300.26481,
2807.516,302.03328,
2804.605,312.7019,
2801.695,297.84872,
2798.784,293.27954,
2795.874,299.29451,
2792.963,296.3033,
2790.052,298.87307,
2787.142,290.13823,
2784.231,292.19799,
2781.321,294.06358,
2778.410,293.14024,
2775.500,289.40672,
2772.589,307.0669,
2769.678,298.55419,
2766.768,302.36821,
2763.857,295.77096,
2760.947,319.96326,
2758.036,315.23794,
2755.126,303.2062,
2752.215,312.59777,
2749.304,324.59801,
2746.394,297.68544,
2743.483,322.87495,
2740.573,314.13156,
2737.662,318.875,
2734.751,312.17607,
2731.841,322.92995,
2728.930,319.38358,
2726.020,303.31887,
2723.109,311.74083,
2720.199,327.01252,
2717.288,333.11953,
2714.377,342.61664,
2711.467,323.64533,
2708.556,332.96005,
2705.646,322.19891,
2702.735,327.71263,
2699.825,338.23321,
2696.914,370.78049,
2694.003,339.93028,
2691.093,346.73181,
2688.182,338.6387,
2685.272,359.44115,
2682.361,340.11627,
2679.450,348.61569,
2676.540,349.81403,
2673.629,349.52969,
2670.719,351.02102,
2667.808,332.7018,
2664.898,342.17364,
2661.987,356.0752,
2659.076,339.43536,
2656.166,352.40746,
2653.255,360.16922,
2650.345,353.33053,
2647.434,372.13222,
2644.524,377.57765,
2641.613,375.01768,
2638.702,356.1275,
2635.792,372.46922,
2632.881,373.49397,
2629.971,355.06279,
2627.060,376.37531,
2624.149,373.875,
2621.239,362.60277,
2618.328,385.91739,
2615.418,384.22045,
2612.507,380.73665,
2609.597,400.94686,
2606.686,378.34286,
2603.775,378.4385,
2600.865,397.52008,
2597.954,379.49788,
2595.044,389.89271,
2592.133,380.37176,
2589.223,400.05607,
2586.312,391.29205,
2583.401,402.03921,
2580.491,399.23076,
2577.580,399.86675,
2574.670,393.21458,
2571.759,393.27911,
2568.848,405.9303,
2565.938,408.3513,
2563.027,398.99769,
2560.117,409.78155,
2557.206,410.875,
2554.296,415.98026,
2551.385,395.83318,
2548.474,417.46756,
2545.564,402.34983,
2542.653,401.57969,
2539.743,421.28258,
2536.832,420.56845,
2533.922,416.03269,
2531.011,429.17472,
2528.100,430.94467,
2525.190,428.03729,
2522.279,422.9219,
2519.369,426.28995,
2516.458,431.875,
2513.548,442.39303,
2510.637,436.04317,
2507.726,450.44005,
2504.816,431.62359,
2501.905,426.93293,
2498.995,430.02488,
2496.084,451.3035,
2493.173,440.55977,
2490.263,452.48178,
2487.352,449.249,
2484.442,440.85571,
2481.531,451.66228,
2478.621,459.39163,
2475.710,450.88267,
2472.799,451.38173,
2469.889,451.81406,
2466.978,444.49365,
2464.068,452.3671,
2461.157,447.10502,
2458.247,448.99271,
2455.336,463.7889,
2452.425,464.30896,
2449.515,474.99766,
2446.604,470.58702,
2443.694,469.59624,
2440.783,476.68468,
2437.872,476.82309,
2434.962,500.29897,
2432.051,495.38734,
2429.141,472.81058,
2426.230,483.50599,
2423.320,495.71788,
2420.409,490.33663,
2417.498,478.08848,
2414.588,479.77992,
2411.677,499.23358,
2408.767,507.61024,
2405.856,503.875,
2402.946,497.0296,
2400.035,511.85623,
2397.124,508.33488,
2394.214,516.9554,
2391.303,509.80318,
2388.393,514.84711,
2385.482,488.19685,
2382.571,488.0011,
2379.661,512.0609,
2376.750,524.71737,
2373.840,527.79686,
2370.929,541.73421,
2368.019,525.1404,
2365.108,529.73364,
2362.197,536.527,
2359.287,536.05996,
2356.376,527.89261,
2353.466,546.51202,
2350.555,540.03511,
2347.645,540.73063,
2344.734,548.11926,
2341.823,556.7755,
2338.913,555.4541,
2336.002,542.20042,
2333.092,534.25425,
2330.181,550.45553,
2327.270,552.04002,
2324.360,571.79954,
2321.449,567.78317,
2318.539,558.55387,
2315.628,554.33663,
2312.718,551.80892,
2309.807,575.32849,
2306.896,561.32413,
2303.986,548.8361,
2301.075,563.42817,
2298.165,555.70171,
2295.254,572.44414,
2292.344,583.13639,
2289.433,584.50045,
2286.522,586.70972,
2283.612,583.0038,
2280.701,592.31891,
2277.791,577.71657,
2274.880,596.59102,
2271.969,585.6857,
2269.059,599.89411,
2266.148,611.57951,
2263.238,609.77461,
2260.327,609.15063,
2257.417,596.54999,
2254.506,619.54732,
2251.595,609.72587,
2248.685,601.61736,
2245.774,620.30317,
2242.864,637.96728,
2239.953,623.28193,
2237.043,622.94035,
2234.132,639.68535,
2231.221,639.76902,
2228.311,632.52578,
2225.400,626.35347,
2222.490,644.1747,
2219.579,654.66166,
2216.669,670.84161,
2213.758,683.7456,
2210.847,669.14203,
2207.937,675.4271,
2205.026,671.31843,
2202.116,699.39942,
2199.205,712.83665,
2196.294,724.25502,
2193.384,732.66402,
2190.473,746.45481,
2187.563,761.8605,
2184.652,763.24275,
2181.742,787.875,
2178.831,797.54819,
2175.920,836.10452,
2173.010,858.50028,
2170.099,909.26936,
2167.189,928.1692,
2164.278,975.33128,
2161.368,1020.3027,
2158.457,1059.2091,
2155.546,1122.1914,
2152.636,1150.5718,
2149.725,1170.0159,
2146.815,1199.0074,
2143.904,1232.4884,
2140.993,1266.7374,
2138.083,1278.3461,
2135.172,1295.312,
2132.262,1279.7174,
2129.351,1237.1783,
2126.441,1232.2925,
2123.530,1162.5158,
2120.619,1120.2791,
2117.709,1038.5811,
2114.798,985.77489,
2111.888,949.88838,
2108.977,894.0008,
2106.067,859.98258,
2103.156,819.80176,
2100.245,805.86434,
2097.335,784.66035,
2094.424,756.74719,
2091.514,754.79157,
2088.603,740.09618,
2085.692,735.82673,
2082.782,711.20443,
2079.871,741.66262,
2076.961,726.48945,
2074.050,750.05076,
2071.140,729.0478,
2068.229,703.0586,
2065.318,718.09877,
2062.408,723.22298,
2059.497,722.11908,
2056.587,721.2706,
2053.676,723.04117,
2050.766,707.33763,
2047.855,695.38762,
2044.944,711.01283,
2042.034,703.37795,
2039.123,712.43392,
2036.213,702.31722,
2033.302,709.39664,
2030.391,735.48461,
2027.481,743.89942,
2024.570,737.81799,
2021.660,711.47149,
2018.749,718.84926,
2015.839,698.3901,
2012.928,729.50755,
2010.017,724.28977,
2007.107,733.40769,
2004.196,724.50597,
2001.286,711.14359,
1998.375,703.0502,
1995.465,693.07589,
1992.554,681.11037,
1989.643,730.07769,
1986.733,695.17939,
1983.822,682.31075,
1980.912,677.28081,
1978.001,680.96778,
1975.090,692.50705,
1972.180,673.11703,
1969.269,681.15953,
1966.359,663.03678,
1963.448,670.98201,
1960.538,705.84331,
1957.627,692.25889,
1954.716,680.16227,
1951.806,673.17307,
1948.895,678.875,
1945.985,679.07925,
1943.074,690.8121,
1940.164,704.99969,
1937.253,676.43159,
1934.342,675.90922,
1931.432,683.33872,
1928.521,656.0028,
1925.611,653.56966,
1922.700,662.04075,
1919.790,701.63179,
1916.879,694.85149,
1913.968,662.91312,
1911.058,662.81794,
1908.147,648.80494,
1905.237,658.84561,
1902.326,664.85428,
1899.415,645.73233,
1896.505,660.35086,
1893.594,657.14635,
1890.684,670.20173,
1887.773,668.32357,
1884.863,652.85905,
1881.952,660.73238,
1879.041,674.19639,
1876.131,672.80311,
1873.220,680.59185,
1870.310,685.588,
1867.399,690.79503,
1864.489,683.31726,
1861.578,645.1552,
1858.667,645.82112,
1855.757,643.24135,
1852.846,670.57247,
1849.936,658.31542,
1847.025,699.11101,
1844.114,695.07029,
1841.204,689.36451,
1838.293,698.35089,
1835.383,712.875,
1832.472,705.75848,
1829.562,720.03907,
1826.651,721.30212,
1823.740,740.17006,
1820.830,714.15028,
1817.919,687.58747,
1815.009,700.14344,
1812.098,700.18209,
1809.188,685.80527,
1806.277,700.52089,
1803.366,717.509,
1800.456,696.97414,
1797.545,714.03112,
1794.635,691.10192,
1791.724,670.59329,
1788.813,728.67346,
1785.903,729.73736,
1782.992,742.16857,
1780.082,721.76616,
1777.171,728.21441,
1774.261,734.44967,
1771.350,725.26676,
1768.439,748.06554,
1765.529,754.33245,
1762.618,762.24623,
1759.708,744.23363,
1756.797,742.71591,
1753.887,746.875,
1750.976,766.92342,
1748.065,781.48944,
1745.155,767.82349,
1742.244,781.72551,
1739.334,771.64912,
1736.423,793.66935,
1733.512,793.04976,
1730.602,775.15871,
1727.691,786.99587,
1724.781,796.59446,
1721.870,800.2893,
1718.960,809.91955,
1716.049,807.68013,
1713.138,818.84494,
1710.228,819.13441,
1707.317,821.52871,
1704.407,869.49005,
1701.496,864.84797,
1698.586,841.69937,
1695.675,853.91063,
1692.764,894.63732,
1689.854,842.34347,
1686.943,901.71656,
1684.033,850.24099,
1681.122,848.875,
1678.211,879.57996,
1675.301,926.73008,
1672.390,969.85706,
1669.480,964.22797,
1666.569,1008.002,
1663.659,1017.9077,
1660.748,1020.9355,
1657.837,1074.7219,
1654.927,1068.5544,
1652.016,1096.6806,
1649.106,1089.6094,
1646.195,1119.858,
1643.285,1159.9434,
1640.374,1164.3384,
1637.463,1231.8482,
1634.553,1176.9538,
1631.642,1249.7871,
1628.732,1333.349,
1625.821,1412.9378,
1622.911,1508.334,
1620.000,1625.3884,
1617.089,1762.1287,
1614.179,1861.0831,
1611.268,1952.4546,
1608.358,2071.2094,
1605.447,2124.9611,
1602.536,2108.3054,
1599.626,2216.347,
1596.715,2154.1745,
1593.805,2075.3284,
1590.894,2104.7438,
1587.984,2078.6957,
1585.073,2055.157,
1582.162,2056.0494,
1579.252,1998.7756,
1576.341,2016.3154,
1573.431,1985.4995,
1570.520,1955.0012,
1567.610,1962.287,
1564.699,2005.3016,
1561.788,1954.3827,
1558.878,1853.1366,
1555.967,1755.4512,
1553.057,1729.8922,
1550.146,1712.9805,
1547.235,1681.5749,
1544.325,1638.3363,
1541.414,1589.4923,
1538.504,1554.0023,
1535.593,1562.7861,
1532.683,1559.2301,
1529.772,1533.0499,
1526.861,1529.8168,
1523.951,1485.8028,
1521.040,1443.7264,
1518.130,1455.9402,
1515.219,1437.9162,
1512.309,1396.875,
1509.398,1388.9265,
1506.487,1368.0242,
1503.577,1398.9969,
1500.666,1362.3007,
1497.756,1342.5615,
1494.845,1349.2741,
1491.934,1310.6955,
1489.024,1255.8334,
1486.113,1266.856,
1483.203,1237.6773,
1480.292,1244.0571,
1477.382,1220.0111,
1474.471,1213.1076,
1471.560,1187.4767,
1468.650,1156.0102,
1465.739,1147.156,
1462.829,1138.9227,
1459.918,1135.085,
1457.008,1146.5213,
1454.097,1148.0183,
1451.186,1141.3702,
1448.276,1154.8372,
1445.365,1170.5891,
1442.455,1165.6884,
1439.544,1144.171,
1436.633,1108.9256,
1433.723,1194.264,
1430.812,1155.8905,
1427.902,1082.2956,
1424.991,1142.0047,
1422.081,1076.8992,
1419.170,1069.1469,
1416.259,1034.0423,
1413.349,1081.0076,
1410.438,1051.29,
1407.528,1057.2684,
1404.617,1050.1513,
1401.707,1033.2852,
1398.796,1038.0113,
1395.885,1060.9972,
1392.975,1087.4168,
1390.064,1082.6912,
1387.154,1057.5106,
1384.243,1053.5629,
1381.332,1009.6497,
1378.422,1018.5801,
1375.511,1071.0398,
1372.601,1137.3065,
1369.690,1254.3139,
1366.780,1205.552,
1363.869,1251.0785,
1360.958,1306.5654,
1358.048,1343.6409,
1355.137,1381.0051,
1352.227,1413.7705,
1349.316,1439.9287,
1346.406,1471.0089,
1343.495,1511.0754,
1340.584,1555.6606,
1337.674,1567.9486,
1334.763,1603.0041,
1331.853,1632.6755,
1328.942,1643.6591,
1326.032,1676.6842,
1323.121,1740.9293,
1320.210,1764.2046,
1317.300,1723.9685,
1314.389,1736.5008,
1311.479,1803.3991,
1308.568,1852.5243,
1305.657,1884.1799,
1302.747,1915.2086,
1299.836,1968.7891,
1296.926,2007.2079,
1294.015,2078.9151,
1291.105,2172.5708,
1288.194,2262.3531,
1285.283,2322.6872,
1282.373,2383.8045,
1279.462,2424.1492,
1276.552,2468.3948,
1273.641,2511.5691,
1270.731,2534.4004,
1267.820,2555.2416,
1264.909,2510.5123,
1261.999,2508.2745,
1259.088,2519.2199,
1256.178,2483.0474,
1253.267,2393.2507,
1250.356,2358.3934,
1247.446,2279.3607,
1244.535,2179.7992,
1241.625,2098.7714,
1238.714,2038.3546,
1235.804,2005.2294,
1232.893,1970.1369,
1229.982,1913.6979,
1227.072,1849.4207,
1224.161,1816.2979,
1221.251,1757.2703,
1218.340,1771.9134,
1215.430,1740.8774,
1212.519,1684.5757,
1209.608,1691.4532,
1206.698,1734.0025,
1203.787,1715.0056,
1200.877,1706.9367,
1197.966,1740.2056,
1195.055,1790.5102,
1192.145,1854.4744,
1189.234,1885.2021,
1186.324,1937.1521,
1183.413,1963.3928,
1180.503,1956.2946,
1177.592,1954.8444,
1174.681,1900.2277,
1171.771,1888.5453,
1168.860,1874.2559,
1165.950,1867.231,
1163.039,1851.9069,
1160.129,1843.5156,
1157.218,1831.7795,
1154.307,1820.504,
1151.397,1809.9692,
1148.486,1781.1257,
1145.576,1775.1018,
1142.665,1734.2578,
1139.754,1767.4883,
1136.844,1744.3614,
1133.933,1707.4148,
1131.023,1687.0982,
1128.112,1675.7332,
1125.202,1667.4644,
1122.291,1683.1284,
1119.380,1692.0222,
1116.470,1707.0252,
1113.559,1728.9795,
1110.649,1713.9199,
1107.738,1715.1988,
1104.828,1727.9555,
1101.917,1741.8222,
1099.006,1757.1846,
1096.096,1708.3263,
1093.185,1732.0324,
1090.275,1692.6022,
1087.364,1707.5754,
1084.453,1725.6246,
1081.543,1734.3808,
1078.632,1735.4277,
1075.722,1722.7974,
1072.811,1701.9919,
1069.901,1717.7106,
1066.990,1768.1832,
1064.079,1749.9324,
1061.169,1746.3687,
1058.258,1776.0493,
1055.348,1800.1717,
1052.437,1794.4506,
1049.527,1823.7477,
1046.616,1846.3373,
1043.705,1849.6458,
1040.795,1879.8847,
1037.884,1899.9094,
1034.974,1889.0954,
1032.063,1881.3745,
1029.153,1926.4089,
1026.242,1889.2158,
1023.331,1908.707,
1020.421,1926.1199,
1017.510,1928.5133,
1014.600,1951.2508,
1011.689,1985.875,
1008.778,1990.2733,
1005.868,2016.3924,
1002.957,2074.0361,
1000.047,2188.435,
997.136,2249.0187,
994.226,2255.3982,
991.315,2250.3552,
988.404,2255.5791,
985.494,2217.4147,
982.583,2196.8573,
979.673,2196.8016,
976.762,2213.1397,
973.852,2220.3389,
970.941,2214.0967,
968.030,2209.5744,
965.120,2207.9609,
962.209,2228.4219,
959.299,2204.9615,
956.388,2186.5955,
953.477,2181.6971,
950.567,2186.5349,
947.656,2200.3287,
944.746,2226.665,
941.835,2218.1572,
938.925,2230.3521,
936.014,2214.607,
933.103,2190.1095,
930.193,2185.4767,
927.282,2176.0254,
924.372,2104.9944,
921.461,2089.9838,
918.551,2083.8085,
915.640,2070.6764,
912.729,2041.847,
909.819,2001.2086,
906.908,2003.7359,
903.998,2019.7823,
901.087,2036.6051,
898.176,2055.3277,
895.266,2080.8884,
892.355,2109.3462,
889.445,2111.864,
886.534,2163.6371,
883.624,2188.0045,
880.713,2187.73,
877.802,2206.582,
874.892,2245.4988,
871.981,2203.5594,
869.071,2190.1927,
866.160,2196.1545,
863.250,2184.1489,
860.339,2161.2836,
857.428,2150.4664,
854.518,2168.2381,
851.607,2111.6574,
848.697,2104.6263,
845.786,2086.1543,
842.875,2083.9542,
839.965,2107.768,
837.054,2080.0146,
834.144,2092.4458,
831.233,2081.5426,
828.323,2056.0813,
825.412,2042.0264,
822.501,2045.8748,
819.591,2007.0341,
816.680,1986.6442,
813.770,1966.2124,
810.859,1953.2651,
807.949,1941.1579,
805.038,1920.5763,
802.127,1918.1069,
799.217,1930.5466,
796.306,1924.0911,
793.396,1920.9361,
790.485,1927.8221,
787.574,1923.3145,
784.664,1908.5525,
781.753,1925.3335,
778.843,1940.756,
775.932,1944.4059,
773.022,1938.3678,
770.111,1935.0975,
767.200,1914.3196,
764.290,1910.7644,
761.379,1934.1438,
758.469,1952.8541,
755.558,1899.2429,
752.648,1878.0632,
749.737,1888.2364,
746.826,1856.7124,
743.916,1800.1476,
741.005,1755.2939,
738.095,1626.2055,
735.184,1515.057,
732.274,1452.1578,
729.363,1518.9761,
726.452,1712.2701,
723.542,1808.5879,
720.631,1853.631,
717.721,1876.1862,
714.810,1880.4489,
711.899,1877.5087,
708.989,1888.8056,
706.078,1879.2594,
703.168,1865.945,
700.257,1851.8613,
697.347,1844.9182,
694.436,1855.5477,
691.525,1843.4906,
688.615,1830.8124,
685.704,1808.9023,
682.794,1798.8749,
679.883,1834.6587,
676.973,1829.8505,
674.062,1853.1221,
671.151,1847.1501,
668.241,1823.3045,
665.330,1827.0052,
662.420,1808.6344,
659.509,1782.0175,
656.598,1793.5417,
653.688,1823.1145,
650.777,1814.064,
647.867,1819.6383,
644.956,1833.258,
642.046,1844.1918,
639.135,1846.3597,
636.224,1836.9904,
633.314,1860.0146,
630.403,1848.7299,
627.493,1845.7087,
624.582,1856.6967,
621.672,1842.4408,
618.761,1878.3521,
615.850,1884.3651,
612.940,1903.7824,
610.029,1948.8228,
607.119,1942.5058,
604.208,1916.3145,
601.297,1922.3261,
598.387,1924.83,
595.476,1890.9149,
592.566,1901.9339,
589.655,1888.3256,
586.745,1867.7239,
583.834,1842.8721,
580.923,1810.8039,
578.013,1799.0329,
575.102,1857.8225,
572.192,1886.0108,
569.281,1856.2652,
566.371,1869.5698,
563.460,1862.4094,
560.549,1895.9082,
557.639,1931.9208,
554.728,1924.7126,
551.818,1937.978,
548.907,1939.0468,
545.996,1949.5387,
543.086,1966.3651,
540.175,1959.3573,
537.265,1975.5334,
534.354,1970.3361,
531.444,1949.4006,
528.533,1929.1792,
525.622,1989.7031,
522.712,2014.4033,
519.801,2016.5287,
516.891,2017.7348,
513.980,2066.5155,
511.070,2109.6141,
508.159,2150.7085,
505.248,2186.888,
502.338,2213.9202,
499.427,2215.4638,
496.517,2274.1376,
493.606,2323.5859,
490.695,2331.8052,
487.785,2324.1072,
484.874,2324.1674,
481.964,2324.0444,
479.053,2314.7852,
476.143,2280.9949,
473.232,2296.8601,
470.321,2295.6032,
467.411,2285.1022,
464.500,2279.5647,
461.590,2267.3129,
458.679,2290.8394,
455.769,2301.5327,
452.858,2276.2387,
449.947,2270.1273,
447.037,2301.0333,
444.126,2323.3538,
441.216,2333.0186,
438.305,2374.1629,
435.395,2363.4841,
432.484,2358.6258,
429.573,2372.0401,
426.663,2407.0066,
423.752,2407.0853,
420.842,2423.2291,
417.931,2433.317,
415.020,2396.1575,
412.110,2405.1176,
409.199,2445.0608,
406.289,2491.9762,
403.378,2519.7572,
400.468,2484.9814,
397.557,2475.9316,
394.646,2467.6399,
391.736,2439.2472,
388.825,2419.6372,
385.915,2419.7291,
383.004,2436.8678,
380.094,2469.7542,
377.183,2526.1899,
374.272,2584.7547,
371.362,2621.4637,
368.451,2625.2002,
365.541,2663.4775,
362.630,2683.1611,
359.719,2684.0677,
356.809,2668.2375,
353.898,2674.2279,
350.988,2680.2149,
348.077,2668.4833,
345.167,2634.3564,
342.256,2703.0867,
339.345,2739.3494,
336.435,2737.2195,
333.524,2692.3953,
330.614,2645.4504,
327.703,2654.4916,
324.793,2689.7646,
321.882,2726.8299,
318.971,2708.2439,
316.061,2742.4051,
313.150,2781.6417,
310.240,2771.2521,
307.329,2796.6019,
304.418,2831.0405,
301.508,2847.8627,
298.597,2802.6972,
295.687,2835.446,
292.776,2884.5418,
289.866,2959.2346,
286.955,3103.2861,
284.044,3197.8774,
281.134,3286.0501,
278.223,3382.5989,
275.313,3517.4434,
272.402,3571.4347,
269.492,3602.866,
266.581,3638.1795,
263.670,3740.3696,
260.760,3804.8747,
257.849,3831.2292,
254.939,3815.0838,
252.028,3847.448,
249.117,3855.3067,
246.207,3846.8444,
243.296,3835.1318,
240.386,3805.7964,
237.475,3759.7559,
234.565,3689.2839,
231.654,3558.5452,
228.743,3522.2445,
225.833,3456.1153,
222.922,3319.5353,
220.012,3312.2497,
217.101,3241.1748,
214.191,3154.7943,
211.280,3104.5994,
208.369,3113.6585,
205.459,3091.129,
202.548,3047.499,
199.638,3045.322,
196.727,3032.1982,
193.816,3018.6607,
190.906,3008.3671,
187.995,2993.8866,
185.085,3021.502,
182.174,3056.5038,
179.264,3051.4445,
176.353,3072.6615,
173.442,3105.9034,
170.532,3137.8346,
167.621,3094.576,
164.711,3076.5682,
161.800,3043.1036,
158.890,2961.7744,
155.979,2765.471,
153.068,2573.5517,
150.158,2376.7798,
147.247,2117.599,
144.337,1803.3609,
141.426,1452.0017,
138.516,1066.3142,
135.605,775.86627,
132.694,534.96859,
129.784,344.60025,
126.873,225.17357,
123.963,145.6752,
121.052,97.925926,
118.141,82.933984,
115.231,55.873327,
112.320,41.062277,
109.410,35.193224,
106.499,31.632448,
103.589,35.91729,
100.678,35.257431,
97.767,23.171492,
94.857,20.796033,
91.946,14.231448,
89.036,7.4555707,
86.125,17.384445,
83.215,15.627637,
80.304,11.396135,
77.393,9.9797948,
74.483,18.391754,
71.572,18.164423,
68.662,9.459395,
65.751,5.2206885,
62.840,8.6920198,
59.930,13.875,
57.019,13.875,
54.109,13.277839,
51.198,11.970172,
48.288,9.8580127,
45.377,7.7478785,
42.466,8.5238774,
39.556,10.875,
36.645,10.875,
33.735,10.875,
30.824,9.3287912,
27.914,4.4205645,
25.003,12.591925,
22.092,17.229191,
19.182,15.852117,
16.271,15.152627,
13.361,57.020798,
10.450,143.11959,
7.539,307.2237,
4.629,380.8545,
1.718,347.86805,
-1.192,145.69614,
-4.103,90.706865,
-7.013,49.073322,
-9.924,-3.125,
