,PLE8E6~1,
Raman shift [1/cm],Intensity,
3014.167,0.625,
3011.256,1.4750752,
3008.346,42.57664,
3005.435,39.35645,
3002.525,37.869966,
2999.614,38.288645,
2996.704,48.395101,
2993.793,48.625,
2990.882,50.88453,
2987.972,57.55437,
2985.061,45.398401,
2982.151,51.147692,
2979.240,58.639243,
2976.329,62.608619,
2973.419,59.101764,
2970.508,69.941644,
2967.598,56.485241,
2964.687,67.894022,
2961.777,64.342976,
2958.866,73.959323,
2955.955,74.142697,
2953.045,87.340877,
2950.134,84.657076,
2947.224,72.938157,
2944.313,81.377849,
2941.403,82.101277,
2938.492,75.348582,
2935.581,82.442172,
2932.671,98.981189,
2929.760,92.990405,
2926.850,88.513347,
2923.939,84.223117,
2921.028,96.789768,
2918.118,85.065808,
2915.207,91.036385,
2912.297,78.675776,
2909.386,93.019162,
2906.476,94.655894,
2903.565,89.576854,
2900.654,93.577465,
2897.744,107.47413,
2894.833,103.87227,
2891.923,107.516,
2889.012,107.79263,
2886.102,107.04121,
2883.191,123.61084,
2880.280,141.04128,
2877.370,201.14811,
2874.459,247.76309,
2871.549,178.99314,
2868.638,125.34874,
2865.727,130.57116,
2862.817,103.30951,
2859.906,107.67628,
2856.996,117.65217,
2854.085,106.34348,
2851.175,101.52863,
2848.264,98.835832,
2845.353,98.754402,
2842.443,109.01734,
2839.532,96.998248,
2836.622,104.95638,
2833.711,94.04729,
2830.801,97.121325,
2827.890,98.083039,
2824.979,95.983004,
2822.069,117.55677,
2819.158,105.16408,
2816.248,97.613421,
2813.337,107.49086,
2810.427,95.279273,
2807.516,105.0925,
2804.605,105.23798,
2801.695,104.79605,
2798.784,105.40323,
2795.874,103.33476,
2792.963,105.05351,
2790.052,111.62328,
2787.142,107.75662,
2784.231,108.07687,
2781.321,99.316463,
2778.410,103.81537,
2775.500,107.11293,
2772.589,108.31766,
2769.678,107.12674,
2766.768,110.17647,
2763.857,106.30901,
2760.947,103.6187,
2758.036,105.16642,
2755.126,114.91346,
2752.215,111.34777,
2749.304,111.1358,
2746.394,131.23794,
2743.483,119.725,
2740.573,112.64045,
2737.662,117.0821,
2734.751,118.92607,
2731.841,120.76053,
2728.930,120.29871,
2726.020,119.28819,
2723.109,113.07867,
2720.199,129.76252,
2717.288,116.29287,
2714.377,124.17058,
2711.467,113.19863,
2708.556,123.7951,
2705.646,127.625,
2702.735,126.96005,
2699.825,126.17954,
2696.914,113.91044,
2694.003,123.34045,
2691.093,113.7321,
2688.182,125.60796,
2685.272,112.9351,
2682.361,134.10753,
2679.450,128.45626,
2676.540,125.625,
2673.629,128.27969,
2670.719,121.42074,
2667.808,132.70092,
2664.898,149.94991,
2661.987,130.95822,
2659.076,130.98922,
2656.166,138.20511,
2653.255,141.25085,
2650.345,129.67218,
2647.434,131.13943,
2644.524,133.15016,
2641.613,127.625,
2638.702,145.34094,
2635.792,130.90616,
2632.881,131.04763,
2629.971,144.58482,
2627.060,136.62438,
2624.149,140.24688,
2621.239,141.63093,
2618.328,140.37068,
2615.418,134.95682,
2612.507,143.07161,
2609.597,134.91043,
2606.686,136.43022,
2603.775,141.86707,
2600.865,156.27008,
2597.954,128.67911,
2595.044,150.94652,
2592.133,149.95617,
2589.223,144.05868,
2586.312,143.25818,
2583.401,134.38047,
2580.491,141.78843,
2577.580,156.59694,
2574.670,148.75733,
2571.759,162.16525,
2568.848,156.09463,
2565.938,163.81546,
2563.027,160.86821,
2560.117,161.52222,
2557.206,153.06412,
2554.296,152.16962,
2551.385,161.37702,
2548.474,155.18039,
2545.564,162.27679,
2542.653,169.78272,
2539.743,169.67429,
2536.832,158.82874,
2533.922,173.45154,
2531.011,162.07505,
2528.100,160.625,
2525.190,148.76639,
2522.279,174.06222,
2519.369,161.71939,
2516.458,159.625,
2513.548,161.24316,
2510.637,170.44055,
2507.726,166.06366,
2504.816,175.56413,
2501.905,156.40793,
2498.995,183.25146,
2496.084,163.77135,
2493.173,165.30911,
2490.263,153.0521,
2487.352,183.45807,
2484.442,175.92266,
2481.531,171.36431,
2478.621,165.64392,
2475.710,165.70935,
2472.799,177.61154,
2469.889,177.23164,
2466.978,178.6765,
2464.068,172.9636,
2461.157,174.4749,
2458.247,186.78672,
2455.336,187.56043,
2452.425,183.49292,
2449.515,187.88903,
2446.604,183.33006,
2443.694,181.71792,
2440.783,184.48311,
2437.872,181.33328,
2434.962,179.40379,
2432.051,196.11266,
2429.141,194.48973,
2426.230,196.42943,
2423.320,187.55307,
2420.409,210.51599,
2417.498,202.25701,
2414.588,193.80751,
2411.677,178.37802,
2408.767,196.34843,
2405.856,196.66068,
2402.946,199.14868,
2400.035,202.91843,
2397.124,194.83891,
2394.214,195.43739,
2391.303,216.5918,
2388.393,213.66684,
2385.482,205.84531,
2382.571,226.10579,
2379.661,226.18327,
2376.750,212.46737,
2373.840,219.46871,
2370.929,196.89574,
2368.019,197.52705,
2365.108,218.37107,
2362.197,213.95931,
2359.287,217.23837,
2356.376,216.62324,
2353.466,207.97255,
2350.555,210.5646,
2347.645,204.87399,
2344.734,220.5052,
2341.823,213.77425,
2338.913,206.22352,
2336.002,214.73743,
2333.092,213.80896,
2330.181,222.18763,
2327.270,226.56999,
2324.360,234.4576,
2321.449,212.79508,
2318.539,229.75345,
2315.628,225.16337,
2312.718,210.02588,
2309.807,252.5756,
2306.896,226.89261,
2303.986,235.80034,
2301.075,228.75269,
2298.165,229.80783,
2295.254,216.94815,
2292.344,218.41337,
2289.433,229.34319,
2286.522,234.92417,
2283.612,237.28573,
2280.701,232.10484,
2277.791,246.26433,
2274.880,236.98301,
2271.969,238.49331,
2269.059,231.77757,
2266.148,236.94553,
2263.238,229.1308,
2260.327,234.34937,
2257.417,253.82945,
2254.506,245.6706,
2251.595,244.77413,
2248.685,251.40957,
2245.774,246.61417,
2242.864,242.1437,
2239.953,250.08016,
2237.043,247.33893,
2234.132,244.47953,
2231.221,251.88859,
2228.311,272.76157,
2225.400,254.11838,
2222.490,239.22441,
2219.579,258.8307,
2216.669,277.61069,
2213.758,276.05898,
2210.847,272.01291,
2207.937,253.39864,
2205.026,270.51304,
2202.116,281.56345,
2199.205,253.81206,
2196.294,264.311,
2193.384,286.22953,
2190.473,287.76115,
2187.563,307.538,
2184.652,288.72133,
2181.742,291.30777,
2178.831,316.22036,
2175.920,316.4647,
2173.010,310.625,
2170.099,321.02381,
2167.189,333.53172,
2164.278,320.1848,
2161.368,318.48204,
2158.457,332.91018,
2155.546,354.6702,
2152.636,355.14097,
2149.725,377.75921,
2146.815,370.0588,
2143.904,389.21609,
2140.993,369.95301,
2138.083,380.54292,
2135.172,407.93607,
2132.262,401.83451,
2129.351,392.17677,
2126.441,392.858,
2123.530,370.52398,
2120.619,361.625,
2117.709,353.97806,
2114.798,346.22131,
2111.888,346.61342,
2108.977,313.90976,
2106.067,305.10824,
2103.156,305.50484,
2100.245,324.60743,
2097.335,296.86584,
2094.424,302.45459,
2091.514,316.77018,
2088.603,307.80938,
2085.692,308.99294,
2082.782,309.72948,
2079.871,295.76736,
2076.961,311.39802,
2074.050,303.35227,
2071.140,318.42953,
2068.229,312.55601,
2065.318,298.63852,
2062.408,312.73091,
2059.497,301.41666,
2056.587,295.07855,
2053.676,311.59057,
2050.766,309.16386,
2047.855,306.96675,
2044.944,317.16186,
2042.034,309.99497,
2039.123,322.38594,
2036.213,323.22274,
2033.302,314.25541,
2030.391,295.01539,
2027.481,299.9907,
2024.570,313.21051,
2021.660,325.91545,
2018.749,303.49878,
2015.839,322.93471,
2012.928,308.84312,
2010.017,316.70317,
2007.107,311.04369,
2004.196,307.52975,
2001.286,313.29283,
1998.375,335.62993,
1995.465,326.89286,
1992.554,327.88378,
1989.643,327.65956,
1986.733,322.2136,
1983.822,330.08586,
1980.912,318.26886,
1978.001,336.58234,
1975.090,340.85858,
1972.180,330.52127,
1969.269,328.53016,
1966.359,331.76023,
1963.448,331.24191,
1960.538,332.05953,
1957.627,352.24111,
1954.716,344.91227,
1951.806,347.97918,
1948.895,337.66545,
1945.985,351.01225,
1943.074,348.06412,
1940.164,340.22101,
1937.253,342.82905,
1934.342,348.0095,
1931.432,354.83005,
1928.521,359.88407,
1925.611,358.94963,
1922.700,337.67335,
1919.790,336.79257,
1916.879,345.067,
1913.968,333.63975,
1911.058,342.54993,
1908.147,353.89798,
1905.237,345.60296,
1902.326,361.84425,
1899.415,377.56159,
1896.505,387.97443,
1893.594,378.45117,
1890.684,369.85371,
1887.773,375.46986,
1884.863,381.64095,
1881.952,350.75035,
1879.041,375.71899,
1876.131,371.52305,
1873.220,348.44793,
1870.310,369.75949,
1867.399,377.52904,
1864.489,349.91014,
1861.578,380.8778,
1858.667,375.09206,
1855.757,379.44004,
1852.846,363.37884,
1849.936,367.43881,
1847.025,381.85613,
1844.114,394.99204,
1841.204,376.70192,
1838.293,365.62334,
1835.383,370.997,
1832.472,368.69457,
1829.562,373.56823,
1826.651,414.8652,
1823.740,386.49082,
1820.830,363.45172,
1817.919,395.01444,
1815.009,386.35656,
1812.098,365.67226,
1809.188,388.01254,
1806.277,410.16023,
1803.366,406.04273,
1800.456,373.32867,
1797.545,400.59673,
1794.635,383.07604,
1791.724,401.44051,
1788.813,409.02294,
1785.903,400.74904,
1782.992,404.28226,
1780.082,433.93889,
1777.171,459.63465,
1774.261,484.67478,
1771.350,444.25449,
1768.439,407.36909,
1765.529,405.26205,
1762.618,411.5575,
1759.708,420.26637,
1756.797,405.10985,
1753.887,411.44716,
1750.976,422.95943,
1748.065,423.15495,
1745.155,401.07679,
1742.244,405.82696,
1739.334,420.41794,
1736.423,425.45116,
1733.512,421.53149,
1730.602,419.625,
1727.691,408.11009,
1724.781,414.06392,
1721.870,451.22996,
1718.960,411.1133,
1716.049,421.59937,
1713.138,451.27487,
1710.228,470.42005,
1707.317,457.58729,
1704.407,467.30416,
1701.496,454.04024,
1698.586,445.23312,
1695.675,453.04638,
1692.764,443.21106,
1689.854,462.71556,
1686.943,476.18657,
1684.033,463.94787,
1681.122,476.4041,
1678.211,511.29189,
1675.301,474.73909,
1672.390,493.6908,
1669.480,515.60093,
1666.569,512.6123,
1663.659,511.42901,
1660.748,499.52859,
1657.837,494.97492,
1654.927,511.67931,
1652.016,554.41005,
1649.106,506.99594,
1646.195,562.1285,
1643.285,582.21484,
1640.374,564.58319,
1637.463,563.03933,
1634.553,586.34912,
1631.642,634.92902,
1628.732,662.79091,
1625.821,690.62173,
1622.911,685.65318,
1620.000,700.43602,
1617.089,727.08769,
1614.179,783.98934,
1611.268,790.43911,
1608.358,836.37749,
1605.447,839.56786,
1602.536,825.64669,
1599.626,888.10037,
1596.715,859.13616,
1593.805,868.14565,
1590.894,850.25026,
1587.984,840.69626,
1585.073,837.92337,
1582.162,814.24819,
1579.252,806.3518,
1576.341,793.60905,
1573.431,792.19135,
1570.520,774.27995,
1567.610,804.39026,
1564.699,799.94931,
1561.788,752.0761,
1558.878,761.25276,
1555.967,759.75104,
1553.057,742.41821,
1550.146,731.0941,
1547.235,719.95076,
1544.325,704.44543,
1541.414,682.04345,
1538.504,699.93935,
1535.593,691.13259,
1532.683,675.9729,
1529.772,698.58759,
1526.861,692.23431,
1523.951,695.74316,
1521.040,702.42099,
1518.130,712.24817,
1515.219,689.5468,
1512.309,641.99442,
1509.398,698.94417,
1506.487,737.6649,
1503.577,690.71461,
1500.666,677.8342,
1497.756,663.625,
1494.845,665.18585,
1491.934,702.57146,
1489.024,686.20908,
1486.113,649.46359,
1483.203,716.79025,
1480.292,706.95775,
1477.382,642.19814,
1474.471,661.38967,
1471.560,650.58068,
1468.650,646.72464,
1465.739,650.54647,
1462.829,671.31997,
1459.918,654.79049,
1457.008,653.47144,
1454.097,671.00342,
1451.186,676.02152,
1448.276,683.24561,
1445.365,656.80115,
1442.455,636.37123,
1439.544,662.31711,
1436.633,673.54754,
1433.723,681.37877,
1430.812,670.55629,
1427.902,645.43679,
1424.991,679.55624,
1422.081,700.8095,
1419.170,697.44064,
1416.259,629.38977,
1413.349,678.57573,
1410.438,667.43514,
1407.528,681.94963,
1404.617,670.6171,
1401.707,664.34357,
1398.796,656.2719,
1395.885,649.9204,
1392.975,642.9363,
1390.064,588.56484,
1387.154,563.99749,
1384.243,486.69157,
1381.332,432.15024,
1378.422,493.39788,
1375.511,508.38638,
1372.601,645.93898,
1369.690,649.91,
1366.780,731.78869,
1363.869,759.43682,
1360.958,760.96478,
1358.048,800.9702,
1355.137,796.03259,
1352.227,769.37011,
1349.316,761.73779,
1346.406,758.35542,
1343.495,790.86369,
1340.584,801.69635,
1337.674,804.58818,
1334.763,788.40128,
1331.853,808.80036,
1328.942,817.63018,
1326.032,812.91566,
1323.121,761.98038,
1320.210,777.92104,
1317.300,794.625,
1314.389,798.22229,
1311.479,809.48902,
1308.568,801.30625,
1305.657,761.88202,
1302.747,745.02938,
1299.836,750.67909,
1296.926,782.18874,
1294.015,837.34816,
1291.105,860.758,
1288.194,929.92067,
1285.283,919.41688,
1282.373,921.2812,
1279.462,915.99779,
1276.552,910.27069,
1273.641,912.20854,
1270.731,917.21009,
1267.820,938.05474,
1264.909,925.21887,
1261.999,958.25883,
1259.088,948.2255,
1256.178,925.35713,
1253.267,906.28109,
1250.356,892.14345,
1247.446,895.25245,
1244.535,860.48672,
1241.625,822.85462,
1238.714,822.95457,
1235.804,822.45503,
1232.893,853.50636,
1229.982,824.77832,
1227.072,829.30488,
1224.161,797.68586,
1221.251,756.63307,
1218.340,722.59939,
1215.430,709.52393,
1212.519,724.47158,
1209.608,738.30937,
1206.698,748.79571,
1203.787,805.13253,
1200.877,790.78919,
1197.966,777.3018,
1195.055,843.17839,
1192.145,823.06858,
1189.234,826.24964,
1186.324,848.89919,
1183.413,882.38137,
1180.503,896.14655,
1177.592,870.46336,
1174.681,867.89212,
1171.771,875.96563,
1168.860,847.38677,
1165.950,851.07532,
1163.039,842.14896,
1160.129,847.06268,
1157.218,831.99188,
1154.307,826.80524,
1151.397,852.93278,
1148.486,840.674,
1145.576,844.92891,
1142.665,805.86074,
1139.754,813.20217,
1136.844,810.02258,
1133.933,814.66307,
1131.023,798.38069,
1128.112,788.19446,
1125.202,811.41727,
1122.291,807.12365,
1119.380,803.8935,
1116.470,831.25188,
1113.559,812.97403,
1110.649,806.625,
1107.738,815.19809,
1104.828,816.38351,
1101.917,809.69609,
1099.006,813.22297,
1096.096,806.19497,
1093.185,799.17095,
1090.275,816.42895,
1087.364,802.78581,
1084.453,791.25021,
1081.543,797.38942,
1078.632,814.89289,
1075.722,822.60706,
1072.811,798.30041,
1069.901,821.87845,
1066.990,822.00834,
1064.079,812.77832,
1061.169,827.40324,
1058.258,826.10906,
1055.348,821.55646,
1052.437,863.96905,
1049.527,860.5243,
1046.616,857.91781,
1043.705,889.22637,
1040.795,886.49341,
1037.884,885.18811,
1034.974,874.23841,
1032.063,853.7786,
1029.153,876.41728,
1026.242,874.68736,
1023.331,860.45924,
1020.421,855.5337,
1017.510,869.19217,
1014.600,889.0836,
1011.689,908.03683,
1008.778,932.78267,
1005.868,968.63272,
1002.957,969.49308,
1000.047,980.545,
997.136,978.75174,
994.226,967.0405,
991.315,955.79827,
988.404,946.2747,
985.494,918.68254,
982.583,921.25221,
979.673,911.38195,
976.762,909.38631,
973.852,917.25515,
970.941,930.07071,
968.030,937.61917,
965.120,920.6608,
962.209,929.18622,
959.299,903.71153,
956.388,923.983,
953.477,948.21397,
950.567,938.21375,
947.656,915.30155,
944.746,943.3369,
941.835,938.14649,
938.925,908.32884,
936.014,928.527,
933.103,947.79504,
930.193,922.82233,
927.282,931.53334,
924.372,929.84213,
921.461,887.65018,
918.551,893.5386,
915.640,904.37556,
912.729,898.08829,
909.819,894.4009,
906.908,877.5524,
903.998,898.8952,
901.087,915.44561,
898.176,914.46707,
895.266,918.68616,
892.355,943.36852,
889.445,936.65438,
886.534,924.10192,
883.624,944.50129,
880.713,956.13536,
877.802,972.60502,
874.892,1011.6335,
871.981,1051.8223,
869.071,1060.1764,
866.160,1040.9262,
863.250,998.07602,
860.339,957.95969,
857.428,936.99013,
854.518,922.51566,
851.607,953.30222,
848.697,988.20114,
845.786,1004.7388,
842.875,990.14758,
839.965,951.87727,
837.054,926.06226,
834.144,965.01363,
831.233,933.96113,
828.323,944.29931,
825.412,964.64415,
822.501,944.07182,
819.591,946.55102,
816.680,920.98393,
813.770,907.73347,
810.859,911.74733,
807.949,923.27867,
805.038,926.62942,
802.127,918.39815,
799.217,889.30014,
796.306,884.16557,
793.396,887.625,
790.485,888.04616,
787.574,890.43458,
784.664,911.7575,
781.753,903.54729,
778.843,895.17459,
775.932,905.58774,
773.022,934.8786,
770.111,936.51375,
767.200,930.5345,
764.290,904.93201,
761.379,886.83726,
758.469,882.90453,
755.558,872.35756,
752.648,863.39692,
749.737,845.30527,
746.826,836.15878,
743.916,796.81273,
741.005,666.36236,
738.095,398.44301,
735.184,227.18836,
732.274,189.50551,
729.363,323.64189,
726.452,587.907,
723.542,761.11717,
720.631,853.19521,
717.721,874.04224,
714.810,886.99421,
711.899,915.88243,
708.989,925.56553,
706.078,907.19503,
703.168,907.48277,
700.257,915.16329,
697.347,909.88711,
694.436,868.62881,
691.525,905.60385,
688.615,888.46855,
685.704,894.77799,
682.794,921.4548,
679.883,916.18327,
676.973,884.12844,
674.062,903.78636,
671.151,918.18667,
668.241,915.00427,
665.330,906.81408,
662.420,910.80774,
659.509,917.33938,
656.598,904.61325,
653.688,889.60611,
650.777,911.13714,
647.867,955.7315,
644.956,956.9569,
642.046,964.89214,
639.135,981.52891,
636.224,973.52553,
633.314,953.67707,
630.403,936.80079,
627.493,916.33462,
624.582,907.21928,
621.672,954.73893,
618.761,920.14791,
615.850,935.6234,
612.940,967.18797,
610.029,978.39126,
607.119,934.96158,
604.208,915.00471,
601.297,911.61611,
598.387,924.08386,
595.476,947.03077,
592.566,940.73422,
589.655,938.32922,
586.745,928.07769,
583.834,907.50039,
580.923,878.77191,
578.013,903.09866,
575.102,892.41735,
572.192,878.55315,
569.281,882.67079,
566.371,916.32362,
563.460,925.97421,
560.549,941.29424,
557.639,951.6708,
554.728,945.84221,
551.818,980.95643,
548.907,942.3096,
545.996,951.11517,
543.086,1002.3981,
540.175,959.57254,
537.265,969.66203,
534.354,971.11317,
531.444,972.36219,
528.533,980.32079,
525.622,919.7969,
522.712,952.1315,
519.801,966.34979,
516.891,943.50306,
513.980,952.79461,
511.070,976.86846,
508.159,974.68584,
505.248,972.64095,
502.338,1006.0768,
499.427,1021.5135,
496.517,1031.2816,
493.606,1029.2317,
490.695,1019.8345,
487.785,1042.9283,
484.874,1031.7619,
481.964,1024.0403,
479.053,1022.2348,
476.143,1012.2513,
473.232,1007.3086,
470.321,1001.7324,
467.411,1009.5282,
464.500,1043.345,
461.590,992.80619,
458.679,996.78472,
455.769,1018.2413,
452.858,1031.9092,
449.947,1025.0338,
447.037,1047.2887,
444.126,1026.025,
441.216,971.69459,
438.305,1018.1724,
435.395,1025.9363,
432.484,1019.1235,
429.573,1010.4,
426.663,1018.0014,
423.752,1103.7101,
420.842,1203.191,
417.931,1274.6084,
415.020,1263.9914,
412.110,1175.8314,
409.199,1119.6641,
406.289,1100.5285,
403.378,1118.4918,
400.468,1079.1801,
397.557,1043.4883,
394.646,1007.619,
391.736,966.00327,
388.825,852.86858,
385.915,805.78796,
383.004,803.61902,
380.094,831.50418,
377.183,887.93991,
374.272,935.64905,
371.362,968.21722,
368.451,985.50025,
365.541,1049.2958,
362.630,1057.3389,
359.719,1065.3113,
356.809,1099.2268,
353.898,1043.067,
350.988,1052.5794,
348.077,1064.0415,
345.167,1041.1169,
342.256,1050.8288,
339.345,1071.6937,
336.435,1079.0196,
333.524,1055.8734,
330.614,1032.0284,
327.703,1046.188,
324.793,1068.1717,
321.882,1072.6304,
318.971,1074.8607,
316.061,1085.8796,
313.150,1080.6893,
310.240,1029.4833,
307.329,1073.3618,
304.418,1048.7654,
301.508,987.58189,
298.597,949.82064,
295.687,826.07621,
292.776,794.45847,
289.866,851.02046,
286.955,947.7935,
284.044,1090.0224,
281.134,1177.9554,
278.223,1208.7086,
275.313,1263.9727,
272.402,1272.1396,
269.492,1304.162,
266.581,1379.2031,
263.670,1387.29,
260.760,1413.1322,
257.849,1411.2719,
254.939,1344.4886,
252.028,1355.2065,
249.117,1368.3047,
246.207,1366.8815,
243.296,1321.4952,
240.386,1297.0352,
237.475,1264.3422,
234.565,1231.5009,
231.654,1249.7604,
228.743,1193.2114,
225.833,1164.1747,
222.922,1199.4212,
220.012,1195.0498,
217.101,1166.6356,
214.191,1122.6701,
211.280,1069.5653,
208.369,1039.3853,
205.459,1036.207,
202.548,1048.3687,
199.638,1035.307,
196.727,1050.4877,
193.816,1053.9923,
190.906,1030.9393,
187.995,1011.3907,
185.085,991.38504,
182.174,969.76908,
179.264,944.47227,
176.353,966.61538,
173.442,968.66059,
170.532,948.12904,
167.621,952.4549,
164.711,979.37782,
161.800,983.70113,
158.890,928.2821,
155.979,805.80043,
153.068,720.35449,
150.158,658.15791,
147.247,555.49074,
144.337,445.63327,
141.426,343.91697,
138.516,258.60691,
135.605,202.40549,
132.694,145.71978,
129.784,91.680925,
126.873,50.918524,
123.963,30.674527,
121.052,25.591049,
118.141,35.585677,
115.231,23.545304,
112.320,19.048636,
109.410,17.988737,
106.499,9.4428741,
103.589,8.745509,
100.678,9.3533783,
97.767,8.6424407,
94.857,14.861901,
91.946,9.1596717,
89.036,-1.5686335,
86.125,9.7786509,
83.215,9.4394779,
80.304,6.8644327,
77.393,7.5726026,
74.483,7.625,
71.572,7.625,
68.662,7.625,
65.751,7.625,
62.840,6.179894,
59.930,4.8122862,
57.019,5.5173682,
54.109,6.8193217,
51.198,7.625,
48.288,7.6023502,
45.377,4.788838,
42.466,4.861658,
39.556,6.9703557,
36.645,9.0769264,
33.735,9.1057515,
30.824,8.1832261,
27.914,6.7808756,
25.003,9.7381874,
22.092,11.625,
19.182,12.197072,
16.271,29.684325,
13.361,61.069563,
10.450,140.05673,
7.539,404.01994,
4.629,731.30381,
1.718,919.52928,
-1.192,743.15172,
-4.103,435.02034,
-7.013,173.40332,
-9.924,-3.375,
