,PLF1F4~1,
Raman shift [1/cm],Intensity,
3014.167,-0.375,
3011.256,-1.4750215,
3008.346,370.02651,
3005.435,449.66387,
3002.525,471.43764,
2999.614,470.00164,
2996.704,506.24561,
2993.793,500.00576,
2990.882,516.52565,
2987.972,530.70572,
2985.061,546.18165,
2982.151,593.18134,
2979.240,598.47385,
2976.329,608.38183,
2973.419,634.02474,
2970.508,656.95827,
2967.598,658.77199,
2964.687,678.75951,
2961.777,717.30064,
2958.866,702.93408,
2955.955,741.69579,
2953.045,764.45946,
2950.134,783.54048,
2947.224,816.16591,
2944.313,828.78241,
2941.403,844.2208,
2938.492,852.60331,
2935.581,884.88258,
2932.671,875.2302,
2929.760,908.57501,
2926.850,895.67011,
2923.939,920.38199,
2921.028,933.70738,
2918.118,951.46379,
2915.207,962.22652,
2912.297,968.65885,
2909.386,976.60311,
2906.476,958.75703,
2903.565,963.20574,
2900.654,963.46018,
2897.744,972.32327,
2894.833,949.03736,
2891.923,947.1923,
2889.012,945.07587,
2886.102,939.42233,
2883.191,953.5929,
2880.280,927.27093,
2877.370,904.00297,
2874.459,871.14091,
2871.549,933.8754,
2868.638,964.35283,
2865.727,964.47112,
2862.817,968.88169,
2859.906,1012.0039,
2856.996,987.14538,
2854.085,1005.5116,
2851.175,1005.0798,
2848.264,1018.2672,
2845.353,1003.5387,
2842.443,994.83336,
2839.532,991.50557,
2836.622,971.29362,
2833.711,977.46958,
2830.801,966.53162,
2827.890,970.01833,
2824.979,973.03289,
2822.069,985.37481,
2819.158,972.7463,
2816.248,976.41842,
2813.337,1008.1299,
2810.427,986.71316,
2807.516,989.67531,
2804.605,989.07693,
2801.695,990.13814,
2798.784,983.625,
2795.874,998.47988,
2792.963,998.69638,
2790.052,991.62629,
2787.142,967.74327,
2784.231,960.14052,
2781.321,962.37932,
2778.410,980.67956,
2775.500,992.92259,
2772.589,1024.3911,
2769.678,980.33829,
2766.768,1007.3512,
2763.857,1001.467,
2760.947,1003.6439,
2758.036,1023.5678,
2755.126,1021.9071,
2752.215,1025.2431,
2749.304,1046.6663,
2746.394,1039.2964,
2743.483,1032.275,
2740.573,1041.6095,
2737.662,1029.1886,
2734.751,1036.858,
2731.841,1036.8411,
2728.930,1048.8073,
2726.020,1039.5179,
2723.109,1063.0164,
2720.199,1077.2905,
2717.288,1071.5921,
2714.377,1066.0748,
2711.467,1080.5261,
2708.556,1108.7951,
2705.646,1097.4137,
2702.735,1083.4884,
2699.825,1109.2013,
2696.914,1095.9104,
2694.003,1093.5518,
2691.093,1107.0714,
2688.182,1106.8613,
2685.272,1103.5539,
2682.361,1096.5715,
2679.450,1114.1312,
2676.540,1127.2592,
2673.629,1112.6115,
2670.719,1130.1869,
2667.808,1141.3818,
2664.898,1145.4694,
2661.987,1148.9253,
2659.076,1156.2608,
2656.166,1132.837,
2653.255,1148.1488,
2650.345,1182.2348,
2647.434,1145.8831,
2644.524,1181.7833,
2641.613,1188.4251,
2638.702,1187.6723,
2635.792,1188.4685,
2632.881,1192.3571,
2629.971,1177.0477,
2627.060,1194.7909,
2624.149,1189.1406,
2621.239,1209.4417,
2618.328,1200.0065,
2615.418,1214.2659,
2612.507,1216.3167,
2609.597,1197.0022,
2606.686,1224.9363,
2603.775,1239.1052,
2600.865,1239.625,
2597.954,1251.9125,
2595.044,1258.6161,
2592.133,1253.8988,
2589.223,1311.144,
2586.312,1275.6299,
2583.401,1310.5228,
2580.491,1292.7501,
2577.580,1292.62,
2574.670,1294.0528,
2571.759,1279.7509,
2568.848,1295.6694,
2565.938,1273.0058,
2563.027,1301.1136,
2560.117,1309.9895,
2557.206,1307.8169,
2554.296,1296.8035,
2551.385,1327.939,
2548.474,1324.699,
2545.564,1325.53,
2542.653,1346.8565,
2539.743,1342.1928,
2536.832,1332.8493,
2533.922,1354.9877,
2531.011,1376.2501,
2528.100,1377.4229,
2525.190,1368.1852,
2522.279,1400.265,
2519.369,1375.6437,
2516.458,1389.8523,
2513.548,1376.2071,
2510.637,1395.9487,
2507.726,1387.8109,
2504.816,1394.8753,
2501.905,1400.6829,
2498.995,1390.7444,
2496.084,1398.1442,
2493.173,1420.5727,
2490.263,1419.0521,
2487.352,1420.7502,
2484.442,1430.1753,
2481.531,1452.4175,
2478.621,1445.3406,
2475.710,1458.5867,
2472.799,1448.1991,
2469.889,1447.6223,
2466.978,1459.5735,
2464.068,1470.0748,
2461.157,1473.1274,
2458.247,1487.8898,
2455.336,1492.306,
2452.425,1476.4693,
2449.515,1494.6915,
2446.604,1521.2079,
2443.694,1512.1825,
2440.783,1485.8604,
2437.872,1549.6769,
2434.962,1523.3116,
2432.051,1520.6003,
2429.141,1547.2482,
2426.230,1561.3642,
2423.320,1579.5398,
2420.409,1565.9454,
2417.498,1592.7879,
2414.588,1585.2753,
2411.677,1586.2664,
2408.767,1584.2136,
2405.856,1613.1916,
2402.946,1598.0352,
2400.035,1618.1931,
2397.124,1606.5341,
2394.214,1618.0566,
2391.303,1624.0227,
2388.393,1623.6808,
2385.482,1617.7131,
2382.571,1644.6122,
2379.661,1654.8342,
2376.750,1667.6767,
2373.840,1657.2907,
2370.929,1706.051,
2368.019,1703.2759,
2365.108,1703.159,
2362.197,1716.4031,
2359.287,1706.8517,
2356.376,1726.5845,
2353.466,1729.9145,
2350.555,1711.7602,
2347.645,1722.5853,
2344.734,1714.3807,
2341.823,1763.7461,
2338.913,1774.8563,
2336.002,1746.6823,
2333.092,1759.8552,
2330.181,1767.2413,
2327.270,1814.2598,
2324.360,1795.9788,
2321.449,1768.6726,
2318.539,1798.8605,
2315.628,1801.9531,
2312.718,1825.1228,
2309.807,1809.2645,
2306.896,1827.0898,
2303.986,1816.6705,
2301.075,1824.3271,
2298.165,1816.2498,
2295.254,1838.0864,
2292.344,1831.1975,
2289.433,1859.6559,
2286.522,1872.7589,
2283.612,1876.9349,
2280.701,1895.6653,
2277.791,1899.2243,
2274.880,1895.4029,
2271.969,1917.3987,
2269.059,1945.437,
2266.148,1987.0524,
2263.238,1983.8296,
2260.327,1947.246,
2257.417,1982.3878,
2254.506,1978.7931,
2251.595,1969.4868,
2248.685,1986.9845,
2245.774,2017.1521,
2242.864,2000.9217,
2239.953,2016.894,
2237.043,2027.4968,
2234.132,2047.6121,
2231.221,2059.9429,
2228.311,2081.6727,
2225.400,2088.9346,
2222.490,2100.182,
2219.579,2114.9335,
2216.669,2147.0845,
2213.758,2167.3662,
2210.847,2184.1036,
2207.937,2219.2406,
2205.026,2181.9565,
2202.116,2236.8203,
2199.205,2279.9728,
2196.294,2327.435,
2193.384,2380.7811,
2190.473,2395.6191,
2187.563,2512.6202,
2184.652,2526.385,
2181.742,2638.8786,
2178.831,2777.2167,
2175.920,2939.2334,
2173.010,3128.9356,
2170.099,3375.6028,
2167.189,3544.9883,
2164.278,3778.6723,
2161.368,4083.1913,
2158.457,4300.1917,
2155.546,4584.0425,
2152.636,4791.0556,
2149.725,4982.0947,
2146.815,5104.4216,
2143.904,5249.3313,
2140.993,5256.0114,
2138.083,5226.166,
2135.172,5236.02,
2132.262,5171.0158,
2129.351,5039.29,
2126.441,4937.4112,
2123.530,4687.3577,
2120.619,4454.4613,
2117.709,4183.6037,
2114.798,3901.9623,
2111.888,3606.4807,
2108.977,3373.6382,
2106.067,3193.8348,
2103.156,3000.0143,
2100.245,2874.5667,
2097.335,2776.0857,
2094.424,2707.8605,
2091.514,2608.5416,
2088.603,2568.2149,
2085.692,2527.3017,
2082.782,2542.1911,
2079.871,2524.0521,
2076.961,2476.4664,
2074.050,2467.425,
2071.140,2407.8431,
2068.229,2419.9987,
2065.318,2409.9215,
2062.408,2398.8519,
2059.497,2387.2321,
2056.587,2369.7649,
2053.676,2333.0434,
2050.766,2336.7782,
2047.855,2321.5396,
2044.944,2319.4231,
2042.034,2331.9719,
2039.123,2352.5644,
2036.213,2325.3982,
2033.302,2306.777,
2030.391,2330.3703,
2027.481,2325.491,
2024.570,2337.4817,
2021.660,2342.5067,
2018.749,2380.9657,
2015.839,2311.6073,
2012.928,2307.8196,
2010.017,2340.2482,
2007.107,2336.0885,
2004.196,2347.1251,
2001.286,2351.9148,
1998.375,2341.625,
1995.465,2314.0938,
1992.554,2315.3896,
1989.643,2283.8002,
1986.733,2290.6952,
1983.822,2310.6124,
1980.912,2308.1986,
1978.001,2285.2688,
1975.090,2318.7441,
1972.180,2325.524,
1969.269,2304.852,
1966.359,2295.3545,
1963.448,2291.2776,
1960.538,2312.1012,
1957.627,2321.0832,
1954.716,2291.5155,
1951.806,2270.2708,
1948.895,2278.7991,
1945.985,2258.344,
1943.074,2283.4294,
1940.164,2273.1919,
1937.253,2230.8644,
1934.342,2233.2662,
1931.432,2270.9846,
1928.521,2230.777,
1925.611,2236.6636,
1922.700,2224.5076,
1919.790,2224.5151,
1916.879,2226.5553,
1913.968,2214.6398,
1911.058,2234.4088,
1908.147,2254.3111,
1905.237,2231.9339,
1902.326,2257.1006,
1899.415,2212.2445,
1896.505,2250.0526,
1893.594,2245.436,
1890.684,2241.0369,
1887.773,2253.6587,
1884.863,2269.2469,
1881.952,2239.1203,
1879.041,2262.4236,
1876.131,2259.7806,
1873.220,2231.3461,
1870.310,2243.4052,
1867.399,2240.689,
1864.489,2222.6375,
1861.578,2247.9052,
1858.667,2253.7058,
1855.757,2277.4042,
1852.846,2296.1019,
1849.936,2282.3227,
1847.025,2300.3233,
1844.114,2340.6603,
1841.204,2353.6844,
1838.293,2340.6549,
1835.383,2348.3105,
1832.472,2390.3815,
1829.562,2379.0729,
1826.651,2363.2574,
1823.740,2374.2725,
1820.830,2369.3651,
1817.919,2397.5713,
1815.009,2401.2001,
1812.098,2349.4597,
1809.188,2408.3458,
1806.277,2403.8242,
1803.366,2456.3422,
1800.456,2441.8233,
1797.545,2474.8309,
1794.635,2432.6561,
1791.724,2471.5764,
1788.813,2484.8098,
1785.903,2447.0048,
1782.992,2479.2345,
1780.082,2471.8758,
1777.171,2452.2958,
1774.261,2481.8603,
1771.350,2518.4975,
1768.439,2540.8809,
1765.529,2538.4416,
1762.618,2550.3657,
1759.708,2561.364,
1756.797,2570.6023,
1753.887,2625.8582,
1750.976,2639.2939,
1748.065,2623.095,
1745.155,2633.0378,
1742.244,2644.5978,
1739.334,2650.7332,
1736.423,2655.4512,
1733.512,2643.5274,
1730.602,2696.2223,
1727.691,2680.3126,
1724.781,2689.2894,
1721.870,2785.5636,
1718.960,2772.269,
1716.049,2787.2773,
1713.138,2773.6701,
1710.228,2794.123,
1707.317,2811.7781,
1704.407,2815.4218,
1701.496,2907.6913,
1698.586,2901.8412,
1695.675,2938.0533,
1692.764,2899.916,
1689.854,2934.936,
1686.943,2974.3097,
1684.033,3014.6316,
1681.122,3056.9113,
1678.211,3047.7202,
1675.301,3195.1687,
1672.390,3202.9151,
1669.480,3300.1063,
1666.569,3361.1739,
1663.659,3481.723,
1660.748,3488.8398,
1657.837,3551.4998,
1654.927,3592.757,
1652.016,3683.0586,
1649.106,3743.3669,
1646.195,3853.0326,
1643.285,3871.7442,
1640.374,3965.1546,
1637.463,4086.6154,
1634.553,4251.0585,
1631.642,4349.7629,
1628.732,4636.6145,
1625.821,4802.7833,
1622.911,5043.2613,
1620.000,5276.6643,
1617.089,5525.63,
1614.179,5935.8652,
1611.268,6180.6279,
1608.358,6547.0663,
1605.447,6677.7688,
1602.536,6781.5413,
1599.626,6870.499,
1596.715,6925.7279,
1593.805,6851.9238,
1590.894,6785.3814,
1587.984,6764.6336,
1585.073,6713.2776,
1582.162,6657.8714,
1579.252,6625.7126,
1576.341,6622.2271,
1573.431,6544.3076,
1570.520,6555.4932,
1567.610,6506.0162,
1564.699,6451.5486,
1561.788,6590.032,
1558.878,6540.9691,
1555.967,6292.4076,
1553.057,6091.4708,
1550.146,5951.047,
1547.235,5912.2025,
1544.325,6043.7799,
1541.414,5901.62,
1538.504,5662.0898,
1535.593,5568.1691,
1532.683,5477.305,
1529.772,5426.5315,
1526.861,5347.4827,
1523.951,5220.4893,
1521.040,5131.6728,
1518.130,5065.8139,
1515.219,4993.2668,
1512.309,4922.4493,
1509.398,4896.7657,
1506.487,4879.862,
1503.577,4812.1877,
1500.666,4779.7296,
1497.756,4765.4546,
1494.845,4677.1042,
1491.934,4640.4738,
1489.024,4594.2742,
1486.113,4546.2642,
1483.203,4477.7888,
1480.292,4461.9884,
1477.382,4358.7857,
1474.471,4360.7159,
1471.560,4354.1117,
1468.650,4295.3297,
1465.739,4250.7698,
1462.829,4216.9459,
1459.918,4222.0672,
1457.008,4266.5484,
1454.097,4245.5606,
1451.186,4224.1414,
1448.276,4277.0526,
1445.365,4285.5895,
1442.455,4287.625,
1439.544,4282.6895,
1436.633,4278.908,
1433.723,4327.1688,
1430.812,4217.2024,
1427.902,4111.6025,
1424.991,4110.6547,
1422.081,4069.3385,
1419.170,4075.9937,
1416.259,4082.4854,
1413.349,4050.3944,
1410.438,4010.934,
1407.528,3979.9565,
1404.617,4006.6141,
1401.707,4004.0082,
1398.796,4020.6354,
1395.885,4081.2668,
1392.975,4110.5421,
1390.064,4150.1096,
1387.154,4171.2491,
1384.243,4068.8659,
1381.332,4067.3555,
1378.422,4165.2479,
1375.511,4235.5064,
1372.601,4411.7234,
1369.690,4514.9189,
1366.780,4676.9435,
1363.869,4799.1699,
1360.958,4828.6444,
1358.048,4894.0759,
1355.137,4964.3321,
1352.227,5047.9326,
1349.316,5173.1169,
1346.406,5293.3038,
1343.495,5387.3271,
1340.584,5445.4095,
1337.674,5541.5996,
1334.763,5699.0957,
1331.853,5685.1873,
1328.942,5713.9773,
1326.032,5848.9399,
1323.121,5994.9564,
1320.210,6090.2305,
1317.300,6137.6929,
1314.389,6229.2237,
1311.479,6358.9838,
1308.568,6453.8948,
1305.657,6520.8779,
1302.747,6606.1936,
1299.836,6690.4753,
1296.926,6860.4616,
1294.015,7007.5534,
1291.105,7270.7432,
1288.194,7363.9332,
1285.283,7544.7377,
1282.373,7709.3434,
1279.462,7800.1146,
1276.552,7936.7987,
1273.641,8065.2822,
1270.731,8091.9713,
1267.820,8148.5333,
1264.909,8162.2846,
1261.999,8176.1991,
1259.088,8027.5233,
1256.178,7863.6064,
1253.267,7711.8049,
1250.356,7503.6343,
1247.446,7294.7185,
1244.535,7094.1208,
1241.625,6885.1401,
1238.714,6656.6891,
1235.804,6434.5136,
1232.893,6312.8854,
1229.982,6260.2588,
1227.072,6101.8292,
1224.161,5992.2861,
1221.251,5908.1082,
1218.340,5828.6175,
1215.430,5730.4597,
1212.519,5625.3687,
1209.608,5567.8144,
1206.698,5585.1146,
1203.787,5622.0521,
1200.877,5646.5314,
1197.966,5741.8423,
1195.055,5818.2979,
1192.145,5950.0886,
1189.234,6091.4854,
1186.324,6227.36,
1183.413,6289.3255,
1180.503,6283.2995,
1177.592,6266.2711,
1174.681,6188.6456,
1171.771,6069.956,
1168.860,5997.6157,
1165.950,5928.5407,
1163.039,5910.133,
1160.129,5859.667,
1157.218,5806.8763,
1154.307,5742.844,
1151.397,5642.8178,
1148.486,5569.625,
1145.576,5567.7747,
1142.665,5525.1549,
1139.754,5463.0437,
1136.844,5435.6189,
1133.933,5360.4173,
1131.023,5304.0715,
1128.112,5308.1232,
1125.202,5326.2772,
1122.291,5303.9767,
1119.380,5244.214,
1116.470,5304.2259,
1113.559,5300.7995,
1110.649,5308.1025,
1107.738,5293.2639,
1104.828,5285.1953,
1101.917,5311.9392,
1099.006,5338.8932,
1096.096,5319.0977,
1093.185,5359.4858,
1090.275,5311.641,
1087.364,5267.3772,
1084.453,5267.2491,
1081.543,5252.3317,
1078.632,5226.1465,
1075.722,5254.8489,
1072.811,5306.1978,
1069.901,5286.1128,
1066.990,5306.4499,
1064.079,5334.082,
1061.169,5418.0811,
1058.258,5478.0485,
1055.348,5508.3148,
1052.437,5578.8051,
1049.527,5577.7131,
1046.616,5657.6454,
1043.705,5682.0403,
1040.795,5677.6859,
1037.884,5691.843,
1034.974,5728.8737,
1032.063,5787.2856,
1029.153,5870.5357,
1026.242,5828.1529,
1023.331,5799.96,
1020.421,5890.825,
1017.510,5922.54,
1014.600,5937.4632,
1011.689,5992.2858,
1008.778,6070.5378,
1005.868,6182.8335,
1002.957,6428.8949,
1000.047,6709.7771,
997.136,6878.152,
994.226,6981.7012,
991.315,7018.2686,
988.404,6944.6285,
985.494,6850.4742,
982.583,6799.0808,
979.673,6678.9514,
976.762,6654.651,
973.852,6667.509,
970.941,6667.7359,
968.030,6663.2203,
965.120,6649.736,
962.209,6676.1648,
959.299,6667.1683,
956.388,6680.1038,
953.477,6703.2566,
950.567,6703.0767,
947.656,6676.7607,
944.746,6746.4243,
941.835,6753.6741,
938.925,6793.45,
936.014,6788.3337,
933.103,6740.3208,
930.193,6685.8393,
927.282,6633.3089,
924.372,6535.2185,
921.461,6406.2738,
918.551,6329.1881,
915.640,6277.7034,
912.729,6231.0857,
909.819,6196.0664,
906.908,6169.1088,
903.998,6211.37,
901.087,6272.909,
898.176,6298.7618,
895.266,6327.6823,
892.355,6406.0486,
889.445,6456.4046,
886.534,6537.6076,
883.624,6613.5071,
880.713,6662.0185,
877.802,6694.5207,
874.892,6711.9842,
871.981,6672.5597,
869.071,6627.4474,
866.160,6638.2539,
863.250,6640.3346,
860.339,6622.8118,
857.428,6597.6075,
854.518,6578.8196,
851.607,6516.4144,
848.697,6473.9854,
845.786,6478.3078,
842.875,6474.6521,
839.965,6447.8389,
837.054,6503.4948,
834.144,6491.8922,
831.233,6516.9564,
828.323,6500.4561,
825.412,6452.561,
822.501,6397.4118,
819.591,6290.8063,
816.680,6280.4134,
813.770,6200.9387,
810.859,6113.1109,
807.949,6048.0176,
805.038,6011.3175,
802.127,6025.3106,
799.217,5956.5582,
796.306,5986.5443,
793.396,5999.9835,
790.485,5953.6769,
787.574,5941.4729,
784.664,5911.1288,
781.753,5919.0447,
778.843,5930.0357,
775.932,5952.2173,
773.022,5992.259,
770.111,5996.3469,
767.200,5989.0119,
764.290,6002.8056,
761.379,5973.6628,
758.469,5919.8327,
755.558,5953.9929,
752.648,5932.8132,
749.737,5865.9572,
746.826,5822.3681,
743.916,5772.092,
741.005,5654.8342,
738.095,5497.3301,
735.184,5273.4029,
732.274,5235.2745,
729.363,5369.7782,
726.452,5584.3755,
723.542,5732.4945,
720.631,5849.1895,
717.721,5864.8668,
714.810,5847.4375,
711.899,5847.2092,
708.989,5875.4516,
706.078,5779.4686,
703.168,5767.7694,
700.257,5791.3027,
697.347,5788.4103,
694.436,5697.4286,
691.525,5690.1944,
688.615,5699.3165,
685.704,5711.6687,
682.794,5712.6038,
679.883,5691.4993,
676.973,5733.1705,
674.062,5721.8445,
671.151,5718.9533,
668.241,5715.5684,
665.330,5670.2847,
662.420,5663.0961,
659.509,5684.4825,
656.598,5695.4613,
653.688,5702.7469,
650.777,5735.6799,
647.867,5707.8084,
644.956,5673.1441,
642.046,5659.771,
639.135,5665.8346,
636.224,5666.9194,
633.314,5725.6709,
630.403,5757.7701,
627.493,5780.7632,
624.582,5818.2244,
621.672,5906.1358,
618.761,5914.1846,
615.850,5932.7056,
612.940,5964.3848,
610.029,6000.5978,
607.119,6012.4423,
604.208,6007.2349,
601.297,6015.0939,
598.387,6030.7844,
595.476,6044.2935,
592.566,6051.3771,
589.655,6014.3995,
586.745,6004.4742,
583.834,5999.7408,
580.923,5932.8051,
578.013,5962.625,
575.102,5965.4627,
572.192,5960.1959,
569.281,5961.4212,
566.371,5982.552,
563.460,6030.4804,
560.549,6074.9635,
557.639,6100.2822,
554.728,6101.7,
551.818,6182.0725,
548.907,6224.6109,
545.996,6274.8385,
543.086,6332.148,
540.175,6348.4996,
537.265,6317.0324,
534.354,6380.3803,
531.444,6478.475,
528.533,6539.7771,
525.622,6570.0391,
522.712,6677.9528,
519.801,6762.3371,
516.891,6824.552,
513.980,6982.5084,
511.070,7062.8337,
508.159,7151.7535,
505.248,7276.2084,
502.338,7449.1446,
499.427,7466.8968,
496.517,7565.5239,
493.606,7684.0609,
490.695,7780.2253,
487.785,7813.3263,
484.874,7808.2854,
481.964,7790.1667,
479.053,7773.3604,
476.143,7776.4323,
473.232,7729.8638,
470.321,7740.8196,
467.411,7748.5783,
464.500,7680.2177,
461.590,7664.1372,
458.679,7711.903,
455.769,7743.5978,
452.858,7722.7269,
449.947,7752.5202,
447.037,7779.8616,
444.126,7791.7765,
441.216,7787.8313,
438.305,7783.2597,
435.395,7819.9963,
432.484,7822.1214,
429.573,7786.9749,
426.663,7741.3664,
423.752,7711.8205,
420.842,7686.4677,
417.931,7694.8348,
415.020,7783.5627,
412.110,7869.2973,
409.199,7989.1115,
406.289,8080.9031,
403.378,8075.5968,
400.468,8067.2809,
397.557,8044.5732,
394.646,8018.0833,
391.736,7995.8383,
388.825,7940.0252,
385.915,7944.9127,
383.004,7978.4733,
380.094,8021.2682,
377.183,8131.8822,
374.272,8233.7292,
371.362,8342.4833,
368.451,8461.0839,
365.541,8485.1011,
362.630,8531.5006,
359.719,8581.7911,
356.809,8628.3339,
353.898,8722.6825,
350.988,8694.3763,
348.077,8659.6605,
345.167,8688.3657,
342.256,8722.7309,
339.345,8765.5738,
336.435,8800.1768,
333.524,8815.8229,
330.614,8853.8258,
327.703,8925.6934,
324.793,8999.3814,
321.882,9047.6556,
318.971,9060.2942,
316.061,9172.5424,
313.150,9278.6964,
310.240,9256.433,
307.329,9332.0912,
304.418,9373.5679,
301.508,9386.2312,
298.597,9384.7503,
295.687,9377.1754,
292.776,9450.2921,
289.866,9618.5,
286.955,9907.3417,
284.044,10205.42,
281.134,10434.977,
278.223,10608.809,
275.313,10863.024,
272.402,11086.83,
269.492,11302.78,
266.581,11518.549,
263.670,11727.341,
260.760,11933.892,
257.849,12125.366,
254.939,12290.49,
252.028,12428.708,
249.117,12540.469,
246.207,12618.633,
243.296,12645.719,
240.386,12678.663,
237.475,12620.093,
234.565,12491.882,
231.654,12436.373,
228.743,12394.706,
225.833,12333.903,
222.922,12241.446,
220.012,12151.834,
217.101,12044.11,
214.191,11961.532,
211.280,11957.895,
208.369,11978.482,
205.459,11993.017,
202.548,12003.511,
199.638,12026.006,
196.727,11963.208,
193.816,11928.074,
190.906,11964.977,
187.995,12060.548,
185.085,12094.098,
182.174,12118.915,
179.264,12208.538,
176.353,12208.373,
173.442,12208.788,
170.532,12205.092,
167.621,12080.363,
164.711,11939.409,
161.800,11696.395,
158.890,11268.157,
155.979,10547.165,
153.068,9681.3703,
150.158,8681.9676,
147.247,7526.0645,
144.337,6237.5499,
141.426,4924.0571,
138.516,3631.5022,
135.605,2612.7627,
132.694,1807.4436,
129.784,1194.6512,
126.873,779.16075,
123.963,531.87094,
121.052,367.83135,
118.141,265.02946,
115.231,208.48994,
112.320,171.22138,
109.410,146.71621,
106.499,121.07862,
103.589,107.78144,
100.678,98.908783,
97.767,91.799407,
94.857,83.309131,
91.946,70.756561,
89.036,58.076592,
86.125,60.913413,
83.215,57.377637,
80.304,53.625,
77.393,53.625,
74.483,52.31473,
71.572,47.276775,
68.662,39.278663,
65.751,35.746407,
62.840,36.551808,
59.930,36.939424,
57.019,30.593686,
54.109,29.027839,
51.198,27.116954,
48.288,23.641987,
45.377,25.752122,
42.466,25.800561,
39.556,23.81917,
36.645,18.903838,
33.735,15.548006,
30.824,15.612983,
27.914,21.92356,
25.003,21.379725,
22.092,15.781432,
19.182,5.5563514,
16.271,3.457881,
13.361,-67.337024,
10.450,-236.45037,
7.539,-661.02612,
4.629,-1147.7759,
1.718,-1428.1048,
-1.192,-1192.47,
-4.103,-747.94441,
-7.013,-334.74828,
-9.924,-1.375,
