,PL5D13~1,
Wavenumbers [1/cm],Intensity,
3014.167,-1.375,
3011.256,1.1750107,
3008.346,33.889213,
3005.435,20.473059,
3002.525,45.475112,
2999.614,54.149673,
2996.704,45.129126,
2993.793,48.24424,
2990.882,53.754765,
2987.972,60.579595,
2985.061,48.078197,
2982.151,52.43173,
2979.240,49.955782,
2976.329,50.100429,
2973.419,57.178787,
2970.508,57.158347,
2967.598,45.150703,
2964.687,59.445652,
2961.777,64.530992,
2958.866,67.622031,
2955.955,62.518817,
2953.045,74.009799,
2950.134,67.645372,
2947.224,69.052032,
2944.313,80.478988,
2941.403,73.148723,
2938.492,80.890573,
2935.581,75.850758,
2932.671,76.26448,
2929.760,78.971162,
2926.850,78.886279,
2923.939,84.863305,
2921.028,97.560364,
2918.118,75.426009,
2915.207,73.618547,
2912.297,76.582687,
2909.386,95.245432,
2906.476,79.439638,
2903.565,88.96501,
2900.654,76.800921,
2897.744,93.448989,
2894.833,73.027184,
2891.923,70.923103,
2889.012,54.081648,
2886.102,52.376359,
2883.191,35.636328,
2880.280,-3.1932044,
2877.370,-137.2817,
2874.459,-224.0352,
2871.549,-123.08465,
2868.638,22.315646,
2865.727,35.967306,
2862.817,49.739962,
2859.906,51.473994,
2856.996,80.095563,
2854.085,98.068298,
2851.175,83.149092,
2848.264,85.909333,
2845.353,78.926938,
2842.443,86.635445,
2839.532,85.386147,
2836.622,90.535155,
2833.711,101.40994,
2830.801,89.538965,
2827.890,92.605783,
2824.979,99.341009,
2822.069,97.681861,
2819.158,101.86489,
2816.248,105.85474,
2813.337,117.33599,
2810.427,93.058883,
2807.516,92.941563,
2804.605,99.44231,
2801.695,104.32237,
2798.784,95.438154,
2795.874,94.888823,
2792.963,102.76755,
2790.052,103.62328,
2787.142,98.21727,
2784.231,99.303592,
2781.321,109.61924,
2778.410,96.699869,
2775.500,109.5812,
2772.589,111.47057,
2769.678,105.40997,
2766.768,107.0017,
2763.857,107.88897,
2760.947,114.625,
2758.036,108.69503,
2755.126,111.72329,
2752.215,112.66602,
2749.304,113.64659,
2746.394,108.47176,
2743.483,111.625,
2740.573,113.39934,
2737.662,101.75221,
2734.751,117.6492,
2731.841,116.27335,
2728.930,103.34099,
2726.020,115.17593,
2723.109,112.51158,
2720.199,125.4688,
2717.288,121.43157,
2714.377,128.10828,
2711.467,134.03489,
2708.556,129.01868,
2705.646,118.17427,
2702.735,128.46263,
2699.825,127.24498,
2696.914,140.24457,
2694.003,136.08354,
2691.093,127.4108,
2688.182,132.67982,
2685.272,130.74876,
2682.361,119.83679,
2679.450,129.95006,
2676.540,103.2144,
2673.629,133.94786,
2670.719,136.05568,
2667.808,131.77091,
2664.898,139.66391,
2661.987,142.625,
2659.076,143.49784,
2656.166,133.8674,
2653.255,139.625,
2650.345,130.21665,
2647.434,123.11143,
2644.524,147.30844,
2641.613,153.91098,
2638.702,147.79859,
2635.792,144.5931,
2632.881,139.80969,
2629.971,148.32979,
2627.060,134.12219,
2624.149,148.81564,
2621.239,159.16354,
2618.328,146.00648,
2615.418,153.96136,
2612.507,145.79894,
2609.597,142.53318,
2606.686,141.625,
2603.775,148.82739,
2600.865,154.33148,
2597.954,150.52917,
2595.044,149.28576,
2592.133,139.00705,
2589.223,162.83029,
2586.312,161.40392,
2583.401,153.31844,
2580.491,163.15864,
2577.580,160.6151,
2574.670,149.92047,
2571.759,147.53424,
2568.848,157.27142,
2565.938,160.91069,
2563.027,155.57505,
2560.117,147.34464,
2557.206,156.04935,
2554.296,173.5655,
2551.385,161.43498,
2548.474,192.40345,
2545.564,164.01784,
2542.653,200.69883,
2539.743,181.82216,
2536.832,164.86986,
2533.922,164.83,
2531.011,181.1997,
2528.100,170.9002,
2525.190,178.13278,
2522.279,192.64014,
2519.369,172.32313,
2516.458,165.50956,
2513.548,170.33395,
2510.637,189.17834,
2507.726,186.6956,
2504.816,168.81328,
2501.905,189.85671,
2498.995,182.26669,
2496.084,180.30446,
2493.173,171.49288,
2490.263,189.53466,
2487.352,180.16753,
2484.442,192.9098,
2481.531,182.04001,
2478.621,176.99943,
2475.710,201.65567,
2472.799,201.43222,
2469.889,184.74688,
2466.978,185.6765,
2464.068,200.07478,
2461.157,189.50755,
2458.247,184.88976,
2455.336,205.79332,
2452.425,193.12026,
2449.515,198.09694,
2446.604,198.40157,
2443.694,194.1604,
2440.783,202.19595,
2437.872,206.29682,
2434.962,198.41302,
2432.051,211.84126,
2429.141,203.69584,
2426.230,198.42943,
2423.320,201.29609,
2420.409,206.92645,
2417.498,204.59131,
2414.588,202.81516,
2411.677,196.44974,
2408.767,217.61319,
2405.856,211.34168,
2402.946,220.63125,
2400.035,203.24939,
2397.124,200.54477,
2394.214,224.2738,
2391.303,217.05048,
2388.393,197.68079,
2385.482,192.66906,
2382.571,168.59938,
2379.661,176.76457,
2376.750,192.72587,
2373.840,210.54686,
2370.929,228.44089,
2368.019,232.39593,
2365.108,228.9051,
2362.197,219.81953,
2359.287,236.59158,
2356.376,213.67255,
2353.466,254.32373,
2350.555,224.67486,
2347.645,224.54552,
2344.734,229.41302,
2341.823,244.37625,
2338.913,235.84887,
2336.002,236.52444,
2333.092,238.6712,
2330.181,239.9421,
2327.270,239.84502,
2324.360,232.77592,
2321.449,246.94813,
2318.539,255.79627,
2315.628,253.16337,
2312.718,257.4576,
2309.807,257.69331,
2306.896,254.5937,
2303.986,247.41076,
2301.075,254.24202,
2298.165,261.80783,
2295.254,245.03432,
2292.344,259.41337,
2289.433,257.91454,
2286.522,261.51327,
2283.612,261.13391,
2280.701,270.20344,
2277.791,276.1441,
2274.880,269.11892,
2271.969,282.91718,
2269.059,271.36341,
2266.148,253.22266,
2263.238,269.3161,
2260.327,273.24577,
2257.417,279.96445,
2254.506,281.09796,
2251.595,286.62866,
2248.685,276.99618,
2245.774,270.11958,
2242.864,282.94918,
2239.953,285.57676,
2237.043,279.79393,
2234.132,288.78341,
2231.221,286.80842,
2228.311,286.23453,
2225.400,314.6962,
2222.490,284.66739,
2219.579,294.65071,
2216.669,298.11785,
2213.758,304.84331,
2210.847,308.43104,
2207.937,320.13639,
2205.026,311.84657,
2202.116,321.49657,
2199.205,300.68735,
2196.294,304.187,
2193.384,319.54552,
2190.473,320.47711,
2187.563,343.60083,
2184.652,338.77561,
2181.742,331.05576,
2178.831,321.61726,
2175.920,330.96197,
2173.010,333.42545,
2170.099,336.49157,
2167.189,356.58912,
2164.278,351.33153,
2161.368,354.19588,
2158.457,356.72883,
2155.546,367.60869,
2152.636,359.14635,
2149.725,375.08806,
2146.815,379.65837,
2143.904,394.72537,
2140.993,393.29699,
2138.083,390.00188,
2135.172,403.07882,
2132.262,401.11444,
2129.351,401.91124,
2126.441,401.858,
2123.530,414.73724,
2120.619,419.9463,
2117.709,385.61494,
2114.798,368.12881,
2111.888,364.67491,
2108.977,367.26076,
2106.067,352.45744,
2103.156,353.78385,
2100.245,357.63316,
2097.335,368.81872,
2094.424,354.42825,
2091.514,354.55783,
2088.603,359.25174,
2085.692,361.3536,
2082.782,352.60901,
2079.871,350.08941,
2076.961,359.97922,
2074.050,377.84924,
2071.140,362.30319,
2068.229,353.00522,
2065.318,346.78677,
2062.408,360.76117,
2059.497,370.86312,
2056.587,360.2184,
2053.676,348.99177,
2050.766,363.39331,
2047.855,346.08067,
2044.944,359.09776,
2042.034,346.65396,
2039.123,366.08628,
2036.213,365.8005,
2033.302,357.77705,
2030.391,347.87969,
2027.481,357.96628,
2024.570,358.72516,
2021.660,351.0389,
2018.749,361.13112,
2015.839,352.52592,
2012.928,373.71728,
2010.017,353.8074,
2007.107,356.79139,
2004.196,374.99403,
2001.286,381.70978,
1998.375,368.74901,
1995.465,345.46607,
1992.554,333.73683,
1989.643,362.55352,
1986.733,342.83904,
1983.822,348.31776,
1980.912,352.70373,
1978.001,338.89588,
1975.090,343.46011,
1972.180,334.93483,
1969.269,342.88938,
1966.359,340.0844,
1963.448,336.89448,
1960.538,364.21633,
1957.627,316.23486,
1954.716,311.56755,
1951.806,319.41985,
1948.895,333.7323,
1945.985,332.73121,
1943.074,345.3336,
1940.164,326.98078,
1937.253,313.85138,
1934.342,294.11217,
1931.432,320.91207,
1928.521,335.13104,
1925.611,316.48879,
1922.700,308.25069,
1919.790,311.07005,
1916.879,294.88049,
1913.968,326.58442,
1911.058,342.56794,
1908.147,324.3038,
1905.237,300.0441,
1902.326,294.89906,
1899.415,282.39691,
1896.505,225.84186,
1893.594,254.60682,
1890.684,294.23936,
1887.773,294.15957,
1884.863,309.48377,
1881.952,321.71748,
1879.041,305.22572,
1876.131,318.35571,
1873.220,333.08522,
1870.310,330.912,
1867.399,331.60901,
1864.489,301.44281,
1861.578,322.55899,
1858.667,326.93042,
1855.757,303.4114,
1852.846,317.11731,
1849.936,311.11349,
1847.025,311.50577,
1844.114,331.09798,
1841.204,357.29283,
1838.293,349.65327,
1835.383,323.88101,
1832.472,345.09109,
1829.562,369.73542,
1826.651,352.79546,
1823.740,336.34529,
1820.830,325.9084,
1817.919,326.06813,
1815.009,333.47487,
1812.098,366.0423,
1809.188,359.30719,
1806.277,327.33322,
1803.366,361.40873,
1800.456,349.28449,
1797.545,359.61087,
1794.635,354.65608,
1791.724,383.83866,
1788.813,366.23349,
1785.903,371.05151,
1782.992,303.30757,
1780.082,265.13437,
1777.171,138.61374,
1774.261,133.49074,
1771.350,237.99152,
1768.439,322.18135,
1765.529,358.98983,
1762.618,387.88254,
1759.708,377.41815,
1756.797,357.99621,
1753.887,375.95882,
1750.976,403.4424,
1748.065,394.66187,
1745.155,394.95392,
1742.244,392.36868,
1739.334,383.88618,
1736.423,410.1801,
1733.512,401.9786,
1730.602,404.34922,
1727.691,390.73647,
1724.781,424.95383,
1721.870,418.7249,
1718.960,450.80321,
1716.049,426.74396,
1713.138,456.53482,
1710.228,433.0349,
1707.317,426.85586,
1704.407,455.37371,
1701.496,440.39404,
1698.586,453.40875,
1695.675,455.56071,
1692.764,415.86268,
1689.854,416.49508,
1686.943,442.71441,
1684.033,454.3518,
1681.122,475.26816,
1678.211,467.70114,
1675.301,492.54791,
1672.390,466.56219,
1669.480,445.96994,
1666.569,488.86622,
1663.659,507.39635,
1660.748,493.79854,
1657.837,503.01866,
1654.927,520.17985,
1652.016,502.35397,
1649.106,531.2333,
1646.195,515.43319,
1643.285,509.63022,
1640.374,595.06054,
1637.463,568.42684,
1634.553,558.21611,
1631.642,598.04846,
1628.732,636.80869,
1625.821,667.61977,
1622.911,659.67008,
1620.000,687.27224,
1617.089,741.53047,
1614.179,789.27135,
1611.268,826.24942,
1608.358,869.56478,
1605.447,928.19689,
1602.536,924.1699,
1599.626,930.06453,
1596.715,936.97821,
1593.805,959.08897,
1590.894,929.92088,
1587.984,936.0181,
1585.073,872.11211,
1582.162,861.45989,
1579.252,828.89296,
1576.341,868.08668,
1573.431,839.68312,
1570.520,836.26877,
1567.610,809.56573,
1564.699,802.52512,
1561.788,767.00563,
1558.878,768.01132,
1555.967,724.75382,
1553.057,720.95236,
1550.146,714.57414,
1547.235,705.57663,
1544.325,705.9284,
1541.414,708.94546,
1538.504,705.43176,
1535.593,689.37363,
1532.683,697.08198,
1529.772,701.23776,
1526.861,681.23431,
1523.951,689.96125,
1521.040,692.06073,
1518.130,683.10309,
1515.219,702.70477,
1512.309,698.23757,
1509.398,662.55843,
1506.487,672.1603,
1503.577,683.625,
1500.666,685.19195,
1497.756,701.36275,
1494.845,745.26426,
1491.934,712.40767,
1489.024,645.99567,
1486.113,689.98578,
1483.203,661.65096,
1480.292,649.13989,
1477.382,685.61266,
1474.471,694.625,
1471.560,597.38574,
1468.650,611.18725,
1465.739,619.25324,
1462.829,640.46587,
1459.918,652.33764,
1457.008,651.20969,
1454.097,632.59278,
1451.186,621.67529,
1448.276,631.97314,
1445.365,594.15818,
1442.455,558.15861,
1439.544,551.70133,
1436.633,571.06096,
1433.723,531.99585,
1430.812,542.80712,
1427.902,557.10636,
1424.991,535.30782,
1422.081,544.71725,
1419.170,522.29537,
1416.259,542.92689,
1413.349,537.29638,
1410.438,507.73315,
1407.528,508.21235,
1404.617,554.54972,
1401.707,539.69982,
1398.796,469.05516,
1395.885,457.42836,
1392.975,482.70792,
1390.064,476.39737,
1387.154,495.51223,
1384.243,458.03739,
1381.332,420.85034,
1378.422,414.48008,
1375.511,411.66974,
1372.601,430.05641,
1369.690,479.62946,
1366.780,512.17809,
1363.869,549.86351,
1360.958,551.06154,
1358.048,541.47182,
1355.137,607.48961,
1352.227,649.95168,
1349.316,644.51113,
1346.406,683.1623,
1343.495,698.15111,
1340.584,675.44644,
1337.674,681.80746,
1334.763,741.80143,
1331.853,746.43758,
1328.942,788.42981,
1326.032,809.12179,
1323.121,769.64906,
1320.210,784.59143,
1317.300,799.03477,
1314.389,828.94504,
1311.479,862.86768,
1308.568,862.44118,
1305.657,849.625,
1302.747,867.61993,
1299.836,943.53905,
1296.926,977.04403,
1294.015,943.02905,
1291.105,975.08559,
1288.194,1021.9584,
1285.283,1021.885,
1282.373,1058.1249,
1279.462,1065.7037,
1276.552,1070.2786,
1273.641,1088.3474,
1270.731,1080.8026,
1267.820,1072.6637,
1264.909,1074.8116,
1261.999,1061.0591,
1259.088,1045.553,
1256.178,1100.2947,
1253.267,1086.6091,
1250.356,1045.0851,
1247.446,1067.349,
1244.535,1058.451,
1241.625,1021.625,
1238.714,1021.625,
1235.804,1025.3386,
1232.893,1035.5048,
1229.982,1014.8516,
1227.072,1051.064,
1224.161,1062.03,
1221.251,1016.7209,
1218.340,992.85126,
1215.430,1002.9389,
1212.519,1015.5305,
1209.608,1006.7025,
1206.698,981.98654,
1203.787,966.67526,
1200.877,989.07077,
1197.966,996.26404,
1195.055,1035.0212,
1192.145,1043.879,
1189.234,1106.9091,
1186.324,1150.4441,
1183.413,1159.5082,
1180.503,1162.9858,
1177.592,1156.9379,
1174.681,1127.8339,
1171.771,1169.945,
1168.860,1140.4731,
1165.950,1107.7923,
1163.039,1104.8154,
1160.129,1098.367,
1157.218,1118.5847,
1154.307,1154.4165,
1151.397,1151.7236,
1148.486,1117.2648,
1145.576,1177.1239,
1142.665,1165.581,
1139.754,1153.2342,
1136.844,1139.4202,
1133.933,1146.3551,
1131.023,1136.6854,
1128.112,1124.481,
1125.202,1141.0405,
1122.291,1152.3851,
1119.380,1178.4345,
1116.470,1159.0188,
1113.559,1138.067,
1110.649,1126.0765,
1107.738,1123.6966,
1104.828,1136.6919,
1101.917,1148.8911,
1099.006,1137.0992,
1096.096,1133.6037,
1093.185,1116.9216,
1090.275,1118.0528,
1087.364,1141.2671,
1084.453,1174.1236,
1081.543,1164.0171,
1078.632,1150.5626,
1075.722,1196.1802,
1072.811,1185.9973,
1069.901,1191.2369,
1066.990,1161.7167,
1064.079,1156.6665,
1061.169,1171.4325,
1058.258,1199.1409,
1055.348,1220.7431,
1052.437,1216.1652,
1049.527,1204.0949,
1046.616,1216.2585,
1043.705,1213.0004,
1040.795,1207.794,
1037.884,1214.7283,
1034.974,1232.5631,
1032.063,1240.233,
1029.153,1218.4945,
1026.242,1234.0637,
1023.331,1207.1268,
1020.421,1253.2105,
1017.510,1266.6606,
1014.600,1277.811,
1011.689,1280.6746,
1008.778,1225.3318,
1005.868,1223.4088,
1002.957,1199.3189,
1000.047,1268.425,
997.136,1322.642,
994.226,1348.3172,
991.315,1359.974,
988.404,1358.2214,
985.494,1310.047,
982.583,1328.8912,
979.673,1309.6756,
976.762,1275.2054,
973.852,1276.0735,
970.941,1302.4033,
968.030,1300.7636,
965.120,1267.7718,
962.209,1302.726,
959.299,1300.126,
956.388,1291.0254,
953.477,1298.5448,
950.567,1320.0692,
947.656,1335.9673,
944.746,1361.454,
941.835,1348.8582,
938.925,1360.1021,
936.014,1349.9211,
933.103,1335.8028,
930.193,1346.0197,
927.282,1360.9669,
924.372,1311.9217,
921.461,1315.9346,
918.551,1298.1305,
915.640,1277.1007,
912.729,1279.2858,
909.819,1309.5172,
906.908,1339.002,
903.998,1346.1925,
901.087,1327.8933,
898.176,1313.2846,
895.266,1320.734,
892.355,1339.5991,
889.445,1312.7425,
886.534,1325.1481,
883.624,1337.7175,
880.713,1350.7907,
877.802,1316.938,
874.892,1210.8642,
871.981,1084.725,
869.071,961.91929,
866.160,995.82177,
863.250,1121.7961,
860.339,1256.5819,
857.428,1338.7903,
854.518,1358.6511,
851.607,1290.4214,
848.697,1193.3357,
845.786,1129.7146,
842.875,1146.4735,
839.965,1241.4605,
837.054,1337.2018,
834.144,1388.5845,
831.233,1417.2903,
828.323,1396.4561,
825.412,1382.689,
822.501,1419.8165,
819.591,1426.4277,
816.680,1405.7916,
813.770,1396.2395,
810.859,1382.7952,
807.949,1379.2714,
805.038,1400.8418,
802.127,1369.563,
799.217,1379.2966,
796.306,1383.0574,
793.396,1373.2814,
790.485,1364.5213,
787.574,1387.8394,
784.664,1419.8237,
781.753,1430.9929,
778.843,1432.6448,
775.932,1429.1559,
773.022,1419.4407,
770.111,1392.4606,
767.200,1446.2008,
764.290,1431.2638,
761.379,1436.7712,
758.469,1467.6041,
755.558,1414.7952,
752.648,1420.4974,
749.737,1411.1804,
746.826,1404.6926,
743.916,1394.4106,
741.005,1369.4328,
738.095,1358.8784,
735.184,1297.56,
732.274,1238.3899,
729.363,1240.248,
726.452,1312.1797,
723.542,1342.9367,
720.631,1373.6775,
717.721,1402.6746,
714.810,1427.5227,
711.899,1442.3082,
708.989,1436.6597,
706.078,1458.2602,
703.168,1446.0156,
700.257,1441.6387,
697.347,1453.3639,
694.436,1459.2758,
691.525,1446.415,
688.615,1446.7696,
685.704,1435.6742,
682.794,1433.3695,
679.883,1481.8052,
676.973,1485.8121,
674.062,1473.8634,
671.151,1465.31,
668.241,1473.3932,
665.330,1501.8266,
662.420,1442.7205,
659.509,1429.9901,
656.598,1450.397,
653.688,1481.0756,
650.777,1490.7078,
647.867,1434.1685,
644.956,1427.1974,
642.046,1362.2163,
639.135,1281.5553,
636.224,1342.0706,
633.314,1430.9917,
630.403,1471.9525,
627.493,1484.2409,
624.582,1474.2667,
621.672,1432.291,
618.761,1473.9415,
615.850,1500.8487,
612.940,1528.3602,
610.029,1554.1804,
607.119,1515.4885,
604.208,1535.0554,
601.297,1579.5212,
598.387,1597.1404,
595.476,1553.0308,
592.566,1546.7342,
589.655,1567.6533,
586.745,1587.8704,
583.834,1588.5241,
580.923,1552.7008,
578.013,1565.2566,
575.102,1547.4022,
572.192,1536.9843,
569.281,1549.0152,
566.371,1562.3198,
563.460,1557.9813,
560.549,1571.7052,
557.639,1582.7166,
554.728,1566.7728,
551.818,1569.1138,
548.907,1575.1097,
545.996,1565.7949,
543.086,1544.2829,
540.175,1538.0537,
537.265,1539.7978,
534.354,1545.6419,
531.444,1553.6902,
528.533,1562.1216,
525.622,1569.1052,
522.712,1555.4562,
519.801,1552.4988,
516.891,1562.686,
513.980,1558.0402,
511.070,1558.3293,
508.159,1549.5512,
505.248,1552.6438,
502.338,1591.4443,
499.427,1585.2696,
496.517,1624.3522,
493.606,1642.1653,
490.695,1616.4809,
487.785,1622.6392,
484.874,1627.5023,
481.964,1609.6916,
479.053,1587.6923,
476.143,1613.0351,
473.232,1585.1294,
470.321,1580.9236,
467.411,1581.787,
464.500,1562.0129,
461.590,1577.3277,
458.679,1595.9327,
455.769,1599.1183,
452.858,1582.6929,
449.947,1602.5551,
447.037,1571.4329,
444.126,1573.025,
441.216,1609.8626,
438.305,1582.4331,
435.395,1612.0625,
432.484,1617.5392,
429.573,1583.7623,
426.663,1511.5489,
423.752,1324.9935,
420.842,1058.0137,
417.931,818.32672,
415.020,764.48329,
412.110,1067.7077,
409.199,1332.6811,
406.289,1469.011,
403.378,1396.4944,
400.468,1357.9387,
397.557,1367.2193,
394.646,1424.256,
391.736,1524.8081,
388.825,1561.7654,
385.915,1559.8524,
383.004,1552.0515,
380.094,1561.6231,
377.183,1581.1875,
374.272,1586.625,
371.362,1601.047,
368.451,1635.3515,
365.541,1630.8482,
362.630,1649.2897,
359.719,1651.4186,
356.809,1620.3435,
353.898,1665.2714,
350.988,1655.383,
348.077,1646.2085,
345.167,1667.5437,
342.256,1626.455,
339.345,1625.7851,
336.435,1634.7922,
333.524,1632.6955,
330.614,1634.9309,
327.703,1659.755,
324.793,1671.7978,
321.882,1640.6989,
318.971,1671.1801,
316.061,1658.6742,
313.150,1653.794,
310.240,1715.3896,
307.329,1744.0666,
304.418,1771.0393,
301.508,1780.7788,
298.597,1743.758,
295.687,1722.3395,
292.776,1720.2917,
289.866,1741.3018,
286.955,1796.7062,
284.044,1823.6,
281.134,1878.6893,
278.223,1960.523,
275.313,2007.6817,
272.402,2011.816,
269.492,1999.3868,
266.581,1977.1582,
263.670,1914.6679,
260.760,1936.8485,
257.849,1986.713,
254.939,2024.141,
252.028,2055.7503,
249.117,2050.2656,
246.207,2039.6638,
243.296,2078.4617,
240.386,2093.7259,
237.475,2086.1785,
234.565,2065.5453,
231.654,2071.3883,
228.743,2069.1728,
225.833,2046.1969,
222.922,1998.8776,
220.012,1982.8494,
217.101,1990.8743,
214.191,1984.736,
211.280,1918.5369,
208.369,1889.4037,
205.459,1883.2145,
202.548,1894.8841,
199.638,1913.7509,
196.727,1872.1039,
193.816,1863.9109,
190.906,1918.9173,
187.995,1813.2098,
185.085,1788.4464,
182.174,1812.9862,
179.264,1854.9067,
176.353,1802.5957,
173.442,1789.1154,
170.532,1811.6282,
167.621,1725.8321,
164.711,1687.3835,
161.800,1614.15,
158.890,1439.9759,
155.979,1308.3769,
153.068,1176.1505,
150.158,1048.3794,
147.247,952.89174,
144.337,803.36796,
141.426,631.2615,
138.516,447.73735,
135.605,323.85891,
132.694,219.80047,
129.784,138.12345,
126.873,94.500526,
123.963,64.000335,
121.052,41.959216,
118.141,27.681176,
115.231,31.177852,
112.320,27.117733,
109.410,19.897711,
106.499,21.322021,
103.589,13.781437,
100.678,6.8101349,
97.767,4.6773222,
94.857,6.7039671,
91.946,8.8343326,
89.036,11.302387,
86.125,15.557619,
83.215,11.846717,
80.304,4.5123751,
77.393,-4.6938341,
74.483,3.1417545,
71.572,7.9873521,
68.662,8.1401275,
65.751,3.19497,
62.840,4.0335099,
59.930,6.8122862,
57.019,7.5173682,
54.109,2.8477132,
51.198,1.1330464,
48.288,4.6023502,
45.377,1.788838,
42.466,3.5105354,
39.556,6.9342885,
36.645,2.7211472,
33.735,0.067254602,
30.824,-1.375,
27.914,-1.375,
25.003,2.3608249,
22.092,3.3333818,
19.182,1.128423,
16.271,16.517206,
13.361,63.084966,
10.450,118.38462,
7.539,116.98799,
4.629,-93.00294,
1.718,-357.79646,
-1.192,-580.88271,
-4.103,-554.07708,
-7.013,-360.89141,
-9.924,-0.375,
