,PL070F~1,
Raman shift [1/cm],Intensity,
3014.167,-1.875,
3011.256,1.0249785,
3008.346,146.86928,
3005.435,173.12854,
3002.525,179.02992,
2999.614,173.3536,
2996.704,191.48789,
2993.793,180.62961,
2990.882,199.15542,
2987.972,224.99888,
2985.061,206.3319,
2982.151,211.48298,
2979.240,219.4054,
2976.329,248.64957,
2973.419,245.57121,
2970.508,244.35833,
2967.598,256.74629,
2964.687,268.16984,
2961.777,269.84298,
2958.866,279.13242,
2955.955,278.99003,
2953.045,289.125,
2950.134,292.15708,
2947.224,289.14988,
2944.313,314.23753,
2941.403,326.45894,
2938.492,330.27405,
2935.581,326.78636,
2932.671,332.84604,
2929.760,325.82883,
2926.850,326.49793,
2923.939,333.08764,
2921.028,352.63705,
2918.118,344.3051,
2915.207,362.78345,
2912.297,346.24771,
2909.386,357.10311,
2906.476,349.73736,
2903.565,357.28648,
2900.654,355.34846,
2897.744,348.22558,
2894.833,361.48573,
2891.923,346.41979,
2889.012,353.66835,
2886.102,351.74932,
2883.191,344.13444,
2880.280,340.98624,
2877.370,322.78202,
2874.459,307.93649,
2871.549,347.57252,
2868.638,371.44458,
2865.727,374.125,
2862.817,378.49665,
2859.906,379.46688,
2856.996,387.10236,
2854.085,389.48424,
2851.175,387.35999,
2848.264,375.62016,
2845.353,376.77993,
2842.443,365.51734,
2839.532,371.34889,
2836.622,374.125,
2833.711,372.02139,
2830.801,371.02426,
2827.890,367.4799,
2824.979,374.97697,
2822.069,400.02265,
2819.158,385.04413,
2816.248,378.11342,
2813.337,383.78476,
2810.427,387.81645,
2807.516,386.70781,
2804.605,387.16827,
2801.695,395.69079,
2798.784,371.12092,
2795.874,397.28597,
2792.963,393.62532,
2790.052,382.12908,
2787.142,379.63812,
2784.231,379.38276,
2781.321,379.8107,
2778.410,385.08437,
2775.500,379.21259,
2772.589,389.00956,
2769.678,397.40823,
2766.768,401.63179,
2763.857,396.86296,
2760.947,403.10609,
2758.036,411.13781,
2755.126,390.15493,
2752.215,424.89303,
2749.304,412.3804,
2746.394,404.30037,
2743.483,414.47501,
2740.573,418.44803,
2737.662,422.67826,
2734.751,420.56676,
2731.841,429.04442,
2728.930,410.92157,
2726.020,424.35475,
2723.109,420.37258,
2720.199,431.06558,
2717.288,431.59945,
2714.377,441.79976,
2711.467,441.28874,
2708.556,445.9549,
2705.646,440.43485,
2702.735,450.46005,
2699.825,454.08137,
2696.914,449.64863,
2694.003,440.82255,
2691.093,449.74956,
2688.182,451.10796,
2685.272,450.60295,
2682.361,447.45469,
2679.450,451.8204,
2676.540,451.08435,
2673.629,450.12051,
2670.719,456.62131,
2667.808,454.36818,
2664.898,457.90418,
2661.987,464.09174,
2659.076,472.36207,
2656.166,476.07734,
2653.255,468.27975,
2650.345,468.9417,
2647.434,490.5817,
2644.524,480.30249,
2641.613,477.78182,
2638.702,462.28281,
2635.792,470.75112,
2632.881,474.82717,
2629.971,474.52763,
2627.060,505.29156,
2624.149,495.10002,
2621.239,482.87648,
2618.328,484.14229,
2615.418,505.79773,
2612.507,496.91949,
2609.597,486.76771,
2606.686,503.18928,
2603.775,517.88293,
2600.865,511.125,
2597.954,514.4604,
2595.044,525.08957,
2592.133,525.17588,
2589.223,532.60712,
2586.312,540.61244,
2583.401,532.28921,
2580.491,525.85096,
2577.580,533.12665,
2574.670,537.99932,
2571.759,542.61987,
2568.848,543.88746,
2565.938,539.07745,
2563.027,530.95453,
2560.117,538.57361,
2557.206,547.45341,
2554.296,554.0655,
2551.385,552.44708,
2548.474,543.42091,
2545.564,549.65017,
2542.653,568.03105,
2539.743,553.59419,
2536.832,568.20725,
2533.922,563.26692,
2531.011,570.75012,
2528.100,563.39328,
2525.190,574.35533,
2522.279,563.90565,
2519.369,548.18106,
2516.458,575.79639,
2513.548,565.75249,
2510.637,569.43241,
2507.726,571.31458,
2504.816,567.93785,
2501.905,578.24085,
2498.995,575.03601,
2496.084,598.99256,
2493.173,590.65149,
2490.263,590.33855,
2487.352,587.79273,
2484.442,598.85307,
2481.531,602.34294,
2478.621,604.37615,
2475.710,612.17101,
2472.799,613.68559,
2469.889,609.33554,
2466.978,609.74365,
2464.068,602.2943,
2461.157,616.08748,
2458.247,628.65451,
2455.336,640.78449,
2452.425,613.48818,
2449.515,633.03975,
2446.604,619.53513,
2443.694,627.35774,
2440.783,640.03153,
2437.872,634.08854,
2434.962,639.16647,
2432.051,663.43995,
2429.141,660.44867,
2426.230,642.10287,
2423.320,669.19693,
2420.409,662.11832,
2417.498,674.95364,
2414.588,671.39495,
2411.677,676.58713,
2408.767,663.38976,
2405.856,661.49646,
2402.946,663.33948,
2400.035,687.80342,
2397.124,693.6758,
2394.214,689.4762,
2391.303,685.98137,
2388.393,693.82967,
2385.482,680.87405,
2382.571,697.60579,
2379.661,708.47378,
2376.750,712.96737,
2373.840,695.6532,
2370.929,726.73513,
2368.019,706.29246,
2365.108,727.77683,
2362.197,715.15237,
2359.287,716.7133,
2356.376,709.14085,
2353.466,726.70032,
2350.555,731.54494,
2347.645,733.26937,
2344.734,731.39688,
2341.823,730.125,
2338.913,741.19068,
2336.002,745.38338,
2333.092,750.8835,
2330.181,771.96895,
2327.270,774.29002,
2324.360,760.10851,
2321.449,749.71004,
2318.539,771.97825,
2315.628,774.8736,
2312.718,741.74393,
2309.807,794.69042,
2306.896,778.90435,
2303.986,784.90417,
2301.075,791.69942,
2298.165,785.75935,
2295.254,780.16809,
2292.344,766.27847,
2289.433,781.10954,
2286.522,786.366,
2283.612,801.33547,
2280.701,800.66312,
2277.791,824.96283,
2274.880,797.339,
2271.969,807.02212,
2269.059,816.65633,
2266.148,824.79779,
2263.238,821.92809,
2260.327,816.47014,
2257.417,848.36222,
2254.506,848.31588,
2251.595,843.12866,
2248.685,852.64611,
2245.774,866.13583,
2242.864,830.99533,
2239.953,834.58697,
2237.043,855.07321,
2234.132,843.80818,
2231.221,851.31114,
2228.311,859.99484,
2225.400,868.57533,
2222.490,888.76679,
2219.579,908.09929,
2216.669,908.61308,
2213.758,905.90669,
2210.847,934.56073,
2207.937,921.02079,
2205.026,913.7903,
2202.116,944.56981,
2199.205,931.48712,
2196.294,959.35694,
2193.384,927.52143,
2190.473,971.61562,
2187.563,984.01866,
2184.652,967.99887,
2181.742,1010.5807,
2178.831,1037.9616,
2175.920,1056.3654,
2173.010,1083.9765,
2170.099,1132.7203,
2167.189,1197.4335,
2164.278,1250.3964,
2161.368,1321.5522,
2158.457,1384.4388,
2155.546,1450.7452,
2152.636,1492.6037,
2149.725,1555.7223,
2146.815,1610.59,
2143.904,1652.835,
2140.993,1675.7282,
2138.083,1684.2556,
2135.172,1703.6544,
2132.262,1687.6074,
2129.351,1698.2492,
2126.441,1655.5326,
2123.530,1587.8781,
2120.619,1557.5932,
2117.709,1482.7663,
2114.798,1401.3709,
2111.888,1349.7008,
2108.977,1277.8137,
2106.067,1224.132,
2103.156,1203.9275,
2100.245,1162.1099,
2097.335,1133.7899,
2094.424,1097.338,
2091.514,1075.6895,
2088.603,1063.1757,
2085.692,1066.2625,
2082.782,1064.1772,
2079.871,1057.1962,
2076.961,1064.5438,
2074.050,1022.2583,
2071.140,1058.976,
2068.229,1038.6562,
2065.318,1034.3082,
2062.408,1018.8224,
2059.497,1042.7321,
2056.587,1042.9971,
2053.676,1013.5434,
2050.766,1012.6631,
2047.855,975.85899,
2044.944,1059.1491,
2042.034,999.57594,
2039.123,1019.1654,
2036.213,1024.0094,
2033.302,1032.1901,
2030.391,1030.3964,
2027.481,1027.6128,
2024.570,1029.8107,
2021.660,1030.125,
2018.749,1035.7708,
2015.839,1048.8967,
2012.928,1026.2861,
2010.017,1030.1891,
2007.107,1027.6782,
2004.196,1026.3513,
2001.286,1051.2911,
1998.375,1035.5994,
1995.465,1012.033,
1992.554,1039.5541,
1989.643,1022.8854,
1986.733,1020.0013,
1983.822,1002.241,
1980.912,1005.5599,
1978.001,981.27714,
1975.090,1003.1097,
1972.180,996.09178,
1969.269,987.78594,
1966.359,1014.1793,
1963.448,1034.1607,
1960.538,1040.371,
1957.627,1003.6761,
1954.716,1005.9239,
1951.806,1013.6715,
1948.895,1022.4671,
1945.985,1007.4485,
1943.074,997.61201,
1940.164,992.40347,
1937.253,978.9116,
1934.342,1006.6721,
1931.432,1012.7023,
1928.521,989.74676,
1925.611,985.77426,
1922.700,974.08771,
1919.790,981.32141,
1916.879,979.404,
1913.968,1026.0672,
1911.058,997.09495,
1908.147,946.5017,
1905.237,989.91178,
1902.326,994.75167,
1899.415,985.50061,
1896.505,984.82385,
1893.594,993.94208,
1890.684,982.70025,
1887.773,963.19414,
1884.863,1005.961,
1881.952,1008.7127,
1879.041,995.85553,
1876.131,1007.3407,
1873.220,949.97874,
1870.310,1018.1697,
1867.399,964.10061,
1864.489,1011.463,
1861.578,996.43259,
1858.667,1005.4574,
1855.757,993.69063,
1852.846,1024.8378,
1849.936,1018.5424,
1847.025,1044.2467,
1844.114,1022.5038,
1841.204,1022.9886,
1838.293,1032.1217,
1835.383,1023.195,
1832.472,1023.0207,
1829.562,1033.5966,
1826.651,1065.5274,
1823.740,1061.6537,
1820.830,1048.9517,
1817.919,1030.0231,
1815.009,1056.9494,
1812.098,1085.4636,
1809.188,1057.1716,
1806.277,1075.6602,
1803.366,1048.0733,
1800.456,1101.7069,
1797.545,1061.4157,
1794.635,1074.383,
1791.724,1074.8046,
1788.813,1069.9273,
1785.903,1072.2006,
1782.992,1069.2696,
1780.082,1094.2796,
1777.171,1071.7931,
1774.261,1066.5398,
1771.350,1055.2485,
1768.439,1089.1069,
1765.529,1107.3953,
1762.618,1112.4163,
1759.708,1123.3966,
1756.797,1115.2765,
1753.887,1136.3058,
1750.976,1125.7696,
1748.065,1129.6304,
1745.155,1136.0992,
1742.244,1137.4221,
1739.334,1147.6568,
1736.423,1128.5157,
1733.512,1170.7877,
1730.602,1186.3849,
1727.691,1188.1956,
1724.781,1171.8203,
1721.870,1159.0773,
1718.960,1195.7699,
1716.049,1242.7178,
1713.138,1221.9101,
1710.228,1259.7696,
1707.317,1223.6656,
1704.407,1241.4833,
1701.496,1255.0636,
1698.586,1244.1132,
1695.675,1222.5394,
1692.764,1251.4201,
1689.854,1322.9636,
1686.943,1273.9462,
1684.033,1291.6283,
1681.122,1308.8361,
1678.211,1311.106,
1675.301,1378.9153,
1672.390,1374.2626,
1669.480,1419.9485,
1666.569,1397.9726,
1663.659,1386.958,
1660.748,1438.0891,
1657.837,1488.2841,
1654.927,1540.1719,
1652.016,1541.5661,
1649.106,1521.2793,
1646.195,1605.3507,
1643.285,1535.4037,
1640.374,1632.1842,
1637.463,1589.35,
1634.553,1656.524,
1631.642,1683.5919,
1628.732,1726.5635,
1625.821,1800.1845,
1622.911,1890.6122,
1620.000,2033.3108,
1617.089,2068.4484,
1614.179,2251.8232,
1611.268,2286.9725,
1608.358,2456.8373,
1605.447,2576.383,
1602.536,2655.8122,
1599.626,2685.0433,
1596.715,2662.6198,
1593.805,2623.4574,
1590.894,2614.7216,
1587.984,2652.2331,
1585.073,2622.3907,
1582.162,2534.3062,
1579.252,2547.5838,
1576.341,2526.8888,
1573.431,2509.9437,
1570.520,2477.3143,
1567.610,2482.2821,
1564.699,2422.5973,
1561.788,2413.6178,
1558.878,2353.897,
1555.967,2352.8549,
1553.057,2316.4531,
1550.146,2240.4197,
1547.235,2209.9443,
1544.325,2194.9867,
1541.414,2180.8847,
1538.504,2161.6833,
1535.593,2123.7269,
1532.683,2089.5589,
1529.772,2064.1877,
1526.861,2020.169,
1523.951,1978.2614,
1521.040,1979.5784,
1518.130,1981.5817,
1515.219,1969.0849,
1512.309,1964.2151,
1509.398,1936.7029,
1506.487,1945.7628,
1503.577,1936.9243,
1500.666,1891.8792,
1497.756,1865.8199,
1494.845,1862.4052,
1491.934,1869.0211,
1489.024,1837.2588,
1486.113,1823.144,
1483.203,1821.2368,
1480.292,1735.4253,
1477.382,1746.7972,
1474.471,1758.4967,
1471.560,1724.5674,
1468.650,1716.5912,
1465.739,1715.2821,
1462.829,1651.056,
1459.918,1661.6116,
1457.008,1688.3863,
1454.097,1705.9382,
1451.186,1722.5002,
1448.276,1685.1146,
1445.365,1651.5855,
1442.455,1614.3246,
1439.544,1658.5592,
1436.633,1728.4348,
1433.723,1685.7692,
1430.812,1645.7057,
1427.902,1701.4563,
1424.991,1631.3219,
1422.081,1636.4648,
1419.170,1583.5533,
1416.259,1567.8344,
1413.349,1568.3907,
1410.438,1565.6261,
1407.528,1535.1566,
1404.617,1552.0042,
1401.707,1567.7058,
1398.796,1546.0201,
1395.885,1539.4597,
1392.975,1570.0632,
1390.064,1575.5803,
1387.154,1516.7884,
1384.243,1496.1916,
1381.332,1439.8796,
1378.422,1493.564,
1375.511,1637.8282,
1372.601,1650.2623,
1369.690,1815.7117,
1366.780,1784.5144,
1363.869,1827.9696,
1360.958,1897.0004,
1358.048,1897.9858,
1355.137,1928.3852,
1352.227,2020.4521,
1349.316,2098.4,
1346.406,2131.9147,
1343.495,2153.8341,
1340.584,2194.6603,
1337.674,2230.4163,
1334.763,2316.7248,
1331.853,2332.4878,
1328.942,2398.9453,
1326.032,2422.6218,
1323.121,2460.9503,
1320.210,2426.5105,
1317.300,2454.4752,
1314.389,2487.0416,
1311.479,2516.018,
1308.568,2557.125,
1305.657,2558.2488,
1302.747,2577.9068,
1299.836,2654.5674,
1296.926,2733.8252,
1294.015,2834.9508,
1291.105,2839.125,
1288.194,2928.5842,
1285.283,3014.1333,
1282.373,3037.2266,
1279.462,3104.2021,
1276.552,3148.0462,
1273.641,3163.7343,
1270.731,3199.1877,
1267.820,3170.4101,
1264.909,3182.1473,
1261.999,3203.7588,
1259.088,3193.7255,
1256.178,3208.5412,
1253.267,3192.7123,
1250.356,3086.2142,
1247.446,2992.947,
1244.535,2953.1965,
1241.625,2923.7288,
1238.714,2864.1024,
1235.804,2793.1687,
1232.893,2758.1296,
1229.982,2735.2238,
1227.072,2679.0945,
1224.161,2646.5479,
1221.251,2623.2568,
1218.340,2562.061,
1215.430,2508.452,
1212.519,2495.9164,
1209.608,2479.6731,
1206.698,2457.849,
1203.787,2522.723,
1200.877,2516.4066,
1197.966,2537.0872,
1195.055,2599.5589,
1192.145,2631.914,
1189.234,2725.4144,
1186.324,2803.7644,
1183.413,2812.46,
1180.503,2799.9054,
1177.592,2810.0642,
1174.681,2771.8887,
1171.771,2715.0838,
1168.860,2713.2976,
1165.950,2663.1351,
1163.039,2632.2681,
1160.129,2620.5859,
1157.218,2609.4718,
1154.307,2605.6904,
1151.397,2609.3901,
1148.486,2578.7388,
1145.576,2499.0909,
1142.665,2544.3745,
1139.754,2496.8664,
1136.844,2474.6205,
1133.933,2464.8464,
1131.023,2476.2321,
1128.112,2463.1293,
1125.202,2419.9945,
1122.291,2456.3811,
1119.380,2472.3069,
1116.470,2490.84,
1113.559,2506.2702,
1110.649,2531.7349,
1107.738,2529.1937,
1104.828,2512.5479,
1101.917,2510.8589,
1099.006,2526.1558,
1096.096,2543.1899,
1093.185,2511.5818,
1090.275,2522.8826,
1087.364,2507.5997,
1084.453,2500.8124,
1081.543,2496.4281,
1078.632,2495.0795,
1075.722,2508.8772,
1072.811,2511.7527,
1069.901,2506.5131,
1066.990,2566.7499,
1064.079,2602.9014,
1061.169,2608.7066,
1058.258,2635.1925,
1055.348,2665.5425,
1052.437,2654.392,
1049.527,2726.9907,
1046.616,2723.5154,
1043.705,2723.8958,
1040.795,2737.5336,
1037.884,2744.1135,
1034.974,2763.6082,
1032.063,2780.9564,
1029.153,2734.0185,
1026.242,2799.7552,
1023.331,2801.2917,
1020.421,2761.3902,
1017.510,2774.9402,
1014.600,2840.9951,
1011.689,2891.5684,
1008.778,2880.8428,
1005.868,2915.2988,
1002.957,3046.0726,
1000.047,3168.773,
997.136,3227.6814,
994.226,3280.0475,
991.315,3301.2463,
988.404,3233.6942,
985.494,3189.3386,
982.583,3154.2198,
979.673,3120.5908,
976.762,3121.867,
973.852,3112.0026,
970.941,3089.125,
968.030,3088.9747,
965.120,3088.1465,
962.209,3093.2617,
959.299,3123.1632,
956.388,3116.6462,
953.477,3116.922,
950.567,3144.1377,
947.656,3156.8914,
944.746,3124.6083,
941.835,3171.7138,
938.925,3163.3835,
936.014,3128.3395,
933.103,3122.1328,
930.193,3138.3454,
927.282,3073.004,
924.372,3107.6738,
921.461,3051.0038,
918.551,3042.4865,
915.640,3002.4066,
912.729,2946.6643,
909.819,2972.4536,
906.908,2929.4899,
903.998,2931.8972,
901.087,2968.7693,
898.176,3004.3952,
895.266,3018.5858,
892.355,3026.318,
889.445,3096.8165,
886.534,3085.4368,
883.624,3129.5504,
880.713,3141.4075,
877.802,3132.5146,
874.892,3141.9273,
871.981,3172.6577,
869.071,3195.2138,
866.160,3174.9764,
863.250,3189.8109,
860.339,3192.7205,
857.428,3149.8118,
854.518,3123.4139,
851.607,3133.3987,
848.697,3118.6174,
845.786,3103.8595,
842.875,3107.2619,
839.965,3127.7416,
837.054,3135.5344,
834.144,3171.9995,
831.233,3157.1266,
828.323,3149.0924,
825.412,3141.1783,
822.501,3109.7844,
819.591,3063.506,
816.680,3068.5353,
813.770,3042.5589,
810.859,2984.6109,
807.949,2928.6128,
805.038,2914.7223,
802.127,2919.6611,
799.217,2955.9038,
796.306,2917.0435,
793.396,2876.5677,
790.485,2876.8625,
787.574,2888.0591,
784.664,2912.6625,
781.753,2909.7442,
778.843,2913.4762,
775.932,2918.9645,
773.022,2918.5629,
770.111,2947.1782,
767.200,2934.6601,
764.290,2915.6781,
761.379,2923.6368,
758.469,2941.2431,
755.558,2899.3227,
752.648,2872.4408,
749.737,2842.319,
746.826,2824.929,
743.916,2803.0923,
741.005,2740.5089,
738.095,2575.6979,
735.184,2417.4034,
732.274,2403.145,
729.363,2500.3103,
726.452,2643.9752,
723.542,2781.5721,
720.631,2864.8144,
717.721,2908.1746,
714.810,2907.8978,
711.899,2880.1151,
708.989,2867.2043,
706.078,2891.1641,
703.168,2864.3351,
700.257,2829.0976,
697.347,2815.6461,
694.436,2838.5576,
691.525,2817.6587,
688.615,2808.7226,
685.704,2809.5785,
682.794,2821.1462,
679.883,2844.5936,
676.973,2855.0114,
674.062,2824.5828,
671.151,2828.9182,
668.241,2867.4167,
665.330,2895.1586,
662.420,2853.6245,
659.509,2876.8716,
656.598,2893.394,
653.688,2885.604,
650.777,2867.7461,
647.867,2886.0616,
644.956,2855.4526,
642.046,2847.8067,
639.135,2865.0289,
636.224,2857.2444,
633.314,2881.0625,
630.403,2895.4019,
627.493,2891.9072,
624.582,2878.7141,
621.672,2885.8421,
618.761,2899.8039,
615.850,2937.1843,
612.940,2978.1279,
610.029,2998.4174,
607.119,2958.1462,
604.208,3019.4462,
601.297,3031.1695,
598.387,3007.526,
595.476,2988.2048,
592.566,3010.2427,
589.655,3048.4632,
586.745,3048.4644,
583.834,3010.95,
580.923,2964.0207,
578.013,2946.7566,
575.102,2910.0041,
572.192,2890.0551,
569.281,2900.0776,
566.371,2916.5127,
563.460,2977.3843,
560.549,3026.0017,
557.639,3034.4741,
554.728,2989.2728,
551.818,2991.6138,
548.907,3025.6427,
545.996,3042.8483,
543.086,3040.4868,
540.175,3060.7316,
537.265,3091.0962,
534.354,3073.0269,
531.444,3065.5817,
528.533,3119.0281,
525.622,3089.5421,
522.712,3134.0923,
519.801,3162.5424,
516.891,3164.2023,
513.980,3209.1115,
511.070,3224.3946,
508.159,3255.8687,
505.248,3303.1511,
502.338,3358.6613,
499.427,3411.1458,
496.517,3469.8118,
493.606,3485.2815,
490.695,3454.1161,
487.785,3497.2244,
484.874,3487.3232,
481.964,3476.4639,
479.053,3464.5644,
476.143,3424.6303,
473.232,3470.325,
470.321,3469.1754,
467.411,3447.6185,
464.500,3446.8038,
461.590,3473.6047,
458.679,3496.5332,
455.769,3499.6731,
452.858,3475.0687,
449.947,3436.1082,
447.037,3484.5537,
444.126,3518.9068,
441.216,3518.0353,
438.305,3534.7978,
435.395,3548.2708,
432.484,3564.9606,
429.573,3576.22,
426.663,3559.4969,
423.752,3551.8482,
420.842,3534.511,
417.931,3528.9758,
415.020,3570.6855,
412.110,3641.6282,
409.199,3668.103,
406.289,3680.686,
403.378,3715.9278,
400.468,3657.7162,
397.557,3663.8042,
394.646,3687.125,
391.736,3684.2035,
388.825,3592.9415,
385.915,3554.4167,
383.004,3560.6865,
380.094,3607.154,
377.183,3705.7284,
374.272,3760.8068,
371.362,3783.5363,
368.451,3784.9972,
365.541,3832.281,
362.630,3855.5036,
359.719,3851.6944,
356.809,3825.0248,
353.898,3872.9479,
350.988,3905.6545,
348.077,3929.0948,
345.167,3945.5195,
342.256,3933.5664,
339.345,3893.9876,
336.435,3871.2855,
333.524,3896.2759,
330.614,3932.7885,
327.703,3920.5084,
324.793,3902.2497,
321.882,3914.1737,
318.971,3934.2466,
316.061,3963.5874,
313.150,3986.894,
310.240,3986.1519,
307.329,4044.7252,
304.418,4056.2702,
301.508,4040.1558,
298.597,4032.7516,
295.687,3991.4906,
292.776,4000.0418,
289.866,4073.844,
286.955,4238.5798,
284.044,4346.2474,
281.134,4454.0008,
278.223,4560.4841,
275.313,4603.9585,
272.402,4725.2393,
269.492,4827.3541,
266.581,4871.8638,
263.670,4854.2195,
260.760,4946.8107,
257.849,5033.5587,
254.939,5026.2199,
252.028,5063.7649,
249.117,5072.6431,
246.207,5065.5568,
243.296,5063.3607,
240.386,5080.1028,
237.475,5085.2831,
234.565,5073.4883,
231.654,5037.6995,
228.743,4970.8621,
225.833,4939.3209,
222.922,4963.6597,
220.012,4889.347,
217.101,4848.9314,
214.191,4825.1311,
211.280,4801.8523,
208.369,4812.2356,
205.459,4797.7632,
202.548,4778.281,
199.638,4842.8638,
196.727,4916.6277,
193.816,4927.7115,
190.906,4851.3186,
187.995,4885.3477,
185.085,4912.2564,
182.174,4918.3514,
179.264,4878.5993,
176.353,4846.5715,
173.442,4872.4566,
170.532,4940.3366,
167.621,4899.241,
164.711,4821.3779,
161.800,4685.6753,
158.890,4464.7189,
155.979,4193.2498,
153.068,3830.961,
150.158,3398.8594,
147.247,2962.3444,
144.337,2425.7052,
141.426,1886.6488,
138.516,1389.8432,
135.605,988.38519,
132.694,675.94205,
129.784,444.13609,
126.873,295.38909,
123.963,203.66543,
121.052,138.42791,
118.141,91.310379,
115.231,79.045304,
112.320,67.770461,
109.410,59.670421,
106.499,62.519042,
103.589,50.799402,
100.678,39.223648,
97.767,34.247085,
94.857,32.739022,
91.946,32.125,
89.036,32.576592,
86.125,35.413413,
83.215,30.284876,
80.304,26.082731,
77.393,28.91541,
74.483,21.918515,
71.572,15.950887,
68.662,11.986465,
65.751,10.573563,
62.840,10.125,
59.930,11.248717,
57.019,15.479209,
54.109,17.916483,
51.198,15.807298,
48.288,8.1589747,
45.377,12.379243,
42.466,12.476123,
39.556,9.31917,
36.645,4.4038384,
33.735,4.1634969,
30.824,3.5787912,
27.914,-1.3294355,
25.003,5.5966497,
22.092,8.5104772,
19.182,4.5529284,
16.271,-12.934325,
13.361,-34.204571,
10.450,-106.87868,
7.539,-414.83576,
4.629,-728.77021,
1.718,-987.85879,
-1.192,-1118.2248,
-4.103,-758.11992,
-7.013,-357.99946,
-9.924,1.125,
