,PL681F~1,
Wavenumbers [1/cm],Intensity,
3014.167,0,
3011.256,2.3499678,
3008.346,104.69167,
3005.435,101.27209,
3002.525,117.37752,
2999.614,126.51561,
2996.704,131.4598,
2993.793,125.87615,
2990.882,124.43512,
2987.972,137.96469,
2985.061,130.1133,
2982.151,148.37481,
2979.240,149.10077,
2976.329,153.26502,
2973.419,163.78485,
2970.508,170.64991,
2967.598,149.38233,
2964.687,160.34307,
2961.777,157.65806,
2958.866,181.34026,
2955.955,169.72345,
2953.045,178.28412,
2950.134,188.24491,
2947.224,189.51244,
2944.313,208.34829,
2941.403,210.86907,
2938.492,208.30895,
2935.581,220.40859,
2932.671,216.32191,
2929.760,228.13846,
2926.850,225.26128,
2923.939,223.40188,
2921.028,225.47656,
2918.118,224.55919,
2915.207,220.94307,
2912.297,226.98307,
2909.386,228.21168,
2906.476,212.84553,
2903.565,253.19557,
2900.654,217.55309,
2897.744,218.01257,
2894.833,219.41236,
2891.923,194.05119,
2889.012,193.66474,
2886.102,184.89866,
2883.191,155.01888,
2880.280,84.74159,
2877.370,-117.93565,
2874.459,-230.6664,
2871.549,-68.748538,
2868.638,106.96282,
2865.727,160.10767,
2862.817,190.58688,
2859.906,194.73503,
2856.996,222.47056,
2854.085,234.28152,
2851.175,234,
2848.264,222.441,
2845.353,231.04313,
2842.443,233.79861,
2839.532,230.34331,
2836.622,231.39323,
2833.711,233.78494,
2830.801,236.30221,
2827.890,245.14863,
2824.979,244.2341,
2822.069,236.18195,
2819.158,245.91913,
2816.248,232.26447,
2813.337,260.23661,
2810.427,229.21349,
2807.516,244.41719,
2804.605,241.06491,
2801.695,255.82895,
2798.784,247.81315,
2795.874,250.15041,
2792.963,232.07117,
2790.052,247.99528,
2787.142,250.06581,
2784.231,259.80589,
2781.321,250.74279,
2778.410,233.6599,
2775.500,245.19034,
2772.589,260.11544,
2769.678,260.53584,
2766.768,250.26018,
2763.857,263.73796,
2760.947,265.45272,
2758.036,277.48419,
2755.126,273.14103,
2752.215,269.4908,
2749.304,255.02159,
2746.394,269.8689,
2743.483,278.65004,
2740.573,271,
2737.662,260.23372,
2734.751,266.32527,
2731.841,271.24359,
2728.930,267.26685,
2726.020,277.55093,
2723.109,266.90733,
2720.199,288.90323,
2717.288,271.28102,
2714.377,285.54558,
2711.467,296.63956,
2708.556,290.64884,
2705.646,299.07044,
2702.735,299.32474,
2699.825,291.97819,
2696.914,304.33365,
2694.003,303.48618,
2691.093,298.66065,
2688.182,305.40074,
2685.272,302.60171,
2682.361,296.02948,
2679.450,303.61724,
2676.540,289.34551,
2673.629,300.69061,
2670.719,302.20426,
2667.808,310.90273,
2664.898,315.06518,
2661.987,300.43332,
2659.076,305.23707,
2656.166,306.95234,
2653.255,328.03232,
2650.345,318.26316,
2647.434,309.14347,
2644.524,338.94967,
2641.613,351.37146,
2638.702,329.36296,
2635.792,327.9362,
2632.881,329.9168,
2629.971,331.8524,
2627.060,328.83032,
2624.149,344.27189,
2621.239,331.74555,
2618.328,338.40658,
2615.418,327.98637,
2612.507,337.72331,
2609.597,337.27545,
2606.686,340.06428,
2603.775,354.27777,
2600.865,346.23549,
2597.954,346.76663,
2595.044,354.73162,
2592.133,351.61795,
2589.223,363.4579,
2586.312,362.48744,
2583.401,355.51093,
2580.491,352.17788,
2577.580,341.02641,
2574.670,355.89305,
2571.759,360.15667,
2568.848,358.59112,
2565.938,382.14278,
2563.027,383.85233,
2560.117,362.28036,
2557.206,365.32841,
2554.296,371.91075,
2551.385,364.44607,
2548.474,383.85205,
2545.564,383.15828,
2542.653,395.30537,
2539.743,389.04929,
2536.832,376.69345,
2533.922,393.29962,
2531.011,411.17507,
2528.100,401.53656,
2525.190,407.64918,
2522.279,378.50074,
2519.369,405.98131,
2516.458,386.76912,
2513.548,398.84515,
2510.637,401.16817,
2507.726,414.0037,
2504.816,399.06201,
2501.905,404.11585,
2498.995,399.47775,
2496.084,404.85365,
2493.173,394.47351,
2490.263,414.72998,
2487.352,438.2488,
2484.442,421,
2481.531,423.10636,
2478.621,421.16112,
2475.710,445.99233,
2472.799,439.57405,
2469.889,429.30195,
2466.978,425.897,
2464.068,426.78838,
2461.157,434.8075,
2458.247,432.72057,
2455.336,435.61644,
2452.425,436.21698,
2449.515,465.89604,
2446.604,452.00695,
2443.694,443.90708,
2440.783,440.33221,
2437.872,447.52596,
2434.962,439.20276,
2432.051,455.38897,
2429.141,469.25282,
2426.230,471.13038,
2423.320,468.11453,
2420.409,456.86541,
2417.498,474.14609,
2414.588,477.19016,
2411.677,468.60959,
2408.767,486.01181,
2405.856,496.50472,
2402.946,475.56479,
2400.035,479.98123,
2397.124,479.89839,
2394.214,489.5952,
2391.303,488.56911,
2388.393,471.05579,
2385.482,447.88124,
2382.571,411.59408,
2379.661,445.95338,
2376.750,469.31273,
2373.840,494.68743,
2370.929,508.8917,
2368.019,512.72354,
2365.108,511.25393,
2362.197,510.88759,
2359.287,503.5883,
2356.376,516.97887,
2353.466,524.69873,
2350.555,495.44487,
2347.645,503.02515,
2344.734,514.36406,
2341.823,501.23217,
2338.913,519.53284,
2336.002,531.64106,
2333.092,532.79337,
2330.181,536.84395,
2327.270,540.11001,
2324.360,549.61319,
2321.449,556.12244,
2318.539,561.78902,
2315.628,548.4972,
2312.718,550.24891,
2309.807,572.11193,
2306.896,557.98435,
2303.986,559.39617,
2301.075,564.68087,
2298.165,570.77901,
2295.254,537.77555,
2292.344,575.26139,
2289.433,577.63318,
2286.522,579.78116,
2283.612,592.76021,
2280.701,583.61437,
2277.791,591.43895,
2274.880,576.07404,
2271.969,584.47326,
2269.059,594.47682,
2266.148,572.78631,
2263.238,582.4942,
2260.327,623.1723,
2257.417,616.27,
2254.506,630,
2251.595,607.16377,
2248.685,608.4134,
2245.774,613.19783,
2242.864,610.90772,
2239.953,619.90352,
2237.043,602.88286,
2234.132,610.11423,
2231.221,629.23777,
2228.311,646.91751,
2225.400,650.97185,
2222.490,652.04239,
2219.579,662.36762,
2216.669,661.51669,
2213.758,648.86796,
2210.847,660.12089,
2207.937,667.83713,
2205.026,676.66618,
2202.116,688.68896,
2199.205,687.8873,
2196.294,681.88403,
2193.384,688.92052,
2190.473,685.5622,
2187.563,724.96617,
2184.652,719.65673,
2181.742,718.06683,
2178.831,704.31134,
2175.920,726.99454,
2173.010,772.60317,
2170.099,769.80208,
2167.189,770.09328,
2164.278,784.17387,
2161.368,792.99976,
2158.457,793.3401,
2155.546,812.22601,
2152.636,847.32974,
2149.725,841.51679,
2146.815,852.53284,
2143.904,860.71373,
2140.993,890.74078,
2138.083,889.11849,
2135.172,908.47061,
2132.262,904.48944,
2129.351,892.44823,
2126.441,886.46601,
2123.530,843.20203,
2120.619,856.18369,
2117.709,824.15419,
2114.798,818.61153,
2111.888,799.03833,
2108.977,787.99338,
2106.067,773.79893,
2103.156,786.47654,
2100.245,754.99561,
2097.335,747.87958,
2094.424,750.11154,
2091.514,760,
2088.603,764.74652,
2085.692,772.3643,
2082.782,771.87953,
2079.871,766.89265,
2076.961,751.96867,
2074.050,759.46667,
2071.140,750.28725,
2068.229,758.63281,
2065.318,764.531,
2062.408,776.84871,
2059.497,790.60715,
2056.587,765.33766,
2053.676,765.43263,
2050.766,768,
2047.855,751.68673,
2044.944,740.46795,
2042.034,740.55496,
2039.123,755.40067,
2036.213,768.19114,
2033.302,781.4347,
2030.391,780.20355,
2027.481,780.71948,
2024.570,793.79969,
2021.660,784.70955,
2018.749,779.05024,
2015.839,758.36286,
2012.928,776.55201,
2010.017,771.8176,
2007.107,789.76823,
2004.196,786.29759,
2001.286,789.48054,
1998.375,756.63975,
1995.465,760.23839,
1992.554,783.52926,
1989.643,739.65906,
1986.733,778.98333,
1983.822,767.20679,
1980.912,793.84068,
1978.001,754.43228,
1975.090,760.16489,
1972.180,769.17288,
1969.269,772.49141,
1966.359,766.02686,
1963.448,769.22722,
1960.538,801.40284,
1957.627,764.30956,
1954.716,738.60326,
1951.806,755.95032,
1948.895,750.28145,
1945.985,729.64216,
1943.074,760.69764,
1940.164,739.29842,
1937.253,743.32659,
1934.342,729.14545,
1931.432,761.00947,
1928.521,764.85665,
1925.611,749.46765,
1922.700,742.62569,
1919.790,720.46845,
1916.879,730.02351,
1913.968,723.00984,
1911.058,767.6036,
1908.147,759.07735,
1905.237,737.02204,
1902.326,724.20889,
1899.415,703.62924,
1896.505,656.99387,
1893.594,677.52452,
1890.684,730.87574,
1887.773,736.80186,
1884.863,748.94533,
1881.952,767.7649,
1879.041,765.19159,
1876.131,734.49674,
1873.220,748.92044,
1870.310,806.76672,
1867.399,767.70372,
1864.489,748.75246,
1861.578,787.61023,
1858.667,745,
1855.757,744.60143,
1852.846,749.53331,
1849.936,764.16317,
1847.025,755.11679,
1844.114,779.92242,
1841.204,815.05944,
1838.293,827.9867,
1835.383,826.16301,
1832.472,840.53565,
1829.562,839.39114,
1826.651,820.42712,
1823.740,829.10347,
1820.830,809.30687,
1817.919,811.77252,
1815.009,801.15649,
1812.098,840.29131,
1809.188,846.87596,
1806.277,808.86314,
1803.366,779.366,
1800.456,801.65949,
1797.545,815.85801,
1794.635,845.16102,
1791.724,853.66019,
1788.813,860.00386,
1785.903,857.93033,
1782.992,801.80623,
1780.082,741.76492,
1777.171,616.9732,
1774.261,548.75564,
1771.350,681.56703,
1768.439,828.94022,
1765.529,865.27221,
1762.618,881.80816,
1759.708,859.57565,
1756.797,868.02273,
1753.887,905.3586,
1750.976,916.33115,
1748.065,915.94009,
1745.155,900.05813,
1742.244,896.98641,
1739.334,901.42353,
1736.423,938.32705,
1733.512,933.3536,
1730.602,946.19646,
1727.691,953,
1724.781,970.30468,
1721.870,955.6856,
1718.960,972.37804,
1716.049,970.2882,
1713.138,949.3351,
1710.228,998.21782,
1707.317,984.77029,
1704.407,968.52404,
1701.496,999.81572,
1698.586,965.11664,
1695.675,1028.4353,
1692.764,1010.2787,
1689.854,971.68895,
1686.943,997.05568,
1684.033,1043.8327,
1681.122,1016.4928,
1678.211,1044.724,
1675.301,1089.8612,
1672.390,1051.9192,
1669.480,1025.7059,
1666.569,1114.003,
1663.659,1191.5917,
1660.748,1167.1157,
1657.837,1174.006,
1654.927,1219.2811,
1652.016,1231.8505,
1649.106,1265.7307,
1646.195,1255.4795,
1643.285,1275.5697,
1640.374,1300.4181,
1637.463,1320.7206,
1634.553,1360.9753,
1631.642,1426.4017,
1628.732,1463.2666,
1625.821,1508.0491,
1622.911,1582.5774,
1620.000,1682.7275,
1617.089,1768.2886,
1614.179,1909.9391,
1611.268,1976.5834,
1608.358,2071.4582,
1605.447,2133.5148,
1602.536,2219.938,
1599.626,2224.1601,
1596.715,2253.9508,
1593.805,2171.1441,
1590.894,2116.0858,
1587.984,2133.3845,
1585.073,2018.7365,
1582.162,1984.6418,
1579.252,1943.5398,
1576.341,1919.7798,
1573.431,1885.4562,
1570.520,1851.7756,
1567.610,1864.118,
1564.699,1833.2985,
1561.788,1809.8452,
1558.878,1814.1932,
1555.967,1747.9695,
1553.057,1698.6036,
1550.146,1667.0328,
1547.235,1640.1935,
1544.325,1693.0774,
1541.414,1705.9764,
1538.504,1680.5966,
1535.593,1664.0365,
1532.683,1648.9721,
1529.772,1657.725,
1526.861,1662.0116,
1523.951,1665,
1521.040,1648.5566,
1518.130,1632.8909,
1515.219,1672.7596,
1512.309,1673.1081,
1509.398,1643.4448,
1506.487,1663.1971,
1503.577,1643.7957,
1500.666,1633.7981,
1497.756,1656.2288,
1494.845,1657.7193,
1491.934,1626.9024,
1489.024,1597.0651,
1486.113,1633.0886,
1483.203,1602.2496,
1480.292,1544.5438,
1477.382,1581.0701,
1474.471,1519.8664,
1471.560,1504.531,
1468.650,1497.4342,
1465.739,1514.7767,
1462.829,1569.9709,
1459.918,1573.5854,
1457.008,1556.5539,
1454.097,1567.8567,
1451.186,1580.3269,
1448.276,1557.6963,
1445.365,1500.391,
1442.455,1475.2668,
1439.544,1475.852,
1436.633,1489.5422,
1433.723,1428.9909,
1430.812,1449.4828,
1427.902,1442.549,
1424.991,1423.5938,
1422.081,1451.4418,
1419.170,1429.8063,
1416.259,1437.3409,
1413.349,1441.5105,
1410.438,1417.5077,
1407.528,1383.1816,
1404.617,1387.6138,
1401.707,1343.2964,
1398.796,1276.007,
1395.885,1270.2285,
1392.975,1263.1448,
1390.064,1231.8927,
1387.154,1255.0457,
1384.243,1197.3777,
1381.332,1158.4346,
1378.422,1178.5797,
1375.511,1189.821,
1372.601,1321.7846,
1369.690,1316.7128,
1366.780,1363.8982,
1363.869,1398.7943,
1360.958,1415.5828,
1358.048,1425.9331,
1355.137,1499.916,
1352.227,1549.2744,
1349.316,1578.1042,
1346.406,1643.891,
1343.495,1620.7926,
1340.584,1596.3206,
1337.674,1656.3232,
1334.763,1684.4234,
1331.853,1695.5502,
1328.942,1693.3316,
1326.032,1747.6466,
1323.121,1712.5783,
1320.210,1764.5898,
1317.300,1813.7558,
1314.389,1869.2231,
1311.479,1902.8253,
1308.568,1900.6982,
1305.657,1922.2144,
1302.747,1956.0497,
1299.836,2051.0541,
1296.926,2083.5892,
1294.015,2160.8124,
1291.105,2175.447,
1288.194,2268.8554,
1285.283,2263.3599,
1282.373,2252.6328,
1279.462,2279.3524,
1276.552,2292.1732,
1273.641,2282.3796,
1270.731,2277.4134,
1267.820,2272.3096,
1264.909,2303.6373,
1261.999,2299.4355,
1259.088,2256.5658,
1256.178,2259.9952,
1253.267,2236.4497,
1250.356,2193.7828,
1247.446,2189.908,
1244.535,2172.2411,
1241.625,2140.963,
1238.714,2135,
1235.804,2123.8593,
1232.893,2087.9938,
1229.982,2116.2146,
1227.072,2122.5518,
1224.161,2101.9874,
1221.251,2066.7306,
1218.340,1995.7535,
1215.430,1992.7289,
1212.519,1999.3424,
1209.608,1959.9268,
1206.698,1932.3618,
1203.787,1948.7789,
1200.877,1954.0587,
1197.966,1971.1427,
1195.055,2016.3689,
1192.145,2099.1343,
1189.234,2151.2493,
1186.324,2199.2759,
1183.413,2248.6396,
1180.503,2282.7451,
1177.592,2282.0603,
1174.681,2234.8596,
1171.771,2225.5988,
1168.860,2164.8688,
1165.950,2163.0314,
1163.039,2157.016,
1160.129,2153.4101,
1157.218,2194.824,
1154.307,2252.2438,
1151.397,2269.6112,
1148.486,2263.147,
1145.576,2281.1927,
1142.665,2285.6323,
1139.754,2226.6051,
1136.844,2213.7003,
1133.933,2204.6159,
1131.023,2161.1765,
1128.112,2139.9971,
1125.202,2181.7971,
1122.291,2198.7466,
1119.380,2189.9047,
1116.470,2180.1969,
1113.559,2180.5465,
1110.649,2177.7258,
1107.738,2179.2149,
1104.828,2162.0272,
1101.917,2140.5092,
1099.006,2157.5773,
1096.096,2162.1511,
1093.185,2115.6169,
1090.275,2162.1748,
1087.364,2144.4967,
1084.453,2162.498,
1081.543,2172.9769,
1078.632,2154.0598,
1075.722,2160.8388,
1072.811,2198.8138,
1069.901,2196.1941,
1066.990,2213.7833,
1064.079,2232.2908,
1061.169,2215.251,
1058.258,2204.4697,
1055.348,2233.9315,
1052.437,2269.4565,
1049.527,2231,
1046.616,2231,
1043.705,2256.4352,
1040.795,2281.8781,
1037.884,2285.4254,
1034.974,2264.4755,
1032.063,2233.3233,
1029.153,2217.8163,
1026.242,2266.2538,
1023.331,2232.169,
1020.421,2250.7928,
1017.510,2271.5247,
1014.600,2314.9491,
1011.689,2350.0316,
1008.778,2307.083,
1005.868,2261.4942,
1002.957,2316.5569,
1000.047,2434.2,
997.136,2516.7001,
994.226,2520.5696,
991.315,2479.8663,
988.404,2453.974,
985.494,2427.1561,
982.583,2389.4676,
979.673,2369.3671,
976.762,2366.9355,
973.852,2361.4858,
970.941,2353.1855,
968.030,2355.3988,
965.120,2352.1504,
962.209,2387.9571,
959.299,2378.4185,
956.388,2398.3183,
953.477,2414.4787,
950.567,2422.3783,
947.656,2464.7826,
944.746,2478.3755,
941.835,2415.8346,
938.925,2469.4372,
936.014,2481.2262,
933.103,2443.17,
930.193,2414.8015,
927.282,2406.7462,
924.372,2346.7081,
921.461,2343.4184,
918.551,2329.3148,
915.640,2335.8476,
912.729,2359.7316,
909.819,2360.8905,
906.908,2375.2117,
903.998,2357.7066,
901.087,2372.7317,
898.176,2368.7298,
895.266,2370.7265,
892.355,2403.147,
889.445,2361.1837,
886.534,2459.5149,
883.624,2465.5434,
880.713,2461.0414,
877.802,2399.4273,
874.892,2247.4591,
871.981,2098.0285,
869.071,1887.5045,
866.160,1948.9743,
863.250,2114.615,
860.339,2269.3888,
857.428,2348.4261,
854.518,2344.2909,
851.607,2285.214,
848.697,2170.4518,
845.786,2111.5827,
842.875,2161.1223,
839.965,2289.884,
837.054,2367.8094,
834.144,2439.9109,
831.233,2525.3282,
828.323,2530.3365,
825.412,2502.2196,
822.501,2504.8297,
819.591,2481.6905,
816.680,2485.8077,
813.770,2457.5544,
810.859,2413.828,
807.949,2399.3635,
805.038,2434.8451,
802.127,2350.8861,
799.217,2399.6497,
796.306,2402.5404,
793.396,2396.2291,
790.485,2406,
787.574,2405.9377,
784.664,2404.2975,
781.753,2415.4067,
778.843,2441.0934,
775.932,2454.5927,
773.022,2437.7464,
770.111,2436.1112,
767.200,2445.8971,
764.290,2444.9549,
761.379,2456.1792,
758.469,2469.0015,
755.558,2435.3161,
752.648,2445.9059,
749.737,2431.6803,
746.826,2409.4796,
743.916,2392.6039,
741.005,2383.2226,
738.095,2332.0743,
735.184,2237.3326,
732.274,2204.1036,
729.363,2216.4231,
726.452,2257.3187,
723.542,2369.8244,
720.631,2385.1745,
717.721,2420.6522,
714.810,2449.9488,
711.899,2453.6733,
708.989,2435.114,
706.078,2461.443,
703.168,2434.6028,
700.257,2408.4617,
697.347,2418.52,
694.436,2477.5636,
691.525,2461.4875,
688.615,2420.2653,
685.704,2416.5628,
682.794,2451.9999,
679.883,2489.4057,
676.973,2520.6591,
674.062,2502.7529,
671.151,2497.7666,
668.241,2514.4797,
665.330,2529.3907,
662.420,2474.2782,
659.509,2441.4123,
656.598,2424.2398,
653.688,2428.582,
650.777,2463.838,
647.867,2459.06,
644.956,2412.802,
642.046,2340.638,
639.135,2291.8342,
636.224,2344.3064,
633.314,2405.4396,
630.403,2476.5738,
627.493,2491.9555,
624.582,2456.9423,
621.672,2465.6542,
618.761,2469.0398,
615.850,2516.834,
612.940,2575.1505,
610.029,2611.8956,
607.119,2599.2615,
604.208,2624.9805,
601.297,2645.4718,
598.387,2643.8213,
595.476,2616.52,
592.566,2622.0294,
589.655,2602.2675,
586.745,2620.9438,
583.834,2654.2908,
580.923,2633.9905,
578.013,2632.4211,
575.102,2625.6905,
572.192,2610.6388,
569.281,2596.4992,
566.371,2621.5432,
563.460,2631.7602,
560.549,2639.3855,
557.639,2654.474,
554.728,2683.2956,
551.818,2687.9775,
548.907,2693.2659,
545.996,2685.8915,
543.086,2668.9934,
540.175,2664.3215,
537.265,2624.8889,
534.354,2630.0676,
531.444,2646.6561,
528.533,2641.3661,
525.622,2688.6989,
522.712,2659.561,
519.801,2623.6892,
516.891,2604.9654,
513.980,2594.8996,
511.070,2608.0869,
508.159,2620.6859,
505.248,2632.5065,
502.338,2647.0618,
499.427,2683.3379,
496.517,2687.9091,
493.606,2706.8814,
490.695,2749.5394,
487.785,2731.8342,
484.874,2688.2879,
481.964,2646.0666,
479.053,2624.6189,
476.143,2652.2655,
473.232,2634.5761,
470.321,2645.0033,
467.411,2654.3761,
464.500,2627.2994,
461.590,2678.6039,
458.679,2690.7988,
455.769,2686.1644,
452.858,2683.8972,
449.947,2721.3298,
447.037,2688.9538,
444.126,2694.0545,
441.216,2741.5762,
438.305,2710.337,
435.395,2715.8345,
432.484,2690.1603,
429.573,2642.9175,
426.663,2625.4342,
423.752,2340.8479,
420.842,2026.6486,
417.931,1782.8398,
415.020,1725.963,
412.110,2129.3137,
409.199,2444.259,
406.289,2616.0322,
403.378,2609.7106,
400.468,2524.2832,
397.557,2537.1037,
394.646,2600.5878,
391.736,2669.7344,
388.825,2661.4379,
385.915,2650.4849,
383.004,2655.5639,
380.094,2689.265,
377.183,2733.6611,
374.272,2741.6578,
371.362,2763.9008,
368.451,2824.7234,
365.541,2803.7084,
362.630,2812.7485,
359.719,2817.3048,
356.809,2798.8641,
353.898,2796.6177,
350.988,2810.6471,
348.077,2832.2931,
345.167,2854.3945,
342.256,2842.4414,
339.345,2834.2171,
336.435,2825.0033,
333.524,2812.8691,
330.614,2840.4398,
327.703,2850.5402,
324.793,2862.5694,
321.882,2892.9766,
318.971,2883.3118,
316.061,2913.6937,
313.150,2967.7071,
310.240,3027.8185,
307.329,3027.1415,
304.418,3065.212,
301.508,3116.3323,
298.597,3132.6215,
295.687,3123.8414,
292.776,3161.0836,
289.866,3246.6231,
286.955,3372.9451,
284.044,3489.0374,
281.134,3615.6141,
278.223,3743.5925,
275.313,3809.1726,
272.402,3836.3608,
269.492,3838.0787,
266.581,3817.374,
263.670,3766.6466,
260.760,3847.5961,
257.849,3945.2651,
254.939,3974.6204,
252.028,3959.0754,
249.117,3965.3343,
246.207,3992.1223,
243.296,4038.9726,
240.386,4045.306,
237.475,4039.4688,
234.565,4022.7882,
231.654,3983.3474,
228.743,3949.6838,
225.833,3890.4488,
222.922,3797.7282,
220.012,3791.8998,
217.101,3747.3077,
214.191,3687.7008,
211.280,3636.7784,
208.369,3626.2719,
205.459,3591.4592,
202.548,3542.6212,
199.638,3534.639,
196.727,3496.1222,
193.816,3476.2245,
190.906,3489.6733,
187.995,3394.8261,
185.085,3371.4571,
182.174,3370.6388,
179.264,3328.7183,
176.353,3347.068,
173.442,3378.4904,
170.532,3400.1631,
167.621,3307.1572,
164.711,3211.5739,
161.800,3057.5586,
158.890,2792.6989,
155.979,2636.8952,
153.068,2441.8458,
150.158,2198.5987,
147.247,1890.5972,
144.337,1597.2714,
141.426,1281.0216,
138.516,921.14218,
135.605,674.8837,
132.694,473.28435,
129.784,312.00399,
126.873,194.00757,
123.963,133.57951,
121.052,92.402117,
118.141,58.134821,
115.231,53.026008,
112.320,45.492733,
109.410,37.318224,
106.499,33.757448,
103.589,29.078219,
100.678,26,
97.767,26,
94.857,26,
91.946,26,
89.036,24.532327,
86.125,15.312659,
83.215,14.592761,
80.304,14.084539,
77.393,8.419179,
74.483,9.3102699,
71.572,9.2752958,
68.662,8.415605,
65.751,12.654311,
62.840,14.963404,
59.930,14.50171,
57.019,8.8610545,
54.109,6.8056783,
51.198,6.9048278,
48.288,9,
45.377,9,
42.466,6.526684,
39.556,3.5755929,
36.645,7.086544,
33.735,5.9230061,
30.824,3.5582261,
27.914,2.1558756,
25.003,0.13208757,
22.092,0.29161823,
19.182,3.1372972,
16.271,7.334238,
13.361,41.452264,
10.450,68.572485,
7.539,-32.683243,
4.629,-373.95823,
1.718,-758.16172,
-1.192,-1048.871,
-4.103,-838.07085,
-7.013,-472.17685,
-9.924,-1,
