,PLFDDD~1,
Wavenumbers [1/cm],Intensity,
3014.167,-4.125,
3011.256,-0.32504295,
3008.346,92.677312,
3005.435,95.224828,
3002.525,108.11997,
2999.614,116.91528,
2996.704,116.92758,
2993.793,113.11348,
2990.882,127.52382,
2987.972,145.82455,
2985.061,128.33804,
2982.151,147.93721,
2979.240,138.52232,
2976.329,157.38319,
2973.419,151.09015,
2970.508,156.55836,
2967.598,155.91918,
2964.687,148.33696,
2961.777,158.15702,
2958.866,170.54365,
2955.955,180.77543,
2953.045,188.875,
2950.134,179.77877,
2947.224,174.75753,
2944.313,204.875,
2941.403,202.26779,
2938.492,221.0349,
2935.581,217.60631,
2932.671,209.20124,
2929.760,229.64806,
2926.850,226.50921,
2923.939,229.63669,
2921.028,245.45169,
2918.118,242.1546,
2915.207,231.22301,
2912.297,227.86654,
2909.386,229.10857,
2906.476,228.36378,
2903.565,232.08463,
2900.654,220.64044,
2897.744,230.86243,
2894.833,228.22555,
2891.923,224.2532,
2889.012,211.29119,
2886.102,209.25068,
2883.191,193.88727,
2880.280,214.77452,
2877.370,126.03223,
2874.459,40.466155,
2871.549,80.836107,
2868.638,217.11203,
2865.727,204.58653,
2862.817,215.16109,
2859.906,213.74963,
2856.996,234.41802,
2854.085,259.20489,
2851.175,229.35091,
2848.264,236.22316,
2845.353,216.22007,
2842.443,235.46873,
2839.532,219.9199,
2836.622,235.35807,
2833.711,234.76355,
2830.801,229.28529,
2827.890,227.50088,
2824.979,233.80099,
2822.069,234.13656,
2819.158,246.99359,
2816.248,242.82868,
2813.337,242.26647,
2810.427,226.65461,
2807.516,231.03328,
2804.605,244.48798,
2801.695,229.90128,
2798.784,231.69223,
2795.874,231.43963,
2792.963,228.23191,
2790.052,230.87328,
2787.142,240.20404,
2784.231,237.81135,
2781.321,233.30926,
2778.410,229.43971,
2775.500,232.81155,
2772.589,245.14335,
2769.678,243.9432,
2766.768,255.44005,
2763.857,252.03107,
2760.947,238.38446,
2758.036,261.05347,
2755.126,242.58654,
2752.215,252.0023,
2749.304,262.59801,
2746.394,254.33471,
2743.483,255.87495,
2740.573,250.68025,
2737.662,250.875,
2734.751,248.64202,
2731.841,256.68636,
2728.930,259.75215,
2726.020,255.31887,
2723.109,267.28717,
2720.199,267.34699,
2717.288,260.11953,
2714.377,278.32484,
2711.467,269.10467,
2708.556,260.83247,
2705.646,275.08631,
2702.735,279.70232,
2699.825,280.23321,
2696.914,286.06545,
2694.003,299.56281,
2691.093,285.21435,
2688.182,281.52907,
2685.272,298.24627,
2682.361,274.57478,
2679.450,286.29063,
2676.540,271.83435,
2673.629,272.86153,
2670.719,278.23267,
2667.808,282.63182,
2664.898,288.61527,
2661.987,284.47493,
2659.076,287.98491,
2656.166,296.81009,
2653.255,293.80017,
2650.345,304.49932,
2647.434,290.07534,
2644.524,297.08361,
2641.613,310.50417,
2638.702,310.04859,
2635.792,307.68657,
2632.881,302.7502,
2629.971,297.36495,
2627.060,303.54,
2624.149,307.68751,
2621.239,299.88093,
2618.328,307.95977,
2615.418,312.52955,
2612.507,322.21886,
2609.597,316.70135,
2606.686,320.60192,
2603.775,320.35118,
2600.865,324.69417,
2597.954,319.02494,
2595.044,331.3028,
2592.133,319.65854,
2589.223,334.7908,
2586.312,333.72926,
2583.401,332.93703,
2580.491,323.2452,
2577.580,323.8882,
2574.670,330.49131,
2571.759,334.58219,
2568.848,329.35008,
2565.938,343.39898,
2563.027,327.92495,
2560.117,344.41706,
2557.206,345.875,
2554.296,341.70338,
2551.385,342.18901,
2548.474,361.46794,
2545.564,359.19156,
2542.653,368.875,
2539.743,357.02287,
2536.832,351.67126,
2533.922,350.96962,
2531.011,359.89974,
2528.100,354.01433,
2525.190,364.01106,
2522.279,359.875,
2519.369,359.27126,
2516.458,351.20361,
2513.548,362.86567,
2510.637,363.18241,
2507.726,367.25046,
2504.816,363.62472,
2501.905,376.48354,
2498.995,364.71107,
2496.084,375.42202,
2493.173,364.34851,
2490.263,364.66145,
2487.352,377.16553,
2484.442,366.28612,
2481.531,376.71546,
2478.621,366.96502,
2475.710,405.82133,
2472.799,390.48944,
2469.889,374.57031,
2466.978,381.98843,
2464.068,386.62105,
2461.157,409.41009,
2458.247,400.41918,
2455.336,409.19398,
2452.425,392.04479,
2449.515,402.96025,
2446.604,418.9326,
2443.694,416.22367,
2440.783,407.20721,
2437.872,376.96895,
2434.962,407.97638,
2432.051,414.36266,
2429.141,425.55133,
2426.230,407.43959,
2423.320,424.34637,
2420.409,427.2532,
2417.498,432.06321,
2414.588,421.79521,
2411.677,425.94672,
2408.767,426.10433,
2405.856,436.82254,
2402.946,430.91611,
2400.035,414.48063,
2397.124,433.97661,
2394.214,430.7678,
2391.303,435.65955,
2388.393,419.43776,
2385.482,418.69875,
2382.571,405.67204,
2379.661,415.03788,
2376.750,421.92417,
2373.840,426.60003,
2370.929,450.59343,
2368.019,456.10407,
2365.108,460.78076,
2362.197,478.25037,
2359.287,476.2867,
2356.376,471.88028,
2353.466,458.28426,
2350.555,455.08497,
2347.645,461.57168,
2344.734,452.69063,
2341.823,467.55992,
2338.913,474.11829,
2336.002,478.76257,
2333.092,463.358,
2330.181,474.75474,
2327.270,479.98501,
2324.360,482.2783,
2321.449,486.49065,
2318.539,492.93923,
2315.628,484.01848,
2312.718,495.65695,
2309.807,491.94331,
2306.896,491.1113,
2303.986,488.48541,
2301.075,491.25798,
2298.165,494.86546,
2295.254,452.82289,
2292.344,482.07822,
2289.433,505.17227,
2286.522,499.98211,
2283.612,518.36609,
2280.701,532.66422,
2277.791,497.19747,
2274.880,524.38108,
2271.969,514.45113,
2269.059,523.19925,
2266.148,521.875,
2263.238,522.77461,
2260.327,533.08192,
2257.417,534.45167,
2254.506,535.9434,
2251.595,530.60236,
2248.685,533.13264,
2245.774,535.17175,
2242.864,526.82011,
2239.953,550.77852,
2237.043,534.53715,
2234.132,528.12177,
2231.221,542.92935,
2228.311,539.43687,
2225.400,564.79056,
2222.490,562.80336,
2219.579,566.19119,
2216.669,565.87023,
2213.758,561.0044,
2210.847,576.41402,
2207.937,601.01992,
2205.026,592.65196,
2202.116,614.61279,
2199.205,614.69994,
2196.294,620.93299,
2193.384,615.63849,
2190.473,613.59096,
2187.563,662.79283,
2184.652,650.99581,
2181.742,670.41928,
2178.831,657.1085,
2175.920,665.96061,
2173.010,674.02579,
2170.099,671.80903,
2167.189,695.09027,
2164.278,719.29912,
2161.368,699.44491,
2158.457,727.90961,
2155.546,747.97985,
2152.636,750.84845,
2149.725,748.03607,
2146.815,749.84163,
2143.904,766.17611,
2140.993,770.50461,
2138.083,783.1698,
2135.172,802.32042,
2132.262,801.36444,
2129.351,803.67159,
2126.441,782.90406,
2123.530,787.89745,
2120.619,781.20564,
2117.709,728.9845,
2114.798,719.33636,
2111.888,698.46234,
2108.977,698.69619,
2106.067,674.88204,
2103.156,682.8322,
2100.245,618.89006,
2097.335,644.8017,
2094.424,656.24216,
2091.514,645.72982,
2088.603,648.52013,
2085.692,648.7821,
2082.782,654.47734,
2079.871,676.12587,
2076.961,661.16656,
2074.050,651.85682,
2071.140,637.02402,
2068.229,661.97006,
2065.318,654.96125,
2062.408,656.79935,
2059.497,661.27381,
2056.587,658.03784,
2053.676,655.24177,
2050.766,670.56633,
2047.855,645.13131,
2044.944,652.67789,
2042.034,647.48197,
2039.123,665.05682,
2036.213,670.93495,
2033.302,668.91828,
2030.391,663.77374,
2027.481,677.19187,
2024.570,667.17547,
2021.660,650.70281,
2018.749,677.98897,
2015.839,678.58825,
2012.928,659.27768,
2010.017,649.71865,
2007.107,666.89931,
2004.196,666.1964,
2001.286,678.81489,
1998.375,675.17421,
1995.465,638.77054,
1992.554,659.79828,
1989.643,655.18607,
1986.733,627.66096,
1983.822,627.82478,
1980.912,644.35954,
1978.001,622.01044,
1975.090,628.875,
1972.180,640.9428,
1969.269,645.94969,
1966.359,630.14514,
1963.448,631.44964,
1960.538,644.42463,
1957.627,616.55919,
1954.716,608.01863,
1951.806,618.32854,
1948.895,607.23736,
1945.985,607.57271,
1943.074,618.86404,
1940.164,599.45189,
1937.253,599.88798,
1934.342,587.73811,
1931.432,607.6668,
1928.521,597.50885,
1925.611,580.03732,
1922.700,586.41505,
1919.790,582.70743,
1916.879,567.92124,
1913.968,598.83565,
1911.058,609.13927,
1908.147,613.1407,
1905.237,610.50732,
1902.326,598.94017,
1899.415,591.59935,
1896.505,554.40527,
1893.594,566.60668,
1890.684,559.42401,
1887.773,579.93486,
1884.863,619.38753,
1881.952,626.90007,
1879.041,627.65745,
1876.131,626.43186,
1873.220,602.33951,
1870.310,613.72699,
1867.399,590.27484,
1864.489,600.61493,
1861.578,615.41922,
1858.667,583.19535,
1855.757,593.46569,
1852.846,600.10578,
1849.936,591.59572,
1847.025,595.75821,
1844.114,617.62568,
1841.204,666.70017,
1838.293,659.40909,
1835.383,640.5145,
1832.472,662.63152,
1829.562,648.1289,
1826.651,647.60188,
1823.740,645.41138,
1820.830,623.35515,
1817.919,654.52194,
1815.009,624.34447,
1812.098,686.09543,
1809.188,642.28597,
1806.277,618.33977,
1803.366,664.77701,
1800.456,602.9526,
1797.545,658.54862,
1794.635,686.16502,
1791.724,697.35069,
1788.813,706.47063,
1785.903,686.07466,
1782.992,667.36234,
1780.082,664.52324,
1777.171,598.85517,
1774.261,542.03035,
1771.350,596.01576,
1768.439,669.05027,
1765.529,712.87406,
1762.618,713.15564,
1759.708,681.5594,
1756.797,688.98106,
1753.887,717.84876,
1750.976,719.71989,
1748.065,737.54934,
1745.155,740.40406,
1742.244,727.28081,
1739.334,718.45147,
1736.423,762.80017,
1733.512,749.13101,
1730.602,754.07939,
1727.691,789.0461,
1724.781,764.83878,
1721.870,726.9034,
1718.960,809.4983,
1716.049,802.02781,
1713.138,766.09515,
1710.228,770.44827,
1707.317,772.75957,
1704.407,777.36699,
1701.496,793.37131,
1698.586,788.40711,
1695.675,822.49622,
1692.764,804.04712,
1689.854,790.43798,
1686.943,815.96441,
1684.033,834.42795,
1681.122,846.67109,
1678.211,891.44672,
1675.301,885.8935,
1672.390,888.85706,
1669.480,882.85093,
1666.569,880.83989,
1663.659,955.3197,
1660.748,923.93815,
1657.837,1028.7219,
1654.927,1022.203,
1652.016,1035.632,
1649.106,1026.9032,
1646.195,1068.1867,
1643.285,1081.7865,
1640.374,1121.105,
1637.463,1132.9739,
1634.553,1194.1163,
1631.642,1277.6676,
1628.732,1350.2305,
1625.821,1409.93,
1622.911,1493.4016,
1620.000,1544.2325,
1617.089,1687.9695,
1614.179,1771.5343,
1611.268,1853.7892,
1608.358,1976.9753,
1605.447,2040.3898,
1602.536,2094.1969,
1599.626,2136.5122,
1596.715,2145.3206,
1593.805,2102.9471,
1590.894,2091.7103,
1587.984,2070.9549,
1585.073,1997.2572,
1582.162,1943.1307,
1579.252,1889.8684,
1576.341,1884.6814,
1573.431,1857.6807,
1570.520,1784.1386,
1567.610,1781.7576,
1564.699,1734.2228,
1561.788,1722.3256,
1558.878,1669.2057,
1555.967,1623.7157,
1553.057,1573.6858,
1550.146,1498.6388,
1547.235,1491.8494,
1544.325,1514.9648,
1541.414,1497.2727,
1538.504,1489.1511,
1535.593,1498.3881,
1532.683,1487.7683,
1529.772,1498.7309,
1526.861,1510.3679,
1523.951,1490.7021,
1521.040,1513.467,
1518.130,1529.3823,
1515.219,1530.8745,
1512.309,1534.5056,
1509.398,1494.527,
1506.487,1500.9935,
1503.577,1473.2549,
1500.666,1489.853,
1497.756,1468.6211,
1494.845,1500.3141,
1491.934,1462.79,
1489.024,1436.8027,
1486.113,1453.4921,
1483.203,1429.1181,
1480.292,1377.5098,
1477.382,1395.5472,
1474.471,1368.8777,
1471.560,1301.5474,
1468.650,1307.8892,
1465.739,1314.4701,
1462.829,1342.5063,
1459.918,1374.3723,
1457.008,1407.2445,
1454.097,1424.8669,
1451.186,1425.7764,
1448.276,1401.4539,
1445.365,1335.7312,
1442.455,1318.5886,
1439.544,1296.0421,
1436.633,1265.3884,
1433.723,1218.2428,
1430.812,1230.6637,
1427.902,1179.679,
1424.991,1255.5,
1422.081,1172.5496,
1419.170,1221.0389,
1416.259,1246.0763,
1413.349,1221.9311,
1410.438,1223.3717,
1407.528,1182.1693,
1404.617,1151.0037,
1401.707,1098.6504,
1398.796,1044.0743,
1395.885,1039.1428,
1392.975,1038.8328,
1390.064,1026.8815,
1387.154,1042.6969,
1384.243,1010.8741,
1381.332,989.4203,
1378.422,1009.7784,
1375.511,1007.9048,
1372.601,1102.7967,
1369.690,1134.8772,
1366.780,1107.1936,
1363.869,1183.1463,
1360.958,1199.69,
1358.048,1206.7078,
1355.137,1236.851,
1352.227,1269.9731,
1349.316,1292.5409,
1346.406,1319.353,
1343.495,1360.1276,
1340.584,1361.6247,
1337.674,1383.8062,
1334.763,1424.5927,
1331.853,1417.1749,
1328.942,1441.78,
1326.032,1532.1464,
1323.121,1549.6521,
1320.210,1552.2046,
1317.300,1589.2889,
1314.389,1638.0282,
1311.479,1676.1661,
1308.568,1695.5158,
1305.657,1694.0321,
1302.747,1717.1488,
1299.836,1816.3836,
1296.926,1818.3443,
1294.015,1936.0177,
1291.105,1945.2777,
1288.194,1977.8247,
1285.283,2017.3791,
1282.373,2057.0858,
1279.462,2071.228,
1276.552,2090.7806,
1273.641,2114.1158,
1270.731,2113.4631,
1267.820,2113.2131,
1264.909,2103.1274,
1261.999,2074.5768,
1259.088,2039.0041,
1256.178,2054.8606,
1253.267,2015.6792,
1250.356,1979.8484,
1247.446,1984.1299,
1244.535,1965.1429,
1241.625,1914.2862,
1238.714,1892.9045,
1235.804,1906.1032,
1232.893,1880.2525,
1229.982,1868.2004,
1227.072,1848.2835,
1224.161,1895.6242,
1221.251,1834.1466,
1218.340,1763.2325,
1215.430,1734.0213,
1212.519,1718.1977,
1209.608,1707.1275,
1206.698,1709.5132,
1203.787,1696.2117,
1200.877,1709.5437,
1197.966,1720.3336,
1195.055,1790.8414,
1192.145,1856.2204,
1189.234,1912.8025,
1186.324,1979.6976,
1183.413,2034.6567,
1180.503,2059.2476,
1177.592,2052.4,
1174.681,2002.2997,
1171.771,1963.0714,
1168.860,1928.2409,
1165.950,1930.519,
1163.039,1892.066,
1160.129,1903.188,
1157.218,1961.3339,
1154.307,2006.9563,
1151.397,2016.4818,
1148.486,2032.267,
1145.576,2076.5985,
1142.665,2001.1259,
1139.754,2023.352,
1136.844,2011.6671,
1133.933,1973.9632,
1131.023,1957.1239,
1128.112,1954.3761,
1125.202,1941.3581,
1122.291,1945.7578,
1119.380,1965.5285,
1116.470,1930.2274,
1113.559,1915.0495,
1110.649,1911.875,
1107.738,1901.6945,
1104.828,1894.1233,
1101.917,1883.1526,
1099.006,1847.4421,
1096.096,1821.0687,
1093.185,1807.8987,
1090.275,1912.8894,
1087.364,1891.9048,
1084.453,1916.4346,
1081.543,1922.9524,
1078.632,1890.2625,
1075.722,1903.2601,
1072.811,1918.1853,
1069.901,1922.5516,
1066.990,1930.15,
1064.079,1929.1529,
1061.169,1944.444,
1058.258,1949.4053,
1055.348,1941.9904,
1052.437,1946.2994,
1049.527,1918.2107,
1046.616,1926.899,
1043.705,1937.1242,
1040.795,1937.9595,
1037.884,1935.3578,
1034.974,1943.1856,
1032.063,1961.0211,
1029.153,1965.4862,
1026.242,1945.5922,
1023.331,1994.8718,
1020.421,2007.6634,
1017.510,2025.6833,
1014.600,2051.9858,
1011.689,2075.0063,
1008.778,2088.1682,
1005.868,2089.9831,
1002.957,2102.0281,
1000.047,2193.419,
997.136,2235.6849,
994.226,2236.0751,
991.315,2217.6102,
988.404,2185.714,
985.494,2153.1653,
982.583,2121.4728,
979.673,2075.1711,
976.762,2064.5718,
973.852,2061.6869,
970.941,2061.2845,
968.030,2067.3026,
965.120,2002.4013,
962.209,2127.7249,
959.299,2090.0903,
956.388,2089.9535,
953.477,2109.6971,
950.567,2124.9919,
947.656,2163.3153,
944.746,2151.4215,
941.835,2161.4026,
938.925,2136.2369,
936.014,2111.2527,
933.103,2097.3441,
930.193,2090.2757,
927.282,2086.3627,
924.372,2058.4576,
921.461,2047.511,
918.551,2031.5135,
915.640,2009.5516,
912.729,2002.5358,
909.819,2029.3198,
906.908,2032.6895,
903.998,2047.1916,
901.087,2062.9686,
898.176,2072.261,
895.266,2077.7316,
892.355,2086.2309,
889.445,2098.8199,
886.534,2127.2606,
883.624,2122.1097,
880.713,2092.8883,
877.802,2062.5798,
874.892,2033.4319,
871.981,1961.1069,
869.071,1801.5431,
866.160,1784.9144,
863.250,1874.7959,
860.339,1966.5519,
857.428,2007.7971,
854.518,2069.7436,
851.607,2030.6364,
848.697,1988.1085,
845.786,1936.5853,
842.875,1935.3344,
839.965,2007.7055,
837.054,2071.4239,
834.144,2120.3203,
831.233,2172.5386,
828.323,2165.1898,
825.412,2151.6512,
822.501,2181.4494,
819.591,2162.4422,
816.680,2163.4776,
813.770,2132.5499,
810.859,2093.1179,
807.949,2074.2141,
805.038,2087.3905,
802.127,2058.581,
799.217,2039.4764,
796.306,2036.1453,
793.396,2049.9438,
790.485,2062.7682,
787.574,2041.1205,
784.664,2073.925,
781.753,2051.6937,
778.843,2049.637,
775.932,2061.2577,
773.022,2063.6789,
770.111,2088.2063,
767.200,2108.1465,
764.290,2084.9811,
761.379,2059.9363,
758.469,2066.2217,
755.558,2112.0484,
752.648,2084.3518,
749.737,2054.7218,
746.826,2043.7399,
743.916,2049.7841,
741.005,2060.0584,
738.095,2061.6822,
735.184,1936.0245,
732.274,1893.7635,
729.363,1909.2808,
726.452,1936.2536,
723.542,1993.7205,
720.631,2027.4566,
717.721,2055.7789,
714.810,2064.9262,
711.899,2056.6869,
708.989,2055.88,
706.078,2075.1063,
703.168,2050.1212,
700.257,2043.6647,
697.347,2064.0487,
694.436,2071.7222,
691.525,2066.0956,
688.615,2083.1134,
685.704,2093.0116,
682.794,2097.96,
679.883,2119.1005,
676.973,2146.3471,
674.062,2156.9797,
671.151,2152.8617,
668.241,2142.2073,
665.330,2134.4926,
662.420,2084.1725,
659.509,2068.7956,
656.598,2076.6937,
653.688,2096.8561,
650.777,2115.8219,
647.867,2084.7651,
644.956,2084.0665,
642.046,2052.2196,
639.135,2010.2594,
636.224,2041.9108,
633.314,2049.0563,
630.403,2087.5301,
627.493,2103.6572,
624.582,2089.0516,
621.672,2089.8436,
618.761,2088.3551,
615.850,2140.2188,
612.940,2192.0964,
610.029,2211.3217,
607.119,2220.0077,
604.208,2216.6149,
601.297,2248.2757,
598.387,2263.5305,
595.476,2216.1666,
592.566,2198.064,
589.655,2211.0723,
586.745,2228.9883,
583.834,2242.4121,
580.923,2247.9982,
578.013,2268.4013,
575.102,2252.0786,
572.192,2234.0886,
569.281,2233.9682,
566.371,2251.1859,
563.460,2280.3883,
560.549,2295.286,
557.639,2312.3032,
554.728,2349.3677,
551.818,2357.1709,
548.907,2335.1079,
545.996,2327.262,
543.086,2324.9507,
540.175,2260.3231,
537.265,2266.0149,
534.354,2266.8649,
531.444,2266.9402,
528.533,2277.4134,
525.622,2313.107,
522.712,2274.155,
519.801,2236.2374,
516.891,2232.6393,
513.980,2275.9999,
511.070,2248.8837,
508.159,2255.4552,
505.248,2286.1384,
502.338,2312.8132,
499.427,2276.5371,
496.517,2298.5517,
493.606,2329.6048,
490.695,2339.2375,
487.785,2313.0646,
484.874,2323.0919,
481.964,2295.1611,
479.053,2257.7451,
476.143,2311.5024,
473.232,2294.0123,
470.321,2304.8515,
467.411,2313.4783,
464.500,2280.3404,
461.590,2298.7182,
458.679,2296.7212,
455.769,2288.3545,
452.858,2289.4764,
449.947,2352.8827,
447.037,2313.6936,
444.126,2301.3174,
441.216,2342.1082,
438.305,2366.49,
435.395,2355.451,
432.484,2323.2866,
429.573,2291.8925,
426.663,2304.8149,
423.752,2188.0112,
420.842,2034.5773,
417.931,1883.1403,
415.020,1778.4869,
412.110,2033.1344,
409.199,2284.843,
406.289,2425.261,
403.378,2352.7546,
400.468,2317.2229,
397.557,2289.9364,
394.646,2304.7724,
391.736,2386.8891,
388.825,2418.5668,
385.915,2405.5229,
383.004,2369.8846,
380.094,2331.2954,
377.183,2359.137,
374.272,2407.0408,
371.362,2447.9389,
368.451,2464.0999,
365.541,2451.3408,
362.630,2448.4212,
359.719,2443.2516,
356.809,2428.561,
353.898,2406.8459,
350.988,2431.7967,
348.077,2452.3572,
345.167,2438.0425,
342.256,2421.607,
339.345,2435.4751,
336.435,2447.7111,
333.524,2437.4857,
330.614,2456.8597,
327.703,2497.2731,
324.793,2529.1016,
321.882,2527.039,
318.971,2594.6923,
316.061,2612.0152,
313.150,2626.6607,
310.240,2693.4511,
307.329,2753.046,
304.418,2784.5381,
301.508,2804.1304,
298.597,2838.93,
295.687,2855.4198,
292.776,2900.2085,
289.866,2986.2586,
286.955,3139.9135,
284.044,3316.8373,
281.134,3450.9393,
278.223,3533.8508,
275.313,3588.3781,
272.402,3624.2729,
269.492,3688.7692,
266.581,3788.9291,
263.670,3775.6958,
260.760,3837.1729,
257.849,3904.5738,
254.939,3926.5903,
252.028,3939.9042,
249.117,3924.3178,
246.207,3893.6244,
243.296,3869.4672,
240.386,3896.9126,
237.475,3892.1289,
234.565,3845.9912,
231.654,3764.1882,
228.743,3746.875,
225.833,3692.6034,
222.922,3567.0064,
220.012,3526.9359,
217.101,3466.7663,
214.191,3399.953,
211.280,3340.3011,
208.369,3288.1053,
205.459,3232.1365,
202.548,3192.7776,
199.638,3250.1038,
196.727,3208.8631,
193.816,3162.0484,
190.906,3141.7164,
187.995,3080.1744,
185.085,3056.5107,
182.174,3048.1944,
179.264,3027.2342,
176.353,3031.2828,
173.442,3045.3892,
170.532,3056.9864,
167.621,2997.8664,
164.711,2963.4801,
161.800,2872.6541,
158.890,2655.2964,
155.979,2509.9868,
153.068,2301.7694,
150.158,2046.2992,
147.247,1813.6827,
144.337,1490.8623,
141.426,1165.3823,
138.516,877.19204,
135.605,613.35219,
132.694,417.72144,
129.784,279.75693,
126.873,186.79005,
123.963,134.86893,
121.052,96.560407,
118.141,63.007013,
115.231,51.505874,
112.320,38.825917,
109.410,28.556776,
106.499,32.117552,
103.589,28.953219,
100.678,23.430405,
97.767,17.031966,
94.857,14.796033,
91.946,17.502998,
89.036,22.31051,
86.125,18.764484,
83.215,15.220398,
80.304,11.198971,
77.393,6.2417816,
74.483,15.046889,
71.572,16.251479,
68.662,9.59793,
65.751,6.7721257,
62.840,8.7652119,
59.930,10.751283,
57.019,6.5207909,
54.109,2.2920349,
51.198,2.2878742,
48.288,7.8693376,
45.377,7.1659595,
42.466,6.4627807,
39.556,5.1842885,
36.645,0.97114724,
33.735,3.5097393,
30.824,4.8870172,
27.914,-1.42356,
25.003,0.98818738,
22.092,3.8437137,
19.182,5.9207657,
16.271,7.319746,
13.361,28.947899,
10.450,38.284069,
7.539,-75.541335,
4.629,-407.69144,
1.718,-784.13542,
-1.192,-1087.3933,
-4.103,-837.48199,
-7.013,-452.90241,
-9.924,0.875,
