,PL3ADE~1,
Wavenumbers [1/cm],Intensity,
3014.167,-0.625,
3011.256,0.47502147,
3008.346,85.682148,
3005.435,72.495147,
3002.525,99.337528,
2999.614,104.85033,
2996.704,107.05644,
2993.793,98.003456,
2990.882,106.67265,
2987.972,124.25897,
2985.061,101.375,
2982.151,112.82375,
2979.240,107.32462,
2976.329,125.15367,
2973.419,122.06691,
2970.508,134.05836,
2967.598,124.89709,
2964.687,124.92663,
2961.777,128.12706,
2958.866,140.38094,
2955.955,133.8927,
2953.045,149.64122,
2950.134,146.375,
2947.224,153.74509,
2944.313,166.375,
2941.403,158.55338,
2938.492,166.08774,
2935.581,182.27803,
2932.671,161.53812,
2929.760,176.84038,
2926.850,174.47951,
2923.939,177.89368,
2921.028,191.62215,
2918.118,194.95308,
2915.207,178.78639,
2912.297,181.36231,
2909.386,185.3823,
2906.476,176.28232,
2903.565,176.44019,
2900.654,177.60956,
2897.744,171.27442,
2894.833,165.02445,
2891.923,164.1314,
2889.012,164.91835,
2886.102,149.10609,
2883.191,135.38161,
2880.280,94.288863,
2877.370,-40.508377,
2874.459,-180.06487,
2871.549,-47.597831,
2868.638,125.65944,
2865.727,128.08653,
2862.817,159.79075,
2859.906,165.76815,
2856.996,187.36141,
2854.085,203.57881,
2851.175,192.32682,
2848.264,200.934,
2845.353,184.48284,
2842.443,194.96525,
2839.532,207.25557,
2836.622,196.04362,
2833.711,202.21958,
2830.801,198.47574,
2827.890,197.7299,
2824.979,205.22697,
2822.069,207.6593,
2819.158,222.49359,
2816.248,203.38658,
2813.337,233.85916,
2810.427,204.94112,
2807.516,204.21672,
2804.605,217.78365,
2801.695,214.28288,
2798.784,202.96638,
2795.874,209.65996,
2792.963,208.44638,
2790.052,219.37243,
2787.142,223.34877,
2784.231,218.8921,
2781.321,209.18642,
2778.410,207.20495,
2775.500,212.97017,
2772.589,229.49044,
2769.678,231.30332,
2766.768,221.01188,
2763.857,240.63704,
2760.947,228.35609,
2758.036,242.31778,
2755.126,229.56517,
2752.215,236.22507,
2749.304,241.375,
2746.394,242.73993,
2743.483,245.87498,
2740.573,256.5852,
2737.662,241.69453,
2734.751,232.93324,
2731.841,246.75413,
2728.930,245.47672,
2726.020,246.26794,
2723.109,232.52992,
2720.199,246.70947,
2717.288,239.90055,
2714.377,244.50418,
2711.467,258.60467,
2708.556,248.24742,
2705.646,249.60036,
2702.735,264.05542,
2699.825,269.54951,
2696.914,267.85137,
2694.003,260.65955,
2691.093,266.24985,
2688.182,257.02907,
2685.272,278.73773,
2682.361,264.28111,
2679.450,276.02512,
2676.540,264.35468,
2673.629,259.7248,
2670.719,271.64488,
2667.808,280.47227,
2664.898,271.34873,
2661.987,289.50836,
2659.076,283.39225,
2656.166,285.18026,
2653.255,275.66922,
2650.345,285.29515,
2647.434,279.43273,
2644.524,299.44454,
2641.613,305.97525,
2638.702,283.80109,
2635.792,289.3431,
2632.881,294.95237,
2629.971,291.88505,
2627.060,301.20906,
2624.149,302.26562,
2621.239,297.5998,
2618.328,298.12068,
2615.418,298.67955,
2612.507,305.16949,
2609.597,313.18139,
2606.686,298.51758,
2603.775,302.57341,
2600.865,305.02008,
2597.954,306.90825,
2595.044,332.41928,
2592.133,313.8144,
2589.223,329.77291,
2586.312,326.57097,
2583.401,323.84577,
2580.491,318.45672,
2577.580,323.3552,
2574.670,313.86564,
2571.759,324.22859,
2568.848,333.96067,
2565.938,331.75621,
2563.027,305.05904,
2560.117,320.91706,
2557.206,327.79935,
2554.296,342.20338,
2551.385,335.24294,
2548.474,354.11627,
2545.564,359.56493,
2542.653,345.97568,
2539.743,337.7949,
2536.832,330.78247,
2533.922,371.94923,
2531.011,349.77463,
2528.100,357.64328,
2525.190,371.76762,
2522.279,369.90602,
2519.369,356.75258,
2516.458,342.25956,
2513.548,355.17475,
2510.637,372.94462,
2507.726,370.43449,
2504.816,368.68616,
2501.905,346.57805,
2498.995,359.61388,
2496.084,367.66771,
2493.173,366.87467,
2490.263,372.73434,
2487.352,389.16633,
2484.442,387.50775,
2481.531,385.89637,
2478.621,390.42718,
2475.710,396.38267,
2472.799,393.67549,
2469.889,378.49688,
2466.978,385.92128,
2464.068,378.8829,
2461.157,392.25755,
2458.247,389.34566,
2455.336,394.07754,
2452.425,381.67688,
2449.515,393.44154,
2446.604,406.5617,
2443.694,399.67766,
2440.783,414.47185,
2437.872,416.93742,
2434.962,403.79897,
2432.051,410.59126,
2429.141,413.12218,
2426.230,444.89774,
2423.320,443.58939,
2420.409,437.48401,
2417.498,439.16152,
2414.588,414.58044,
2411.677,408.2356,
2408.767,433.39862,
2405.856,457.66776,
2402.946,444.83255,
2400.035,442.86093,
2397.124,428.17178,
2394.214,441.0774,
2391.303,427.65684,
2388.393,414.64243,
2385.482,413.375,
2382.571,398.19766,
2379.661,397.16579,
2376.750,416.73689,
2373.840,453.8468,
2370.929,479.14758,
2368.019,459.30233,
2365.108,472.90903,
2362.197,471.81879,
2359.287,470.9633,
2356.376,469.38028,
2353.466,498.84596,
2350.555,480.77001,
2347.645,481.375,
2344.734,474.28282,
2341.823,478.2755,
2338.913,490.17796,
2336.002,477.22905,
2333.092,487.1335,
2330.181,487.09368,
2327.270,486.31999,
2324.360,498.24057,
2321.449,497.05187,
2318.539,504.54627,
2315.628,506.09802,
2312.718,496.30892,
2309.807,514.60464,
2306.896,523.56435,
2303.986,513.86213,
2301.075,506.07722,
2298.165,543.04906,
2295.254,520.17209,
2292.344,539.375,
2289.433,533.32863,
2286.522,531.12938,
2283.612,538.30484,
2280.701,553.81891,
2277.791,542.09448,
2274.880,540.5109,
2271.969,556.28035,
2269.059,554.7265,
2266.148,541.32492,
2263.238,532.67616,
2260.327,552.30603,
2257.417,552.56111,
2254.506,558.3978,
2251.595,548.24417,
2248.685,562.68068,
2245.774,541.63925,
2242.864,574.75408,
2239.953,554.78873,
2237.043,561.30965,
2234.132,557.22953,
2231.221,563.92799,
2228.311,588.8608,
2225.400,608.81209,
2222.490,590.6747,
2219.579,598.42642,
2216.669,611.82969,
2213.758,606.37237,
2210.847,597.56896,
2207.937,634.787,
2205.026,616.93039,
2202.116,626.61915,
2199.205,641.375,
2196.294,639.12701,
2193.384,641.63801,
2190.473,634.79519,
2187.563,654.433,
2184.652,667.12806,
2181.742,659.25986,
2178.831,640.04819,
2175.920,657.6209,
2173.010,687.47704,
2170.099,682.64335,
2167.189,683.54004,
2164.278,704.17399,
2161.368,696.80292,
2158.457,715.45852,
2155.546,725.17789,
2152.636,723.89097,
2149.725,764.81792,
2146.815,779.17479,
2143.904,760.77648,
2140.993,770.19503,
2138.083,790.83396,
2135.172,790.89599,
2132.262,804.02201,
2129.351,820.17159,
2126.441,802.93805,
2123.530,780.58826,
2120.619,794.00825,
2117.709,763.53925,
2114.798,761.88642,
2111.888,730.00068,
2108.977,718.55381,
2106.067,723.40851,
2103.156,721.73549,
2100.245,708.35618,
2097.335,684.03468,
2094.424,718.19452,
2091.514,691.7997,
2088.603,695.81735,
2085.692,701.46425,
2082.782,697.375,
2079.871,727.76939,
2076.961,723.14993,
2074.050,747.45379,
2071.140,730.17953,
2068.229,732.47006,
2065.318,729.28875,
2062.408,724.98847,
2059.497,712.56547,
2056.587,716.46791,
2053.676,716.10853,
2050.766,727.37425,
2047.855,708.06173,
2044.944,696.3109,
2042.034,696.72192,
2039.123,727.85648,
2036.213,732.20385,
2033.302,740.02686,
2030.391,754.7988,
2027.481,746.67994,
2024.570,747.74634,
2021.660,735.20281,
2018.749,766.69117,
2015.839,747.62631,
2012.928,739.36326,
2010.017,750.34894,
2007.107,756.98062,
2004.196,753.13687,
2001.286,757.87674,
1998.375,752.06594,
1995.465,717.84375,
1992.554,724.39841,
1989.643,729.27131,
1986.733,757.11096,
1983.822,706.99243,
1980.912,744.94857,
1978.001,722.01879,
1975.090,731.58568,
1972.180,720.13432,
1969.269,731.0561,
1966.359,730.45589,
1963.448,729.68015,
1960.538,744.54765,
1957.627,726.86724,
1954.716,728.26009,
1951.806,735.72918,
1948.895,721.20702,
1945.985,719.0384,
1943.074,761.36404,
1940.164,732.70168,
1937.253,711.6533,
1934.342,716.93917,
1931.432,724.375,
1928.521,733.46654,
1925.611,709.54413,
1922.700,727.65814,
1919.790,712.98219,
1916.879,725.18926,
1913.968,740.35779,
1911.058,745.64827,
1908.147,736.17209,
1905.237,731.24993,
1902.326,693.53944,
1899.415,690.23718,
1896.505,647.75431,
1893.594,661.2593,
1890.684,686.10719,
1887.773,697.45173,
1884.863,756.81691,
1881.952,749.17277,
1879.041,759.31322,
1876.131,755.78808,
1873.220,745.52984,
1870.310,766.65299,
1867.399,773.29503,
1864.489,779.79085,
1861.578,767.61659,
1858.667,782.33313,
1855.757,752.5349,
1852.846,780.28787,
1849.936,741.46708,
1847.025,771.49179,
1844.114,783.01973,
1841.204,799.33654,
1838.293,794.39329,
1835.383,780.6425,
1832.472,800.31761,
1829.562,810.90338,
1826.651,808.375,
1823.740,823.66238,
1820.830,785.39036,
1817.919,803.32131,
1815.009,787.25668,
1812.098,836.3356,
1809.188,857.38272,
1806.277,830.99469,
1803.366,817.74282,
1800.456,781.58406,
1797.545,806.24714,
1794.635,842.82698,
1791.724,838.64676,
1788.813,867.5714,
1785.903,848.87118,
1782.992,809.88911,
1780.082,746.57526,
1777.171,664.69404,
1774.261,641.3056,
1771.350,735.32452,
1768.439,822.35694,
1765.529,857.46668,
1762.618,873.4869,
1759.708,857.78777,
1756.797,860.95833,
1753.887,886.93914,
1750.976,895.04057,
1748.065,916.35042,
1745.155,921.26536,
1742.244,917.05073,
1739.334,897.20324,
1736.423,953.37678,
1733.512,911.97643,
1730.602,920.78378,
1727.691,933.14266,
1724.781,961.69176,
1721.870,934.77004,
1718.960,975.70893,
1716.049,916.7401,
1713.138,948.68978,
1710.228,915.47104,
1707.317,945.64243,
1704.407,974.63172,
1701.496,971.90571,
1698.586,1002.7905,
1695.675,1024.0892,
1692.764,975.19874,
1689.854,980.02855,
1686.943,986.17265,
1684.033,997.1018,
1681.122,1029.8143,
1678.211,1018.4892,
1675.301,1082.1777,
1672.390,1019.363,
1669.480,1015.8483,
1666.569,1075.378,
1663.659,1152.6727,
1660.748,1110.7606,
1657.837,1131.0092,
1654.927,1158.883,
1652.016,1138.3507,
1649.106,1138.1094,
1646.195,1167.9984,
1643.285,1193.9675,
1640.374,1219.3541,
1637.463,1219.2217,
1634.553,1265.7149,
1631.642,1288.9179,
1628.732,1338.6002,
1625.821,1376.4162,
1622.911,1439.02,
1620.000,1468.997,
1617.089,1565.4247,
1614.179,1630.5419,
1611.268,1703.6238,
1608.358,1798.8332,
1605.447,1899.5472,
1602.536,1916.5576,
1599.626,1905.4159,
1596.715,1966.0919,
1593.805,1861.4778,
1590.894,1876.5564,
1587.984,1861.321,
1585.073,1754.5754,
1582.162,1749.7332,
1579.252,1740.1005,
1576.341,1702.9293,
1573.431,1680.2779,
1570.520,1665.6737,
1567.610,1657.1592,
1564.699,1645.2246,
1561.788,1644.1919,
1558.878,1622.8438,
1555.967,1610.393,
1553.057,1574.9271,
1550.146,1553.5314,
1547.235,1540.5685,
1544.325,1541.4235,
1541.414,1536.4937,
1538.504,1524.3198,
1535.593,1518.9666,
1532.683,1508.0247,
1529.772,1513.1748,
1526.861,1503.212,
1523.951,1480.7565,
1521.040,1506.5236,
1518.130,1512.3818,
1515.219,1549.3354,
1512.309,1530.9245,
1509.398,1519.1012,
1506.487,1531.3044,
1503.577,1505.5829,
1500.666,1489.9346,
1497.756,1496.7397,
1494.845,1522.5735,
1491.934,1455.2459,
1489.024,1415.7837,
1486.113,1503.3877,
1483.203,1517.4803,
1480.292,1469.1613,
1477.382,1489.4719,
1474.471,1422.7066,
1471.560,1427.9503,
1468.650,1432.9088,
1465.739,1429.094,
1462.829,1453.4413,
1459.918,1494.1321,
1457.008,1499.1594,
1454.097,1493.2317,
1451.186,1509.0288,
1448.276,1491.8092,
1445.365,1429.6578,
1442.455,1405.5811,
1439.544,1425.0552,
1436.633,1387.4525,
1433.723,1375.3841,
1430.812,1356.2959,
1427.902,1379.8113,
1424.991,1356.1172,
1422.081,1326.0157,
1419.170,1372.6264,
1416.259,1362.5536,
1413.349,1318.3472,
1410.438,1351.5605,
1407.528,1361.7189,
1404.617,1349.9166,
1401.707,1319.9379,
1398.796,1280.382,
1395.885,1262.2018,
1392.975,1249.2077,
1390.064,1241.0336,
1387.154,1276.1315,
1384.243,1241.166,
1381.332,1190.695,
1378.422,1218.7275,
1375.511,1244.9574,
1372.601,1259.1986,
1369.690,1283.52,
1366.780,1308.7599,
1363.869,1400.8258,
1360.958,1411.5879,
1358.048,1402.7482,
1355.137,1444.8527,
1352.227,1516.604,
1349.316,1575.8723,
1346.406,1591.8798,
1343.495,1568.6206,
1340.584,1584.3384,
1337.674,1641.0902,
1334.763,1655.375,
1331.853,1655.375,
1328.942,1658.9329,
1326.032,1728.7028,
1323.121,1713.2545,
1320.210,1731.0096,
1317.300,1737.1118,
1314.389,1783.2788,
1311.479,1819.2683,
1308.568,1833.2654,
1305.657,1884.1606,
1302.747,1886.113,
1299.836,1940.6748,
1296.926,1972.1441,
1294.015,1988.6919,
1291.105,2013.1496,
1288.194,2068.2933,
1285.283,2074.931,
1282.373,2091.9921,
1279.462,2124.2373,
1276.552,2160.8869,
1273.641,2164.0151,
1270.731,2141.784,
1267.820,2157.1041,
1264.909,2132.0346,
1261.999,2150.7758,
1259.088,2134.3576,
1256.178,2146.2218,
1253.267,2125.3591,
1250.356,2111.6025,
1247.446,2120.1095,
1244.535,2103.5983,
1241.625,2067.475,
1238.714,2056.9795,
1235.804,2073.5255,
1232.893,2085.2548,
1229.982,2061.6885,
1227.072,2011.8963,
1224.161,2046.1977,
1221.251,1992.3252,
1218.340,1975.9097,
1215.430,1990.4868,
1212.519,1989.9615,
1209.608,1960.0106,
1206.698,1924.0345,
1203.787,1919.0082,
1200.877,1961.378,
1197.966,1977.5628,
1195.055,2015.9179,
1192.145,2068.2069,
1189.234,2131.3856,
1186.324,2184.6503,
1183.413,2201.1923,
1180.503,2213.9476,
1177.592,2244.3849,
1174.681,2207.7003,
1171.771,2182.3544,
1168.860,2181.4613,
1165.950,2141.0605,
1163.039,2130.6766,
1160.129,2134.504,
1157.218,2155.1622,
1154.307,2188.1029,
1151.397,2213.4604,
1148.486,2224.3203,
1145.576,2250.2549,
1142.665,2201.4197,
1139.754,2210.3931,
1136.844,2173.4577,
1133.933,2171.0377,
1131.023,2160.6028,
1128.112,2139.8746,
1125.202,2155.4861,
1122.291,2186.4895,
1119.380,2159.8427,
1116.470,2207.4992,
1113.559,2166.2068,
1110.649,2176.6043,
1107.738,2173.3005,
1104.828,2160.6233,
1101.917,2156.1617,
1099.006,2136.2927,
1096.096,2115.0089,
1093.185,2158.031,
1090.275,2167.8492,
1087.364,2187.2142,
1084.453,2209.4366,
1081.543,2201.5315,
1078.632,2188.6572,
1075.722,2215.6317,
1072.811,2225.5612,
1069.901,2228.1809,
1066.990,2204.1251,
1064.079,2206.5412,
1061.169,2197.6721,
1058.258,2209.3962,
1055.348,2254.0729,
1052.437,2276.0919,
1049.527,2209.9862,
1046.616,2251.69,
1043.705,2260.9996,
1040.795,2269.3986,
1037.884,2265.7889,
1034.974,2275.134,
1032.063,2295.7445,
1029.153,2267.4282,
1026.242,2234.5599,
1023.331,2276.7056,
1020.421,2326.504,
1017.510,2338.212,
1014.600,2340.1419,
1011.689,2350.5153,
1008.778,2348.097,
1005.868,2317.4213,
1002.957,2322.5835,
1000.047,2436.215,
997.136,2492.4708,
994.226,2501.9289,
991.315,2481.281,
988.404,2434.7265,
985.494,2431.1065,
982.583,2419.1147,
979.673,2387.3775,
976.762,2362.8717,
973.852,2382.9897,
970.941,2406.1487,
968.030,2371.7738,
965.120,2368.5039,
962.209,2399.1954,
959.299,2398.709,
956.388,2405.3344,
953.477,2420.1845,
950.567,2443.9233,
947.656,2482.9401,
944.746,2510.1259,
941.835,2457.1175,
938.925,2503.5995,
936.014,2484.804,
933.103,2459.3261,
930.193,2489.7891,
927.282,2444.0624,
924.372,2456.7465,
921.461,2414.191,
918.551,2408.8318,
915.640,2398.5274,
912.729,2380.5472,
909.819,2399.9327,
906.908,2419.3085,
903.998,2421.1704,
901.087,2442.3797,
898.176,2465.8277,
895.266,2477.7402,
892.355,2469.3073,
889.445,2431.5403,
886.534,2491.4858,
883.624,2487.8999,
880.713,2494.1546,
877.802,2474.7202,
874.892,2386.5334,
871.981,2263.7845,
869.071,2111.7394,
866.160,2127.4625,
863.250,2258.5544,
860.339,2378.6317,
857.428,2427.4449,
854.518,2493.3289,
851.607,2422.603,
848.697,2345.0324,
845.786,2286.8319,
842.875,2311.0595,
839.965,2431.4194,
837.054,2550.7844,
834.144,2587.2495,
831.233,2618.3733,
828.323,2619.4944,
825.412,2618.9998,
822.501,2639.1409,
819.591,2626.7449,
816.680,2595.1249,
813.770,2562.9414,
810.859,2547.4725,
807.949,2547.7531,
805.038,2546.6958,
802.127,2508.0088,
799.217,2501.3934,
796.306,2482.2127,
793.396,2490.9554,
790.485,2521.5317,
787.574,2504.0289,
784.664,2521.2512,
781.753,2545.1755,
778.843,2577.9188,
775.932,2597.98,
773.022,2589.4874,
770.111,2583.7644,
767.200,2590.9881,
764.290,2624.0025,
761.379,2616.0472,
758.469,2585.9071,
755.558,2647.2566,
752.648,2609.7848,
749.737,2589.3192,
746.826,2586.1048,
743.916,2575.5761,
741.005,2532.9732,
738.095,2494.0031,
735.184,2409.2883,
732.274,2364.7535,
729.363,2365.1431,
726.452,2411.7634,
723.542,2541.2663,
720.631,2613.3608,
717.721,2621.9181,
714.810,2637.3578,
711.899,2665.276,
708.989,2617.6674,
706.078,2639.8115,
703.168,2615.014,
700.257,2597.0253,
697.347,2596.1145,
694.436,2584.1786,
691.525,2576.9444,
688.615,2605.5627,
685.704,2607.4023,
682.794,2600.6514,
679.883,2647.0506,
676.973,2639.8383,
674.062,2682.4027,
671.151,2675.3769,
668.241,2636.7575,
665.330,2645.0179,
662.420,2658.5963,
659.509,2617.5648,
656.598,2614.878,
653.688,2651.0462,
650.777,2672.6189,
647.867,2650.3218,
644.956,2655.9006,
642.046,2620.5006,
639.135,2553.6195,
636.224,2524.8246,
633.314,2614.5396,
630.403,2688.2191,
627.493,2709.1642,
624.582,2681.2544,
621.672,2658.2866,
618.761,2648.2557,
615.850,2695.5149,
612.940,2751.4025,
610.029,2777.613,
607.119,2761.0308,
604.208,2805.5259,
601.297,2841.8231,
598.387,2846.1899,
595.476,2812.1865,
592.566,2799.5934,
589.655,2786.3609,
586.745,2810.7528,
583.834,2851.0338,
580.923,2852.9959,
578.013,2790.2172,
575.102,2792.3034,
572.192,2815.6644,
569.281,2826.4698,
566.371,2793.5996,
563.460,2811.539,
560.549,2844.2517,
557.639,2871.7921,
554.728,2880.0502,
551.818,2906.581,
548.907,2893.4832,
545.996,2882.1526,
543.086,2872.806,
540.175,2823.7513,
537.265,2813.1322,
534.354,2824.924,
531.444,2829.3433,
528.533,2804.4786,
525.622,2819.9976,
522.712,2838.5438,
519.801,2826.226,
516.891,2792.4096,
513.980,2802.4754,
511.070,2833.6619,
508.159,2827.7499,
505.248,2814.6355,
502.338,2837.0528,
499.427,2860.2077,
496.517,2895.7891,
493.606,2912.6546,
490.695,2903.0868,
487.785,2915.4034,
484.874,2910.9128,
481.964,2869.5847,
479.053,2822.0746,
476.143,2845.8814,
473.232,2837.3033,
470.321,2856.7307,
467.411,2876.8163,
464.500,2863.0065,
461.590,2848.4575,
458.679,2861.4341,
455.769,2866.5532,
452.858,2852.5448,
449.947,2902.2003,
447.037,2870.5085,
444.126,2867.0356,
441.216,2902.2158,
438.305,2872.5004,
435.395,2902.4681,
432.484,2909.5394,
429.573,2876.9798,
426.663,2802.486,
423.752,2645.7325,
420.842,2416.4247,
417.931,2182.8061,
415.020,2047.06,
412.110,2405.2551,
409.199,2685.0741,
406.289,2815.7449,
403.378,2746.2264,
400.468,2702.3788,
397.557,2713.0542,
394.646,2768.1578,
391.736,2854.0128,
388.825,2842.6994,
385.915,2844.1647,
383.004,2844.6629,
380.094,2838.0238,
377.183,2889.9447,
374.272,2922.2868,
371.362,2944.1445,
368.451,2957.6851,
365.541,2913.4035,
362.630,2948.3517,
359.719,2988.2629,
356.809,2988.8345,
353.898,2963.3754,
350.988,2985.1268,
348.077,2997.1778,
345.167,2968.1318,
342.256,2983.0732,
339.345,2998.5351,
336.435,2995.3282,
333.524,2961.5159,
330.614,2965.9869,
327.703,2983.2906,
324.793,3003.7886,
321.882,3019.3912,
318.971,3026.0822,
316.061,3013.2373,
313.150,3002.4559,
310.240,3018.7825,
307.329,3067.9703,
304.418,3112.9084,
301.508,3143.5719,
298.597,3144.3123,
295.687,3111.8675,
292.776,3140.1252,
289.866,3227.3753,
286.955,3350.7425,
284.044,3429.7274,
281.134,3509.8095,
278.223,3590.8718,
275.313,3628.4514,
272.402,3666.582,
269.492,3680.4537,
266.581,3659.276,
263.670,3601.932,
260.760,3655.8967,
257.849,3734.7461,
254.939,3775.8435,
252.028,3801.7096,
249.117,3760.2103,
246.207,3724.1878,
243.296,3820.0846,
240.386,3811.4382,
237.475,3801.7592,
234.565,3798.4638,
231.654,3773.6308,
228.743,3748.2371,
225.833,3701.056,
222.922,3623.3321,
220.012,3536.6341,
217.101,3520.1522,
214.191,3509.6447,
211.280,3433.9886,
208.369,3431.0663,
205.459,3408.0207,
202.548,3377.3917,
199.638,3412.2229,
196.727,3358.8723,
193.816,3343.5742,
190.906,3406.2706,
187.995,3260.7417,
185.085,3208.9564,
182.174,3211.0968,
179.264,3224.8293,
176.353,3155.8893,
173.442,3135.9531,
170.532,3159.7061,
167.621,3068.1422,
164.711,2985.037,
161.800,2864.2982,
158.890,2664.9337,
155.979,2425.9965,
153.068,2195.2569,
150.158,1962.2489,
147.247,1679.3757,
144.337,1401.6839,
141.426,1109.3383,
138.516,791.0386,
135.605,584.90347,
132.694,406.01658,
129.784,258.67504,
126.873,167.85355,
123.963,114.09265,
121.052,77.176588,
118.141,51.476116,
115.231,41.427015,
112.320,36.104092,
109.410,32.602382,
106.499,23.344364,
103.589,19.133982,
100.678,18.461487,
97.767,21.305237,
94.857,17.217066,
91.946,18.196776,
89.036,21.584715,
86.125,16.620278,
83.215,17.498681,
80.304,15.544077,
77.393,4.2133581,
74.483,11.891754,
71.572,14.925592,
68.662,12.09793,
65.751,9.2721257,
62.840,11.746914,
59.930,14.063997,
57.019,9.1284227,
54.109,3.5977132,
51.198,2.7878742,
48.288,8.3580127,
45.377,6.2478785,
42.466,4.138342,
39.556,2.2598814,
36.645,1.5576912,
33.735,5.0097393,
30.824,6.1661303,
27.914,-0.84562219,
25.003,-0.37972505,
22.092,-1.8853319,
19.182,-6.3961714,
16.271,0.59872995,
13.361,15.175823,
10.450,8.5389458,
7.539,-124.14097,
4.629,-443.12006,
1.718,-791.30312,
-1.192,-1057.6123,
-4.103,-835.79615,
-7.013,-466.32197,
-9.924,1.375,
