,PLBFCC~1,
Raman shift [1/cm],Intensity,
3014.167,2.5,
3011.256,-1.8000644,
3008.346,153.43654,
3005.435,166.30919,
3002.525,183.01007,
2999.614,201.2714,
2996.704,193.35876,
2993.793,201.60542,
2990.882,217.06488,
2987.972,230.40919,
2985.061,211.6133,
2982.151,224.59077,
2979.240,242.44962,
2976.329,250.51092,
2973.419,254.60757,
2970.508,261.96665,
2967.598,266.07349,
2964.687,279.41033,
2961.777,266.09813,
2958.866,293.16865,
2955.955,281.39382,
2953.045,291.13311,
2950.134,310.11812,
2947.224,300.55335,
2944.313,333.35399,
2941.403,329.5,
2938.492,341.79811,
2935.581,350.31717,
2932.671,339.46139,
2929.760,355.58848,
2926.850,364.44774,
2923.939,370.5,
2921.028,367.41762,
2918.118,378.7796,
2915.207,371.96831,
2912.297,375.47461,
2909.386,391.5,
2906.476,385.85675,
2903.565,386.51704,
2900.654,385.56975,
2897.744,383.58801,
2894.833,387.20109,
2891.923,399.52891,
2889.012,367.49422,
2886.102,388.91621,
2883.191,374.5151,
2880.280,365.53828,
2877.370,358.57559,
2874.459,362.78317,
2871.549,389.76319,
2868.638,416.3206,
2865.727,402.99618,
2862.817,399.24331,
2859.906,410.13248,
2856.996,397.01132,
2854.085,405.06304,
2851.175,404.69273,
2848.264,398.51934,
2845.353,396.41373,
2842.443,392.5,
2839.532,383.18662,
2836.622,385.34831,
2833.711,380.29277,
2830.801,389.98897,
2827.890,392.7902,
2824.979,380.36404,
2822.069,393.62509,
2819.158,396.89891,
2816.248,391.22395,
2813.337,387.18048,
2810.427,386.76447,
2807.516,388.07547,
2804.605,383.36058,
2801.695,398.46053,
2798.784,401.5,
2795.874,400.35488,
2792.963,392.85691,
2790.052,385.50043,
2787.142,389.59204,
2784.231,393.1444,
2781.321,404.93426,
2778.410,394.8401,
2775.500,389.43655,
2772.589,399.42203,
2769.678,388.60578,
2766.768,403.42817,
2763.857,409.86801,
2760.947,404.48739,
2758.036,401.65286,
2755.126,422.73932,
2752.215,428.0092,
2749.304,430.26619,
2746.394,399.77015,
2743.483,413.29996,
2740.573,425.82303,
2737.662,417.37279,
2734.751,407.61649,
2731.841,411.17583,
2728.930,426.88573,
2726.020,418.06655,
2723.109,429.15975,
2720.199,439.48133,
2717.288,431.76278,
2714.377,421.4377,
2711.467,448.20548,
2708.556,445.43558,
2705.646,443.68304,
2702.735,445.51032,
2699.825,448.16361,
2696.914,434.83317,
2694.003,439.0691,
2691.093,445.78521,
2688.182,446.24667,
2685.272,454.89829,
2682.361,447.67685,
2679.450,434.45471,
2676.540,446.27644,
2673.629,448.1098,
2670.719,467.07671,
2667.808,461.59727,
2664.898,465.24027,
2661.987,452.59977,
2659.076,434.77156,
2656.166,463.96754,
2653.255,476.90137,
2650.345,468.41107,
2647.434,485.61375,
2644.524,467.04437,
2641.613,472.92866,
2638.702,484.34219,
2635.792,481.72033,
2632.881,477.00583,
2629.971,491.22489,
2627.060,486.5,
2624.149,478.69064,
2621.239,488.28706,
2618.328,507.20329,
2615.418,495.1909,
2612.507,493.18771,
2609.597,508.49002,
2606.686,489.08434,
2603.775,491.98016,
2600.865,508.55466,
2597.954,497.78748,
2595.044,509.44686,
2592.133,523.33441,
2589.223,526.28316,
2586.312,515.57534,
2583.401,527.35765,
2580.491,519.14424,
2577.580,527.4802,
2574.670,514.94653,
2571.759,527.26283,
2568.848,536.85358,
2565.938,535.26199,
2563.027,523.5,
2560.117,536.21031,
2557.206,539.88376,
2554.296,530.32838,
2551.385,530.81401,
2548.474,533.90744,
2545.564,531.59497,
2542.653,533.59395,
2539.743,556.9199,
2536.832,554.43831,
2533.922,539.83115,
2531.011,557.75023,
2528.100,559.56275,
2525.190,565.12828,
2522.279,569.32755,
2519.369,546.40561,
2516.458,562.95467,
2513.548,564.79105,
2510.637,577.37703,
2507.726,564.25834,
2504.816,554.12684,
2501.905,557.38415,
2498.995,555.96253,
2496.084,550.87284,
2493.173,565.13179,
2490.263,578.47741,
2487.352,570.83387,
2484.442,581.63275,
2481.531,595.2925,
2478.621,588.98337,
2475.710,579.50767,
2472.799,585.43268,
2469.889,589.35039,
2466.978,588.32464,
2464.068,582.92325,
2461.157,610.4576,
2458.247,594.35295,
2455.336,604.73289,
2452.425,600.5849,
2449.515,609.46259,
2446.604,624.20506,
2443.694,616.19734,
2440.783,609.5,
2437.872,611.68232,
2434.962,624.1175,
2432.051,632.82075,
2429.141,628.75282,
2426.230,616.60825,
2423.320,630.98604,
2420.409,621.66018,
2417.498,622.51685,
2414.588,625.85738,
2411.677,637.57172,
2408.767,641.52362,
2405.856,657.81899,
2402.946,662.6546,
2400.035,668.49062,
2397.124,656.8369,
2394.214,651.71441,
2391.303,645.14634,
2388.393,660.21862,
2385.482,649.11687,
2382.571,669.52562,
2379.661,667.6859,
2376.750,687.86696,
2373.840,694.85311,
2370.929,669.78157,
2368.019,688.64534,
2365.108,667.36126,
2362.197,688.76588,
2359.287,697.3234,
2356.376,693.50176,
2353.466,693.27223,
2350.555,698.52493,
2347.645,687.21127,
2344.734,698.04843,
2341.823,687.74875,
2338.913,717.8358,
2336.002,704.01676,
2333.092,721.2123,
2330.181,725.1829,
2327.270,706.38008,
2324.360,727.51649,
2321.449,736.62244,
2318.539,727.47859,
2315.628,734.17186,
2312.718,726.90088,
2309.807,729.43169,
2306.896,730.76761,
2303.986,738.80521,
2301.075,720.75539,
2298.165,735.63512,
2295.254,731.73697,
2292.344,753.71163,
2289.433,737.07136,
2286.522,739.19621,
2283.612,765.19005,
2280.701,757.71078,
2277.791,760.78052,
2274.880,769.85396,
2271.969,776.56584,
2269.059,779.08584,
2266.148,802.46828,
2263.238,802.30309,
2260.327,794.46538,
2257.417,786.66777,
2254.506,812.97296,
2251.595,805.37283,
2248.685,790.29039,
2245.774,782.29133,
2242.864,810.56484,
2239.953,816.05164,
2237.043,828.38286,
2234.132,824.05065,
2231.221,818.81522,
2228.311,823.45875,
2225.400,837.02153,
2222.490,829.0409,
2219.579,868.55142,
2216.669,870.01192,
2213.758,870.10915,
2210.847,872.30604,
2207.937,869.62215,
2205.026,897.6102,
2202.116,927.21974,
2199.205,933.07553,
2196.294,938.23595,
2193.384,971.10453,
2190.473,989.79578,
2187.563,1002.4855,
2184.652,1006.5788,
2181.742,1052.7053,
2178.831,1076.7335,
2175.920,1117.6439,
2173.010,1163.877,
2170.099,1229.8269,
2167.189,1278.9808,
2164.278,1352.69,
2161.368,1404.4988,
2158.457,1454.494,
2155.546,1553.527,
2152.636,1635.1595,
2149.725,1670.9698,
2146.815,1683.233,
2143.904,1777.1022,
2140.993,1780.172,
2138.083,1778.7006,
2135.172,1799.416,
2132.262,1791.3495,
2129.351,1776.7241,
2126.441,1722.4901,
2123.530,1605.9612,
2120.619,1545.1519,
2117.709,1441.9871,
2114.798,1355.6458,
2111.888,1287.5633,
2108.977,1208.1953,
2106.067,1161.1243,
2103.156,1110.8687,
2100.245,1055.5031,
2097.335,1054.2382,
2094.424,1008.7393,
2091.514,998.41657,
2088.603,984.19583,
2085.692,971.58561,
2082.782,954.25906,
2079.871,970.57234,
2076.961,944.56649,
2074.050,977.59091,
2071.140,923.39632,
2068.229,936.86719,
2065.318,937.85851,
2062.408,946.00756,
2059.497,940.08928,
2056.587,925.86064,
2053.676,923.94985,
2050.766,941.11435,
2047.855,915.15825,
2044.944,906.16025,
2042.034,921.13003,
2039.123,915.5404,
2036.213,929.22893,
2033.302,944.76082,
2030.391,957.16075,
2027.481,936.46366,
2024.570,956.15639,
2021.660,937.97823,
2018.749,902.24756,
2015.839,945.02034,
2012.928,939.63759,
2010.017,950.57817,
2007.107,957.06077,
2004.196,953.51183,
2001.286,939.54239,
1998.375,960.20079,
1995.465,940.75536,
1992.554,922.10598,
1989.643,942.70503,
1986.733,928.57368,
1983.822,897.88552,
1980.912,915.31162,
1978.001,903.55937,
1975.090,901.5,
1972.180,898.60373,
1969.269,917.01157,
1966.359,910.797,
1963.448,898.5,
1960.538,930.14888,
1957.627,934.82508,
1954.716,924.78727,
1951.806,925.3574,
1948.895,905.66798,
1945.985,923.35948,
1943.074,935.34132,
1940.164,930.74023,
1937.253,906.87851,
1934.342,902.08983,
1931.432,908.45899,
1928.521,915.89033,
1925.611,922.94154,
1922.700,893.42542,
1919.790,940.62076,
1916.879,929.96474,
1913.968,912.51967,
1911.058,898.5,
1908.147,893.98317,
1905.237,869.6618,
1902.326,892.34592,
1899.415,895.20366,
1896.505,886.19272,
1893.594,873.14022,
1890.684,878.92475,
1887.773,896.12057,
1884.863,888.01936,
1881.952,900.33231,
1879.041,932.70769,
1876.131,874.53532,
1873.220,873.44696,
1870.310,888.49549,
1867.399,916.06817,
1864.489,929.57789,
1861.578,927.76402,
1858.667,889.006,
1855.757,880.07995,
1852.846,905.01281,
1849.936,917.33683,
1847.025,918.97447,
1844.114,912.76592,
1841.204,928.14685,
1838.293,932.98919,
1835.383,923.65152,
1832.472,931.84957,
1829.562,932.44635,
1826.651,966.21042,
1823.740,973.85247,
1820.830,980.30324,
1817.919,950.11056,
1815.009,935.65013,
1812.098,957.83857,
1809.188,985.82552,
1806.277,920.0271,
1803.366,939.74954,
1800.456,955.81897,
1797.545,980.62046,
1794.635,996.08191,
1791.724,967.25718,
1788.813,1005.8992,
1785.903,1005.6105,
1782.992,1003.111,
1780.082,978.70505,
1777.171,981.5,
1774.261,981.13499,
1771.350,992.37251,
1768.439,1012.2024,
1765.529,1015.8639,
1762.618,1027.6456,
1759.708,1019.0868,
1756.797,1020.4015,
1753.887,1037.5,
1750.976,1055.7794,
1748.065,1067.8856,
1745.155,1047.0614,
1742.244,1038.8107,
1739.334,1033.6529,
1736.423,1064.414,
1733.512,1059.5812,
1730.602,1062.2242,
1727.691,1070.8736,
1724.781,1097.6705,
1721.870,1077.9427,
1718.960,1112.6116,
1716.049,1101.3646,
1713.138,1147.0898,
1710.228,1132.002,
1707.317,1109.0394,
1704.407,1160.4038,
1701.496,1161.9423,
1698.586,1149.4882,
1695.675,1151.3071,
1692.764,1178.9549,
1689.854,1159.4527,
1686.943,1212.6114,
1684.033,1204.7484,
1681.122,1222.1941,
1678.211,1236.3668,
1675.301,1291.3304,
1672.390,1283.4731,
1669.480,1274.9733,
1666.569,1334.1856,
1663.659,1387.745,
1660.748,1403.4641,
1657.837,1453.5716,
1654.927,1500.0943,
1652.016,1442.9822,
1649.106,1502.4755,
1646.195,1502.8906,
1643.285,1560.2064,
1640.374,1591.8589,
1637.463,1654.6173,
1634.553,1608.0221,
1631.642,1710.5966,
1628.732,1811.2822,
1625.821,1942.5837,
1622.911,2069.7787,
1620.000,2225.522,
1617.089,2321.5895,
1614.179,2469.2698,
1611.268,2619.849,
1608.358,2735.1153,
1605.447,2811.2149,
1602.536,2827.6145,
1599.626,2881.8561,
1596.715,2891.9456,
1593.805,2819.1648,
1590.894,2756.7791,
1587.984,2738.2408,
1585.073,2747.5606,
1582.162,2731.1325,
1579.252,2726.6817,
1576.341,2691.2532,
1573.431,2671.5356,
1570.520,2663.1494,
1567.610,2643.6174,
1564.699,2622.9994,
1561.788,2610.4578,
1558.878,2505.0855,
1555.967,2438.3407,
1553.057,2439.3447,
1550.146,2401.8674,
1547.235,2339.6707,
1544.325,2308.1481,
1541.414,2263.6159,
1538.504,2192.4786,
1535.593,2182.7934,
1532.683,2159.5072,
1529.772,2093.8938,
1526.861,2090.9256,
1523.951,2069.546,
1521.040,2010.8526,
1518.130,1985.6957,
1515.219,1972.5005,
1512.309,1942.1126,
1509.398,1910.3003,
1506.487,1932.2244,
1503.577,1926.9767,
1500.666,1874.8138,
1497.756,1853.7288,
1494.845,1854.4189,
1491.934,1804.2827,
1489.024,1737.8707,
1486.113,1790.2057,
1483.203,1747.4271,
1480.292,1702.4685,
1477.382,1699.5412,
1474.471,1714.3128,
1471.560,1645.9334,
1468.650,1613.0338,
1465.739,1593.8473,
1462.829,1592.2586,
1459.918,1630.6495,
1457.008,1641.2536,
1454.097,1621.8027,
1451.186,1637.0455,
1448.276,1654.9068,
1445.365,1647.5016,
1442.455,1663.7668,
1439.544,1642.3664,
1436.633,1605.3848,
1433.723,1648.4146,
1430.812,1557.9038,
1427.902,1575.951,
1424.991,1594.9062,
1422.081,1529.4416,
1419.170,1559.7905,
1416.259,1533.9075,
1413.349,1518.1923,
1410.438,1501.5044,
1407.528,1533.4808,
1404.617,1541.5832,
1401.707,1510.7724,
1398.796,1490.5559,
1395.885,1523.8113,
1392.975,1563.6455,
1390.064,1556.6236,
1387.154,1561.9101,
1384.243,1508.3622,
1381.332,1517.5906,
1378.422,1562.2195,
1375.511,1634.3516,
1372.601,1693.5589,
1369.690,1714.7872,
1366.780,1763.438,
1363.869,1807.465,
1360.958,1843.928,
1358.048,1874.2994,
1355.137,1913.3099,
1352.227,1980.0493,
1349.316,2039.8319,
1346.406,2051.9455,
1343.495,2065.9321,
1340.584,2128.4283,
1337.674,2141.8904,
1334.763,2106.6051,
1331.853,2188.2014,
1328.942,2258.2098,
1326.032,2222.4565,
1323.121,2276.9639,
1320.210,2314.8162,
1317.300,2288.8568,
1314.389,2342.0709,
1311.479,2449.0143,
1308.568,2504.9941,
1305.657,2539.5479,
1302.747,2591.6752,
1299.836,2656.9742,
1296.926,2673.7812,
1294.015,2808.9217,
1291.105,2868.213,
1288.194,2973.7454,
1285.283,3048.6202,
1282.373,3129.2498,
1279.462,3204.5777,
1276.552,3254.2245,
1273.641,3295.1376,
1270.731,3329.6179,
1267.820,3331.8625,
1264.909,3343.4226,
1261.999,3306.3003,
1259.088,3300.8275,
1256.178,3221.706,
1253.267,3167.8386,
1250.356,3095.9017,
1247.446,2990.052,
1244.535,2875.5403,
1241.625,2756.3668,
1238.714,2655.5546,
1235.804,2608.0826,
1232.893,2553.255,
1229.982,2527.4336,
1227.072,2436.9024,
1224.161,2401.9229,
1221.251,2368.2087,
1218.340,2302.7882,
1215.430,2258.1861,
1212.519,2230.2007,
1209.608,2213.335,
1206.698,2216.4574,
1203.787,2213.304,
1200.877,2229.6144,
1197.966,2247.5976,
1195.055,2335.5314,
1192.145,2367.0296,
1189.234,2382.8807,
1186.324,2440.8687,
1183.413,2492.4492,
1180.503,2499.802,
1177.592,2481.7219,
1174.681,2435.6986,
1171.771,2409.9945,
1168.860,2431.4287,
1165.950,2395.6044,
1163.039,2359.9607,
1160.129,2357.3478,
1157.218,2323.1182,
1154.307,2279.129,
1151.397,2277.4573,
1148.486,2271.8026,
1145.576,2254.4184,
1142.665,2206.4711,
1139.754,2213.0772,
1136.844,2169.28,
1133.933,2138.9429,
1131.023,2135.2768,
1128.112,2120.9313,
1125.202,2098.128,
1122.291,2131.6253,
1119.380,2132.6819,
1116.470,2151.215,
1113.559,2138.035,
1110.649,2129.5709,
1107.738,2139.8238,
1104.828,2134.6882,
1101.917,2123.4472,
1099.006,2145.1187,
1096.096,2126.4351,
1093.185,2158.0432,
1090.275,2152.4073,
1087.364,2136.7775,
1084.453,2149.0613,
1081.543,2153.4209,
1078.632,2136.1125,
1075.722,2126.1239,
1072.811,2127.2923,
1069.901,2166.5891,
1066.990,2167.8833,
1064.079,2158.6533,
1061.169,2185.9812,
1058.258,2217.0053,
1055.348,2231.555,
1052.437,2250.7958,
1049.527,2262.7685,
1046.616,2269.7192,
1043.705,2284.3738,
1040.795,2304.4626,
1037.884,2319.5689,
1034.974,2332.2036,
1032.063,2358.761,
1029.153,2403.8648,
1026.242,2373.5913,
1023.331,2375.8331,
1020.421,2370.9232,
1017.510,2406.5988,
1014.600,2449.1879,
1011.689,2467.9254,
1008.778,2479.5636,
1005.868,2527.2104,
1002.957,2606.363,
1000.047,2734.98,
997.136,2784.9606,
994.226,2810.4689,
991.315,2834.6733,
988.404,2821.9071,
985.494,2777.5575,
982.583,2780.1272,
979.673,2758.5506,
976.762,2773.397,
973.852,2761.2113,
970.941,2733.2059,
968.030,2751.6503,
965.120,2752.543,
962.209,2762.7735,
959.299,2785.0392,
956.388,2775.0212,
953.477,2769.1316,
950.567,2762.6775,
947.656,2717.8558,
944.746,2781.5725,
941.835,2773.9724,
938.925,2771.5,
936.014,2769.4767,
933.103,2752.67,
930.193,2711.1175,
927.282,2653.0875,
924.372,2645.4771,
921.461,2623.8808,
918.551,2621.7284,
915.640,2617.0011,
912.729,2579.2011,
909.819,2507.7224,
906.908,2509.4073,
903.998,2541.3146,
901.087,2541.2254,
898.176,2554.6334,
895.266,2590.0526,
892.355,2630.2536,
889.445,2666.3421,
886.534,2702.3995,
883.624,2698.7347,
880.713,2741.9838,
877.802,2776.3413,
874.892,2744.4915,
871.981,2704.9735,
869.071,2725.0234,
866.160,2729.8799,
863.250,2724.2096,
860.339,2713.1304,
857.428,2705.6044,
854.518,2712.5983,
851.607,2646.8649,
848.697,2622.4315,
845.786,2590.5517,
842.875,2589.9197,
839.965,2629.5484,
837.054,2611.2209,
834.144,2586.3583,
831.233,2569.5009,
828.323,2571.4131,
825.412,2562.114,
822.501,2522.968,
819.591,2508.9192,
816.680,2452.4102,
813.770,2428.476,
810.859,2422.9512,
807.949,2418.8146,
805.038,2405.8031,
802.127,2400.0412,
799.217,2434.5334,
796.306,2381.2292,
793.396,2356.027,
790.485,2393.4471,
787.574,2388.7838,
784.664,2369.9213,
781.753,2359.7902,
778.843,2360.4207,
775.932,2370.3641,
773.022,2388.9523,
770.111,2424.1082,
767.200,2383.1052,
764.290,2377.5903,
761.379,2387.0448,
758.469,2384.3386,
755.558,2352.4545,
752.648,2317.4266,
749.737,2343.1395,
746.826,2325.9996,
743.916,2273.3764,
741.005,2226.0194,
738.095,2106.6735,
735.184,1992.3916,
732.274,1934.6195,
729.363,2001.8852,
726.452,2180.3869,
723.542,2257.2792,
720.631,2295.1397,
717.721,2297.4802,
714.810,2295.3068,
711.899,2306.9555,
708.989,2330.3563,
706.078,2297.6466,
703.168,2265.8184,
700.257,2267.828,
697.347,2292.2826,
694.436,2290.5617,
691.525,2255.998,
688.615,2235.2929,
685.704,2229.6585,
682.794,2235.0744,
679.883,2243.7523,
676.973,2249.3619,
674.062,2224.3386,
671.151,2219.5816,
668.241,2242.7447,
665.330,2275.0462,
662.420,2265.4614,
659.509,2262.2301,
656.598,2271.886,
653.688,2267.7867,
650.777,2209.8771,
647.867,2250.4898,
644.956,2247.7361,
642.046,2241.3292,
639.135,2246.0634,
636.224,2259.5318,
633.314,2265.8833,
630.403,2275.7769,
627.493,2290.3337,
624.582,2301.1451,
621.672,2286.0973,
618.761,2343.2554,
615.850,2349.3783,
612.940,2355.2106,
610.029,2391.6816,
607.119,2428.7942,
604.208,2393.4493,
601.297,2371.0193,
598.387,2361.0604,
595.476,2352.8714,
592.566,2356.8067,
589.655,2356.2042,
586.745,2325.1222,
583.834,2277.8146,
580.923,2250.4574,
578.013,2243.3947,
575.102,2266.7379,
572.192,2267.9931,
569.281,2250.2788,
566.371,2326.9759,
563.460,2332.3836,
560.549,2337.8346,
557.639,2336.1745,
554.728,2316.5548,
551.818,2364.9344,
548.907,2360.2647,
545.996,2366.8292,
543.086,2394.0099,
540.175,2401.0177,
537.265,2410.1914,
534.354,2451.6285,
531.444,2476.4031,
528.533,2444.5969,
525.622,2474.0829,
522.712,2498.0958,
519.801,2536.9954,
516.891,2581.5,
513.980,2581.5,
511.070,2630.1,
508.159,2689.1829,
505.248,2734.254,
502.338,2746.1373,
499.427,2870.4023,
496.517,2877.4798,
493.606,2885.0923,
490.695,2942.4956,
487.785,2964.0497,
484.874,2935.1888,
481.964,2913.3472,
479.053,2908.9709,
476.143,2915.1146,
473.232,2858.6671,
470.321,2867.6409,
467.411,2890.6229,
464.500,2861.4612,
461.590,2859.9297,
458.679,2962.9554,
455.769,3015.0484,
452.858,2943.5456,
449.947,2934.3784,
447.037,2934.3203,
444.126,2939.9364,
441.216,2948.5583,
438.305,2954.6538,
435.395,2954.8444,
432.484,2954.5,
429.573,2958.2275,
426.663,2974.1905,
423.752,2992.2381,
420.842,3027.8145,
417.931,3059.7762,
415.020,3053.7094,
412.110,3033.0148,
409.199,3099.8275,
406.289,3179.7138,
403.378,3186.4898,
400.468,3183.4658,
397.557,3174.2736,
394.646,3158.689,
391.736,3137.4276,
388.825,3135.1649,
385.915,3152.0624,
383.004,3176.6374,
380.094,3199.8071,
377.183,3205.8269,
374.272,3278.0615,
371.362,3341.3263,
368.451,3352.7796,
365.541,3390.3064,
362.630,3391.7602,
359.719,3411.1371,
356.809,3472.4611,
353.898,3438.7652,
350.988,3409.428,
348.077,3400.341,
345.167,3419.1594,
342.256,3412.4358,
339.345,3444.5117,
336.435,3441.1889,
333.524,3355.6744,
330.614,3392.9322,
327.703,3415.2815,
324.793,3430.1402,
321.882,3443.5595,
318.971,3468.0931,
316.061,3501.8923,
313.150,3534.2738,
310.240,3552.8267,
307.329,3596.3782,
304.418,3619.4274,
301.508,3636.5431,
298.597,3674.3044,
295.687,3838.6832,
292.776,3917.1667,
289.866,3934.9134,
286.955,4008.0472,
284.044,4116.5374,
281.134,4220.5266,
278.223,4317.8527,
275.313,4436.4864,
272.402,4539.9219,
269.492,4632.9381,
266.581,4719.1724,
263.670,4826.5087,
260.760,4892.4997,
257.849,4925.5265,
254.939,4928.462,
252.028,4945.1484,
249.117,4988.503,
246.207,5021.7036,
243.296,4979.9775,
240.386,4936.3205,
237.475,4890.1437,
234.565,4835.1207,
231.654,4743.8228,
228.743,4694.0055,
225.833,4605.6424,
222.922,4454.6167,
220.012,4435.6742,
217.101,4384.8449,
214.191,4326.4792,
211.280,4286.4687,
208.369,4245.1496,
205.459,4207.336,
202.548,4189.5307,
199.638,4253.3878,
196.727,4262.4665,
193.816,4258.2959,
190.906,4253.9763,
187.995,4210.5348,
185.085,4234.747,
182.174,4278.3041,
179.264,4277.5814,
176.353,4306.3351,
173.442,4324.6753,
170.532,4332.7844,
167.621,4369.5541,
164.711,4318.5341,
161.800,4196.652,
158.890,4000.8861,
155.979,3816.8985,
153.068,3547.612,
150.158,3201.3189,
147.247,2806.4452,
144.337,2354.9192,
141.426,1880.1467,
138.516,1394.0944,
135.605,1016.8302,
132.694,696.51681,
129.784,442.04416,
126.873,301.16358,
123.963,199.65902,
121.052,133.73501,
118.141,106.60673,
115.231,79.498327,
112.320,61.298189,
109.410,49.863737,
106.499,41.317874,
103.589,43.982036,
100.678,42.610809,
97.767,29.813933,
94.857,28.114022,
91.946,22.66267,
89.036,16.628979,
86.125,23.721032,
83.215,20.721717,
80.304,15.542269,
77.393,12.70959,
74.483,21.016754,
71.572,21.151775,
68.662,13.084395,
65.751,8.8456885,
62.840,13.280424,
59.930,19.125428,
57.019,17.715264,
54.109,14.514196,
51.198,10.690344,
48.288,6.5226498,
45.377,9.336162,
42.466,10.087781,
39.556,10.075593,
36.645,13.586544,
33.735,13.980752,
30.824,11.512017,
27.914,5.20144,
25.003,7.6131874,
22.092,10.791618,
19.182,13.568649,
16.271,15.667119,
13.361,42.208937,
10.450,109.2301,
7.539,293.58535,
4.629,350.79385,
1.718,304.76283,
-1.192,126.29383,
-4.103,70.078178,
-7.013,33.906926,
-9.924,0.5,
