,PL662E~1,
Raman shift [1/cm],Intensity,
3014.167,4.5,
3011.256,-2.0001074,
3008.346,119.47523,
3005.435,146.80742,
3002.525,156.59508,
2999.614,147.36103,
2996.704,154.8103,
2993.793,165.24309,
2990.882,159.76723,
2987.972,179.55549,
2985.061,178.52954,
2982.151,183.75548,
2979.240,194.60077,
2976.329,192.7541,
2973.419,216.99268,
2970.508,209.51662,
2967.598,210.73896,
2964.687,217.88791,
2961.777,222.31198,
2958.866,227.16419,
2955.955,225.94691,
2953.045,248.76622,
2950.134,241.25509,
2947.224,257.98397,
2944.313,262.81481,
2941.403,259.7979,
2938.492,274.21274,
2935.581,267.86566,
2932.671,281.70173,
2929.760,287.82692,
2926.850,281.70902,
2923.939,301.85981,
2921.028,290.94106,
2918.118,299.1398,
2915.207,301.6203,
2912.297,309.47884,
2909.386,313.10584,
2906.476,293.73317,
2903.565,308.75778,
2900.654,312.88827,
2897.744,302.13541,
2894.833,292.05636,
2891.923,300.66019,
2889.012,300.08381,
2886.102,295.47973,
2883.191,294.49906,
2880.280,293.28469,
2877.370,291.36047,
2874.459,287.55043,
2871.549,300.27624,
2868.638,321.27524,
2865.727,297.39996,
2862.817,313.77139,
2859.906,322.70228,
2856.996,317.99321,
2854.085,323.90127,
2851.175,325.76205,
2848.264,324.5735,
2845.353,349.46478,
2842.443,305.69443,
2839.532,329.12675,
2836.622,308.04492,
2833.711,306.55181,
2830.801,320.08971,
2827.890,311.1451,
2824.979,324.19189,
2822.069,332.35216,
2819.158,315.69946,
2816.248,324.4421,
2813.337,331.93293,
2810.427,325.11019,
2807.516,330.07547,
2804.605,336.04807,
2801.695,328.19737,
2798.784,327.64785,
2795.874,331.78496,
2792.963,331.85713,
2790.052,311.50429,
2787.142,326.78946,
2784.231,331.17701,
2781.321,322.43714,
2778.410,322.32995,
2775.500,342.64654,
2772.589,334.5,
2769.678,337.74913,
2766.768,341.5,
2763.857,333.9239,
2760.947,354.48109,
2758.036,348.11144,
2755.126,358.97863,
2752.215,351.96818,
2749.304,349.7554,
2746.394,353.13507,
2743.483,358.79999,
2740.573,359.72566,
2737.662,328.54141,
2734.751,341.42741,
2731.841,354.47437,
2728.930,365.96631,
2726.020,344.84201,
2723.109,339.08783,
2720.199,362.20628,
2717.288,361.30657,
2714.377,361.88754,
2711.467,359.41759,
2708.556,380.54253,
2705.646,360.37318,
2702.735,349.34795,
2699.825,370.83639,
2696.914,386.59547,
2694.003,381.85773,
2691.093,377.5,
2688.182,370.62667,
2685.272,377.89829,
2682.361,382.1059,
2679.450,387.87035,
2676.540,398.84963,
2673.629,374.13673,
2670.719,395.85028,
2667.808,379.56998,
2664.898,388.09727,
2661.987,397.76671,
2659.076,380.29743,
2656.166,385.08011,
2653.255,381.38776,
2650.345,397.04447,
2647.434,429.55687,
2644.524,413.70861,
2641.613,423.01477,
2638.702,403.94187,
2635.792,417.5638,
2632.881,408.07737,
2629.971,413.73493,
2627.060,413.33406,
2624.149,400.60938,
2621.239,412.03854,
2618.328,412.45761,
2615.418,407.18636,
2612.507,399.7411,
2609.597,435.01098,
2606.686,415.33132,
2603.775,421.54366,
2600.865,426.61943,
2597.954,429.45209,
2595.044,430.48229,
2592.133,429.60823,
2589.223,455.03055,
2586.312,435.42466,
2583.401,430.37595,
2580.491,449.7596,
2577.580,459.47194,
2574.670,442.77674,
2571.759,448.45462,
2568.848,432.74299,
2565.938,457.59523,
2563.027,461.42725,
2560.117,460.14485,
2557.206,474.58118,
2554.296,468.49313,
2551.385,452.20213,
2548.474,455.83308,
2545.564,463.08848,
2542.653,462.35235,
2539.743,475.41374,
2536.832,463.62149,
2533.922,471.37385,
2531.011,470.64939,
2528.100,483.10277,
2525.190,464.06025,
2522.279,489.37445,
2519.369,472.83924,
2516.458,484.16431,
2513.548,487.16356,
2510.637,496.90145,
2507.726,472.5,
2504.816,477.56314,
2501.905,479.06524,
2498.995,489.73888,
2496.084,490.43378,
2493.173,490.13179,
2490.263,496.29774,
2487.352,510.91573,
2484.442,500.34796,
2481.531,511.71272,
2478.621,513.19667,
2475.710,524.477,
2472.799,517.55386,
2469.889,513.25625,
2466.978,515.00522,
2464.068,515.37303,
2461.157,513.73002,
2458.247,513.48533,
2455.336,528.71136,
2452.425,534.5,
2449.515,529.97194,
2446.604,536.97468,
2443.694,540.96549,
2440.783,534.73536,
2437.872,524.2293,
2434.962,542.44931,
2432.051,533.64804,
2429.141,536.75282,
2426.230,533.95634,
2423.320,547.02863,
2420.409,544.8782,
2417.498,531.73875,
2414.588,533.94482,
2411.677,558.17728,
2408.767,555.82382,
2405.856,560.89769,
2402.946,541.39276,
2400.035,567.37091,
2397.124,570.80483,
2394.214,551.122,
2391.303,557.17954,
2388.393,563.97908,
2385.482,574.10344,
2382.571,569.58768,
2379.661,593.05827,
2376.750,586.28814,
2373.840,587.36251,
2370.929,602.32672,
2368.019,588.8128,
2365.108,595.3377,
2362.197,595.87537,
2359.287,609.07995,
2356.376,570.5722,
2353.466,604.5617,
2350.555,593.24017,
2347.645,601.6841,
2344.734,626.92863,
2341.823,603.01408,
2338.913,615.27613,
2336.002,615.34218,
2333.092,608.82171,
2330.181,622.04474,
2327.270,627.33498,
2324.360,624.78535,
2321.449,637.23809,
2318.539,637.09634,
2315.628,617.78696,
2312.718,618.98238,
2309.807,641.88518,
2306.896,633.75196,
2303.986,629.27917,
2301.075,638.5425,
2298.165,635.73053,
2295.254,650.11223,
2292.344,637.49579,
2289.433,652.82818,
2286.522,662.79455,
2283.612,674.8801,
2280.701,661.65249,
2277.791,659.86067,
2274.880,668.286,
2271.969,660.1502,
2269.059,653.52725,
2266.148,673.55008,
2263.238,692.9942,
2260.327,690.0518,
2257.417,701.29555,
2254.506,707.83616,
2251.595,697.21638,
2248.685,696.97307,
2245.774,683.98375,
2242.864,712.65712,
2239.953,696.85869,
2237.043,692.29285,
2234.132,721.0194,
2231.221,718.15625,
2228.311,714.97938,
2225.400,735.83774,
2222.490,748.61403,
2219.579,750.76477,
2216.669,748.48569,
2213.758,765.19806,
2210.847,731.39174,
2207.937,769.46411,
2205.026,770.6102,
2202.116,795.76221,
2199.205,803.92447,
2196.294,821.24398,
2193.384,815.84248,
2190.473,846.67724,
2187.563,851.4855,
2184.652,853.16897,
2181.742,880.38647,
2178.831,895.69072,
2175.920,935.23225,
2173.010,971.80159,
2170.099,1019.3621,
2167.189,1049.5502,
2164.278,1063.3965,
2161.368,1113.4988,
2158.457,1147.3962,
2155.546,1188.6501,
2152.636,1252.6116,
2149.725,1268.8356,
2146.815,1306.1986,
2143.904,1350.5,
2140.993,1347.4736,
2138.083,1352.4543,
2135.172,1393.374,
2132.262,1375.9542,
2129.351,1346.6827,
2126.441,1294.0241,
2123.530,1265.9276,
2120.619,1207.7939,
2117.709,1146.3156,
2114.798,1086.192,
2111.888,1021.8262,
2108.977,968.798,
2106.067,948.19136,
2103.156,929.78313,
2100.245,891.50753,
2097.335,898.80367,
2094.424,867.37219,
2091.514,855.76326,
2088.603,833.68888,
2085.692,832.76776,
2082.782,812.01812,
2079.871,818.35764,
2076.961,819.56458,
2074.050,843.06364,
2071.140,832.0864,
2068.229,815.96225,
2065.318,823.72377,
2062.408,830.81772,
2059.497,833.54766,
2056.587,823.96553,
2053.676,811.86677,
2050.766,822.57623,
2047.855,802.98414,
2044.944,816.57373,
2042.034,797.5,
2039.123,802.60101,
2036.213,808.51998,
2033.302,806.21735,
2030.391,835.55011,
2027.481,832.64651,
2024.570,836.61402,
2021.660,822.5052,
2018.749,841.74019,
2015.839,825.05578,
2012.928,839.66107,
2010.017,831.87676,
2007.107,823.89438,
2004.196,814.94047,
2001.286,813.10424,
1998.375,808.62893,
1995.465,801.78036,
1992.554,773.32965,
1989.643,810.04832,
1986.733,799.07193,
1983.822,788.67873,
1980.912,777.64901,
1978.001,800.06772,
1975.090,795.53053,
1972.180,779.15559,
1969.269,786.95406,
1966.359,788.06746,
1963.448,801.76289,
1960.538,790.64679,
1957.627,807.00776,
1954.716,793.95963,
1951.806,749.44388,
1948.895,770.94327,
1945.985,790.82353,
1943.074,777.34132,
1940.164,771.31712,
1937.253,744.44808,
1934.342,751.1925,
1931.432,775.80915,
1928.521,769.05786,
1925.611,770.26617,
1922.700,736.09393,
1919.790,780.7595,
1916.879,800.66301,
1913.968,790.51353,
1911.058,788.04654,
1908.147,763.91311,
1905.237,749.03682,
1902.326,780.33556,
1899.415,762.64267,
1896.505,740.58429,
1893.594,736.77135,
1890.684,759.12078,
1887.773,766.52614,
1884.863,757.86219,
1881.952,782.60975,
1879.041,753.40601,
1876.131,762.48823,
1873.220,758.78315,
1870.310,756.57175,
1867.399,768.30808,
1864.489,758.79902,
1861.578,741.8736,
1858.667,748.1407,
1855.757,767.48568,
1852.846,774.95644,
1849.936,759.47596,
1847.025,788.49756,
1844.114,796.28117,
1841.204,790.14685,
1838.293,784.50665,
1835.383,784.872,
1832.472,811.03565,
1829.562,839.91485,
1826.651,835.87578,
1823.740,840.69159,
1820.830,816.72023,
1817.919,806.05687,
1815.009,815.77481,
1812.098,824.6811,
1809.188,834.87982,
1806.277,801.27461,
1803.366,872.05082,
1800.456,845.93966,
1797.545,850.82638,
1794.635,826.82204,
1791.724,842.16991,
1788.813,844.10463,
1785.903,861.07944,
1782.992,863.59834,
1780.082,852.62146,
1777.171,847.8244,
1774.261,817.78507,
1771.350,838.53851,
1768.439,866.6071,
1765.529,875.77316,
1762.618,871.73624,
1759.708,869.60875,
1756.797,872.34848,
1753.887,875.01312,
1750.976,876.14136,
1748.065,873.27112,
1745.155,880.80317,
1742.244,874.24368,
1739.334,880.14,
1736.423,909.5224,
1733.512,914.40649,
1730.602,905.76785,
1727.691,914.24725,
1724.781,919.07315,
1721.870,940.42393,
1718.960,943.0333,
1716.049,957.60154,
1713.138,963.06499,
1710.228,956.53762,
1707.317,960.80743,
1704.407,959.70321,
1701.496,1002.3427,
1698.586,984.32437,
1695.675,963.78583,
1692.764,1012.6763,
1689.854,962.88186,
1686.943,998.1847,
1684.033,1008.2765,
1681.122,1044.8713,
1678.211,1024.6999,
1675.301,1102.2595,
1672.390,1084.4581,
1669.480,1070.7246,
1666.569,1098.8809,
1663.659,1128.5817,
1660.748,1133.9435,
1657.837,1158.7745,
1654.927,1258.3211,
1652.016,1168.6421,
1649.106,1214.8183,
1646.195,1228.6029,
1643.285,1274.3887,
1640.374,1312.2282,
1637.463,1300.4548,
1634.553,1353.4162,
1631.642,1415.6184,
1628.732,1517.9326,
1625.821,1590.5438,
1622.911,1657.1224,
1620.000,1774.0134,
1617.089,1939.1766,
1614.179,2034.8209,
1611.268,2167.481,
1608.358,2230.6438,
1605.447,2297.6148,
1602.536,2281.9304,
1599.626,2354.0946,
1596.715,2305.1363,
1593.805,2252.1004,
1590.894,2276.4428,
1587.984,2236.3293,
1585.073,2218.4394,
1582.162,2247.3908,
1579.252,2207.6751,
1576.341,2236.7521,
1573.431,2158.7845,
1570.520,2188.0064,
1567.610,2131.4793,
1564.699,2128.9759,
1561.788,2108.627,
1558.878,2030.272,
1555.967,1961.8421,
1553.057,1951.4309,
1550.146,1914.0965,
1547.235,1837.9126,
1544.325,1819.9004,
1541.414,1789.8355,
1538.504,1756.5828,
1535.593,1741.4842,
1532.683,1709.637,
1529.772,1695.3625,
1526.861,1669.9463,
1523.951,1626.0274,
1521.040,1614.7317,
1518.130,1602.5146,
1515.219,1607.7388,
1512.309,1630.1756,
1509.398,1560.9736,
1506.487,1524.6731,
1503.577,1531.267,
1500.666,1513.2835,
1497.756,1516.5251,
1494.845,1480.9402,
1491.934,1491.2354,
1489.024,1410.386,
1486.113,1388.9557,
1483.203,1445.2309,
1480.292,1394.8012,
1477.382,1346.5123,
1474.471,1389.6818,
1471.560,1345.9954,
1468.650,1323.5,
1465.739,1279.3062,
1462.829,1299.2613,
1459.918,1337.2349,
1457.008,1305.9303,
1454.097,1289.835,
1451.186,1323.4807,
1448.276,1324.2171,
1445.365,1317.5742,
1442.455,1347.9468,
1439.544,1323.2447,
1436.633,1279.4136,
1433.723,1316.889,
1430.812,1280.9536,
1427.902,1236.6804,
1424.991,1244.2625,
1422.081,1194.9562,
1419.170,1199.1406,
1416.259,1220.7516,
1413.349,1232.2972,
1410.438,1188.3145,
1407.528,1219.3556,
1404.617,1212.8594,
1401.707,1204.9282,
1398.796,1224.6923,
1395.885,1231.7402,
1392.975,1234.2084,
1390.064,1231.674,
1387.154,1214.3219,
1384.243,1179.2226,
1381.332,1148.3532,
1378.422,1219.7415,
1375.511,1224.4254,
1372.601,1298.2256,
1369.690,1390.2222,
1366.780,1397.3717,
1363.869,1453.6182,
1360.958,1505.2097,
1358.048,1535.3328,
1355.137,1552.8596,
1352.227,1569.5654,
1349.316,1592.3872,
1346.406,1640.7926,
1343.495,1718.96,
1340.584,1758.8568,
1337.674,1783.3928,
1334.763,1783.3468,
1331.853,1805.6004,
1328.942,1821.6209,
1326.032,1866.7279,
1323.121,1906.8795,
1320.210,1936.1458,
1317.300,1959.6656,
1314.389,1980.8058,
1311.479,2039.121,
1308.568,2111.9941,
1305.657,2128.0047,
1302.747,2137.73,
1299.836,2227.6426,
1296.926,2276.542,
1294.015,2385.0222,
1291.105,2401.8276,
1288.194,2492.9592,
1285.283,2585.6683,
1282.373,2640.078,
1279.462,2693.3816,
1276.552,2735.1851,
1273.641,2761.1658,
1270.731,2798.2015,
1267.820,2833.5,
1264.909,2827.3345,
1261.999,2782.8995,
1259.088,2793.8449,
1256.178,2772.2321,
1253.267,2675.6693,
1250.356,2621.7644,
1247.446,2542.0264,
1244.535,2473.192,
1241.625,2409.5149,
1238.714,2335.6682,
1235.804,2290.7137,
1232.893,2218.2581,
1229.982,2179.2309,
1227.072,2112.2378,
1224.161,2062.9533,
1221.251,2061.9451,
1218.340,2035.9963,
1215.430,2016.6463,
1212.519,1980.9013,
1209.608,1946.1069,
1206.698,1963.4364,
1203.787,1989.9673,
1200.877,1992.3328,
1197.966,1989.6354,
1195.055,2065.4391,
1192.145,2121.3266,
1189.234,2167.9396,
1186.324,2225.322,
1183.413,2263.3579,
1180.503,2278.6059,
1177.592,2274.8935,
1174.681,2206.161,
1171.771,2223.3049,
1168.860,2171.5057,
1165.950,2151.9868,
1163.039,2115.6751,
1160.129,2120.9652,
1157.218,2117.1935,
1154.307,2093.6767,
1151.397,2076.6369,
1148.486,2053.2983,
1145.576,2062.1508,
1142.665,2031.0739,
1139.754,2052.9089,
1136.844,2017.8824,
1133.933,1999.327,
1131.023,1998.9721,
1128.112,1994.1436,
1125.202,1980.8768,
1122.291,1971.8814,
1119.380,1988.4913,
1116.470,1987.6088,
1113.559,1992.1395,
1110.649,2019.6938,
1107.738,2041.5373,
1104.828,2038.5136,
1101.917,2023.0206,
1099.006,2017.397,
1096.096,2007.8225,
1093.185,2013.0905,
1090.275,2024.8298,
1087.364,2031.6167,
1084.453,2020.5633,
1081.543,2010.9382,
1078.632,2002.0982,
1075.722,1986.9538,
1072.811,2011.0585,
1069.901,2018.9178,
1066.990,2054.2583,
1064.079,2057.0559,
1061.169,2081.5628,
1058.258,2125.9447,
1055.348,2147.9752,
1052.437,2123.7283,
1049.527,2105.8091,
1046.616,2139.6934,
1043.705,2124.2309,
1040.795,2148.5097,
1037.884,2202.4188,
1034.974,2225.4652,
1032.063,2209.4613,
1029.153,2227.773,
1026.242,2221.7183,
1023.331,2214.0005,
1020.421,2231.3217,
1017.510,2264.1521,
1014.600,2289.421,
1011.689,2312.8938,
1008.778,2354.139,
1005.868,2370.0483,
1002.957,2431.1334,
1000.047,2546.06,
997.136,2580.2141,
994.226,2595.2382,
991.315,2618.5,
988.404,2607.7994,
985.494,2552.7493,
982.583,2563.8846,
979.673,2511.3582,
976.762,2530.8358,
973.852,2549.6598,
970.941,2538.5,
968.030,2536.9971,
965.120,2528.7685,
962.209,2592.7092,
959.299,2560.2968,
956.388,2542.5,
953.477,2550.3095,
950.567,2566.7285,
947.656,2579.8288,
944.746,2567.0855,
941.835,2588.365,
938.925,2603.3708,
936.014,2598.8893,
933.103,2584.5567,
930.193,2563.9141,
927.282,2516.4459,
924.372,2496.997,
921.461,2432.6424,
918.551,2426.7661,
915.640,2431.7009,
912.729,2412.3025,
909.819,2381.2751,
906.908,2356.8447,
903.998,2388.9053,
901.087,2372.6763,
898.176,2407.1739,
895.266,2468.435,
892.355,2492.0965,
889.445,2527.3457,
886.534,2550.0415,
883.624,2555.1728,
880.713,2568.7693,
877.802,2585.3213,
874.892,2590.8454,
871.981,2582.3952,
869.071,2535.6121,
866.160,2548.1988,
863.250,2562.742,
860.339,2555.3289,
857.428,2527.952,
854.518,2503.826,
851.607,2480.528,
848.697,2466.1827,
845.786,2464.6138,
842.875,2470.9955,
839.965,2474.4465,
837.054,2460.6023,
834.144,2469.7186,
831.233,2432.1695,
828.323,2428.8209,
825.412,2418.4551,
822.501,2364.9256,
819.591,2383.9328,
816.680,2385.3013,
813.770,2360.4399,
810.859,2329.2553,
807.949,2311.4293,
805.038,2315.7035,
802.127,2309.1185,
799.217,2306.2638,
796.306,2290.1756,
793.396,2270.7137,
790.485,2270.5031,
787.574,2315.1886,
784.664,2306.9875,
781.753,2295.4352,
778.843,2310.1033,
775.932,2315.0682,
773.022,2281.5144,
770.111,2288.055,
767.200,2291.5452,
764.290,2304.6354,
761.379,2318.2264,
758.469,2323.6166,
755.558,2315.2114,
752.648,2272.0374,
749.737,2277.8614,
746.826,2240.2766,
743.916,2165.0451,
741.005,2096.8885,
738.095,2029.5027,
735.184,1851.3158,
732.274,1809.7949,
729.363,1905.1171,
726.452,2064.9184,
723.542,2166.9019,
720.631,2194.6716,
717.721,2224.4138,
714.810,2260.534,
711.899,2282.094,
708.989,2241.7478,
706.078,2251.9169,
703.168,2239.9267,
700.257,2231.7377,
697.347,2236.5432,
694.436,2246.5835,
691.525,2212.8237,
688.615,2211.7891,
685.704,2209.4563,
682.794,2199.8617,
679.883,2195.4011,
676.973,2215.4354,
674.062,2225.8808,
671.151,2217.6651,
668.241,2201.0705,
665.330,2197.1807,
662.420,2211.5579,
659.509,2234.1829,
656.598,2232.0848,
653.688,2210.5893,
650.777,2198.4721,
647.867,2227.1399,
644.956,2218.0212,
642.046,2208.0854,
639.135,2207.9192,
636.224,2209.5477,
633.314,2219.075,
630.403,2241.01,
627.493,2248.7389,
624.582,2242.6783,
621.672,2256.9342,
618.761,2279.5382,
615.850,2292.0099,
612.940,2303.3307,
610.029,2319.7881,
607.119,2339.5288,
604.208,2329.4298,
601.297,2313.5326,
598.387,2299.0604,
595.476,2291.9856,
592.566,2307.7269,
589.655,2309.8521,
586.745,2287.8016,
583.834,2256.2062,
580.923,2244.5,
578.013,2244.5,
575.102,2249.6623,
572.192,2244.2106,
569.281,2231.2962,
566.371,2252.427,
563.460,2285.5406,
560.549,2303.3728,
557.639,2310.6485,
554.728,2316.9927,
551.818,2324.7959,
548.907,2293.5917,
545.996,2303.6032,
543.086,2355.8553,
540.175,2371.4282,
537.265,2396.4012,
534.354,2392.456,
531.444,2385.9091,
528.533,2402.6104,
525.622,2404.1623,
522.712,2399.0392,
519.801,2414.594,
516.891,2458.0204,
513.980,2519.9641,
511.070,2547.3348,
508.159,2580.3783,
505.248,2619.2685,
502.338,2658.4489,
499.427,2690.8658,
496.517,2731.1767,
493.606,2752.1351,
490.695,2747.8537,
487.785,2764.7891,
484.874,2768.7924,
481.964,2769.0847,
479.053,2757.1008,
476.143,2709.4871,
473.232,2698.5866,
470.321,2691.6074,
467.411,2679.3957,
464.500,2656.4503,
461.590,2693.9715,
458.679,2700.6479,
455.769,2697.5,
452.858,2700.2042,
449.947,2726.1779,
447.037,2744.8487,
444.126,2752.0212,
441.216,2755.5853,
438.305,2790.6341,
435.395,2807.9571,
432.484,2805.7482,
429.573,2807.1677,
426.663,2865.6985,
423.752,2853.0645,
420.842,2828.1459,
417.931,2825.1684,
415.020,2887.3538,
412.110,2896.8161,
409.199,2924.9278,
406.289,2955.9276,
403.378,2969.3053,
400.468,2911.8498,
397.557,2909.9528,
394.646,2917.689,
391.736,2894.5443,
388.825,2833.4515,
385.915,2833.5946,
383.004,2869.488,
380.094,2920.9972,
377.183,2950.3438,
374.272,2996.4946,
371.362,3034.9752,
368.451,3054.2385,
365.541,3115.7824,
362.630,3103.5493,
359.719,3109.3927,
356.809,3179.322,
353.898,3159.8532,
350.988,3151.7876,
348.077,3132.6563,
345.167,3091.3865,
342.256,3089.1453,
339.345,3102.3172,
336.435,3120.8846,
333.524,3136.584,
330.614,3107.5229,
327.703,3113.9022,
324.793,3131.8513,
321.882,3141.61,
318.971,3186.96,
316.061,3225.4508,
313.150,3243.7262,
310.240,3225.1733,
307.329,3298.1076,
304.418,3310.6297,
301.508,3281.2446,
298.597,3246.445,
295.687,3276.0075,
292.776,3306.9167,
289.866,3358.8596,
286.955,3502.9111,
284.044,3629.7599,
281.134,3745.562,
278.223,3856.7928,
275.313,3988.6899,
272.402,4083.3039,
269.492,4141.0056,
266.581,4168.8045,
263.670,4270.9946,
260.760,4318.7834,
257.849,4339.8627,
254.939,4352.3387,
252.028,4290.9732,
249.117,4298.1074,
246.207,4330.5224,
243.296,4315.1496,
240.386,4228.6111,
237.475,4180.8107,
234.565,4153.4932,
231.654,4007.4165,
228.743,3942.5533,
225.833,3876.9488,
222.922,3780.8308,
220.012,3702.1469,
217.101,3650.9828,
214.191,3608.9822,
211.280,3557.3324,
208.369,3519.8593,
205.459,3461.978,
202.548,3405.0153,
199.638,3436.9439,
196.727,3390.4881,
193.816,3379.1941,
190.906,3442.1287,
187.995,3403.0314,
185.085,3426.8556,
182.174,3462.2317,
179.264,3439.1032,
176.353,3471.7428,
173.442,3508.9028,
170.532,3533.9555,
167.621,3486.3711,
164.711,3414.1108,
161.800,3325.3557,
158.890,3222.4346,
155.979,3094.2519,
153.068,2895.834,
150.158,2637.5189,
147.247,2349.62,
144.337,1982.7019,
141.426,1581.4336,
138.516,1161.3353,
135.605,866.24361,
132.694,607.91243,
129.784,393.15912,
126.873,257.99958,
123.963,173.02392,
121.052,115.33554,
118.141,79.640439,
115.231,63.867452,
112.320,49.450917,
109.410,38.363645,
106.499,37.65149,
103.589,34.138473,
100.678,29.598648,
97.767,24.622085,
94.857,23.114022,
91.946,18.468891,
89.036,12.838694,
86.125,14.96631,
83.215,13.376319,
80.304,10.542269,
77.393,7.7095895,
74.483,11.43081,
71.572,12.775296,
68.662,11.292198,
65.751,9.1728443,
62.840,12.835318,
59.930,17.125428,
57.019,15.715264,
54.109,10.125552,
51.198,7.4048278,
48.288,9.4886751,
45.377,8.081919,
42.466,5.026684,
39.556,2.5360672,
36.645,8.8557791,
33.735,10.5,
30.824,9.6164521,
27.914,6.8117511,
25.003,8.3679124,
22.092,6.593859,
19.182,0.72882863,
16.271,7.72373,
13.361,6.7068782,
10.450,-10.879545,
7.539,-82.806028,
4.629,-245.03834,
1.718,-402.80606,
-1.192,-478.79481,
-4.103,-329.29059,
-7.013,-157.79094,
-9.924,-0.5,
