,PL1E3C~1,
Raman shift [1/cm],Intensity,
3014.167,-1,
3011.256,-1,
3008.346,40.355508,
3005.435,56.151941,
3002.525,57.302573,
2999.614,34.941591,
2996.704,50.592785,
2993.793,48.885368,
2990.882,56.251827,
2987.972,60.904146,
2985.061,48.206905,
2982.151,69.210095,
2979.240,49.330782,
2976.329,63,
2973.419,63.077022,
2970.508,70.09994,
2967.598,77,
2964.687,75.567256,
2961.777,85.777898,
2958.866,77.346201,
2955.955,72.141577,
2953.045,91.532431,
2950.134,77.723016,
2947.224,81.48397,
2944.313,81.820511,
2941.403,88.072077,
2938.492,80.745272,
2935.581,87.95707,
2932.671,102.03861,
2929.760,88.049989,
2926.850,72.522557,
2923.939,88.359812,
2921.028,97.476556,
2918.118,91.838789,
2915.207,96.715372,
2912.297,98.038082,
2909.386,102.37227,
2906.476,99.867966,
2903.565,106.37111,
2900.654,105.22346,
2897.744,84.138294,
2894.833,94.587637,
2891.923,89.945498,
2889.012,95.543352,
2886.102,94.832427,
2883.191,81.016048,
2880.280,86.722483,
2877.370,65.226781,
2874.459,49.163697,
2871.549,75.736814,
2868.638,87.364937,
2865.727,104.60386,
2862.817,105.82887,
2859.906,84.848994,
2856.996,109.48868,
2854.085,118.16178,
2851.175,106.26205,
2848.264,106.35783,
2845.353,108.82746,
2842.443,108.98607,
2839.532,105.47771,
2836.622,114.33138,
2833.711,110.78494,
2830.801,107.00735,
2827.890,104.3549,
2824.979,102.22204,
2822.069,114.93177,
2819.158,112.42049,
2816.248,107.54053,
2813.337,103.13414,
2810.427,112.95592,
2807.516,105.58281,
2804.605,112.97836,
2801.695,114.09212,
2798.784,98.552385,
2795.874,112.27968,
2792.963,113.49989,
2790.052,111.99979,
2787.142,109,
2784.231,111.12888,
2781.321,112.62284,
2778.410,109.07487,
2775.500,109.70241,
2772.589,113.69266,
2769.678,118.07168,
2766.768,121.86991,
2763.857,108.4239,
2760.947,123.94957,
2758.036,112.61144,
2755.126,109.2265,
2752.215,125.64073,
2749.304,111.2554,
2746.394,117.3286,
2743.483,119.40003,
2740.573,121.09738,
2737.662,119.23372,
2734.751,120.85932,
2731.841,121.35165,
2728.930,107.36856,
2726.020,119,
2723.109,126.09267,
2720.199,112.37182,
2717.288,116.64963,
2714.377,113.87082,
2711.467,123.32748,
2708.556,132.65979,
2705.646,121.61971,
2702.735,125.00516,
2699.825,127.06544,
2696.914,129.66683,
2694.003,128.77073,
2691.093,131.76775,
2688.182,125.94518,
2685.272,137.07966,
2682.361,134.05895,
2679.450,133.66253,
2676.540,138.83741,
2673.629,131.99551,
2670.719,125.64972,
2667.808,127.65955,
2664.898,136.81809,
2661.987,138.59993,
2659.076,125.52587,
2656.166,130.7576,
2653.255,128.36905,
2650.345,136.70417,
2647.434,149.59931,
2644.524,128.24702,
2641.613,140.48586,
2638.702,141.03156,
2635.792,138.84347,
2632.881,145.61897,
2629.971,140.27511,
2627.060,148.16594,
2624.149,148.94688,
2621.239,155.7752,
2618.328,148.25432,
2615.418,152.00909,
2612.507,144.27669,
2609.597,139.27545,
2606.686,146.9739,
2603.775,148.11905,
2600.865,141.17746,
2597.954,154.23957,
2595.044,161.64305,
2592.133,154.15911,
2589.223,154.02422,
2586.312,156.19597,
2583.401,161.55109,
2580.491,156.64424,
2577.580,159.9802,
2574.670,155.47191,
2571.759,162.33819,
2568.848,156.93925,
2565.938,152.71431,
2563.027,153.65907,
2560.117,156.18691,
2557.206,163.04059,
2554.296,170.22426,
2551.385,160.32208,
2548.474,173.11115,
2545.564,153.66477,
2542.653,158.14765,
2539.743,154.46919,
2536.832,164.55141,
2533.922,174.90538,
2531.011,164.3254,
2528.100,156.79792,
2525.190,168.11516,
2522.279,169.67171,
2519.369,165.71682,
2516.458,170.8881,
2513.548,178.89988,
2510.637,155.09041,
2507.726,186.06319,
2504.816,173.87373,
2501.905,168.43476,
2498.995,168.82084,
2496.084,164.16027,
2493.173,168.28974,
2490.263,178.19097,
2487.352,178.20867,
2484.442,183.2848,
2481.531,184.52659,
2478.621,178.09002,
2475.710,186.92332,
2472.799,176.75337,
2469.889,182.30195,
2466.978,180.34029,
2464.068,179.87303,
2461.157,187.07992,
2458.247,185.07336,
2455.336,185.44425,
2452.425,176.38677,
2449.515,190.66943,
2446.604,178.93545,
2443.694,192.06991,
2440.783,188.52252,
2437.872,187,
2434.962,190.15207,
2432.051,199.48766,
2429.141,199.28824,
2426.230,185.91268,
2423.320,194.62849,
2420.409,194.97442,
2417.498,199.57305,
2414.588,209.26995,
2411.677,214.39041,
2408.767,197.74705,
2405.856,197.46905,
2402.946,200.73816,
2400.035,187.61501,
2397.124,215.12299,
2394.214,216.21441,
2391.303,197.85637,
2388.393,200.47908,
2385.482,196.26437,
2382.571,195.78423,
2379.661,214.62791,
2376.750,217.47288,
2373.840,215.29377,
2370.929,214.98917,
2368.019,216.61453,
2365.108,216.18586,
2362.197,206.05474,
2359.287,211.57159,
2356.376,200.02642,
2353.466,219.81851,
2350.555,220.13518,
2347.645,231.55231,
2344.734,228.48386,
2341.823,217.16583,
2338.913,219.93432,
2336.002,217.96648,
2333.092,224.68963,
2330.181,227.50895,
2327.270,218.55005,
2324.360,210.74762,
2321.449,224.26191,
2318.539,232.57493,
2315.628,235.30256,
2312.718,229.70044,
2309.807,240.06831,
2306.896,240.24413,
2303.986,241.91562,
2301.075,244.53192,
2298.165,231.82671,
2295.254,229.97846,
2292.344,222.57673,
2289.433,236.03864,
2286.522,241.89289,
2283.612,251.11099,
2280.701,241.42156,
2277.791,253.27865,
2274.880,239.20994,
2271.969,251.77366,
2269.059,256.3515,
2266.148,266.29549,
2263.238,243.81083,
2260.327,245.86205,
2257.417,246.60944,
2254.506,251.35896,
2251.595,242.57457,
2248.685,250.3115,
2245.774,261.20867,
2242.864,251.28679,
2239.953,244.41373,
2237.043,255.61036,
2234.132,253.89871,
2231.221,271.47554,
2228.311,272.04125,
2225.400,268.83113,
2222.490,266.71344,
2219.579,275.13621,
2216.669,270.94754,
2213.758,279.39085,
2210.847,279.61209,
2207.937,287.67426,
2205.026,278.44402,
2202.116,283.44481,
2199.205,269.12471,
2196.294,288.48796,
2193.384,281.23747,
2190.473,272.28404,
2187.563,291.029,
2184.652,297.60245,
2181.742,304.54589,
2178.831,313,
2175.920,311.83424,
2173.010,319.70068,
2170.099,336.86508,
2167.189,362.98565,
2164.278,362.7608,
2161.368,377.57088,
2158.457,385.61098,
2155.546,400.62023,
2152.636,399.27664,
2149.725,411.97314,
2146.815,436.29925,
2143.904,432.20816,
2140.993,454.09521,
2138.083,466.83584,
2135.172,476.0084,
2132.262,473.74824,
2129.351,474.51035,
2126.441,441.42708,
2123.530,450.7194,
2120.619,423.11021,
2117.709,407.1095,
2114.798,397.0729,
2111.888,373.53743,
2108.977,361.649,
2106.067,353.24162,
2103.156,366.19753,
2100.245,349.99812,
2097.335,346.15707,
2094.424,341.19675,
2091.514,339.99458,
2088.603,336.69583,
2085.692,324.08561,
2082.782,303.22495,
2079.871,332.8588,
2076.961,324.09782,
2074.050,298.72727,
2071.140,313.48272,
2068.229,313.55079,
2065.318,316.56876,
2062.408,314.27233,
2059.497,308.02383,
2056.587,298.26773,
2053.676,291.81662,
2050.766,299.38415,
2047.855,300.42719,
2044.944,315.39904,
2042.034,312.54906,
2039.123,300.78114,
2036.213,311.11555,
2033.302,319.23899,
2030.391,316.05115,
2027.481,315.95116,
2024.570,309.57165,
2021.660,292.0052,
2018.749,319.73407,
2015.839,312.0584,
2012.928,307.60906,
2010.017,309.75353,
2007.107,303.83738,
2004.196,304.48809,
2001.286,302.18728,
1998.375,301,
1995.465,299.42679,
1992.554,294.61768,
1989.643,321.03222,
1986.733,308.87631,
1983.822,292.38552,
1980.912,309.1284,
1978.001,288.1614,
1975.090,280.16489,
1972.180,294.96542,
1969.269,288.07469,
1966.359,287.83791,
1963.448,296.84412,
1960.538,293.31943,
1957.627,318.74925,
1954.716,288.00544,
1951.806,301.39742,
1948.895,304.02639,
1945.985,273.06373,
1943.074,285,
1940.164,294.96176,
1937.253,321.60851,
1934.342,324.42728,
1931.432,304.45426,
1928.521,286.25907,
1925.611,265.86379,
1922.700,282.95165,
1919.790,311.39281,
1916.879,274.99923,
1913.968,273.99754,
1911.058,290.009,
1908.147,276.2657,
1905.237,275.4191,
1902.326,273.7022,
1899.415,291.76706,
1896.505,288.00613,
1893.594,291.55179,
1890.684,270.22228,
1887.773,268.35329,
1884.863,285.75626,
1881.952,308.34485,
1879.041,313.48702,
1876.131,289.38302,
1873.220,288.35842,
1870.310,298.28249,
1867.399,273.41583,
1864.489,293.07789,
1861.578,294.533,
1858.667,288.97306,
1855.757,286.98568,
1852.846,304.25641,
1849.936,300.14015,
1847.025,285.17518,
1844.114,295.02354,
1841.204,312.27622,
1838.293,299.0449,
1835.383,280.74399,
1832.472,285.62783,
1829.562,271.86276,
1826.651,290.98354,
1823.740,302.27203,
1820.830,326.69313,
1817.919,302.23932,
1815.009,315.54961,
1812.098,310.92126,
1809.188,309.06202,
1806.277,315.84508,
1803.366,308.13309,
1800.456,315.28556,
1797.545,302.35464,
1794.635,295.35499,
1791.724,297.27176,
1788.813,326.59691,
1785.903,313.95157,
1782.992,310.97469,
1780.082,325.1798,
1777.171,310.66488,
1774.261,300.71493,
1771.350,300.93625,
1768.439,312.12796,
1765.529,323.63799,
1762.618,333.51687,
1759.708,355.98936,
1756.797,349.49242,
1753.887,328.38484,
1750.976,340.43455,
1748.065,332.25346,
1745.155,322.36129,
1742.244,343.85051,
1739.334,335.82824,
1736.423,329.11962,
1733.512,377.29688,
1730.602,405.47224,
1727.691,370.61697,
1724.781,350.34766,
1721.870,323.05224,
1718.960,322.75562,
1716.049,360.91489,
1713.138,350.90008,
1710.228,375.8495,
1707.317,370.26971,
1704.407,367.20321,
1701.496,372.46929,
1698.586,384.08781,
1695.675,349.44307,
1692.764,389.60248,
1689.854,365.21258,
1686.943,345.64079,
1684.033,366.4536,
1681.122,372.89805,
1678.211,403.70496,
1675.301,416.95992,
1672.390,396.17945,
1669.480,455.73527,
1666.569,422.59373,
1663.659,391.39198,
1660.748,415.75199,
1657.837,454.43739,
1654.927,472.7114,
1652.016,419.68037,
1649.106,447.53858,
1646.195,468.85614,
1643.285,464.36719,
1640.374,521.11848,
1637.463,434.31506,
1634.553,505.89655,
1631.642,498.91314,
1628.732,491.13036,
1625.821,513.01963,
1622.911,542.83095,
1620.000,628.90391,
1617.089,609.41791,
1614.179,677.02593,
1611.268,663.59485,
1608.358,743.06686,
1605.447,765.8573,
1602.536,770.72755,
1599.626,807.79731,
1596.715,776.51116,
1593.805,748.85304,
1590.894,766.25541,
1587.984,783.72357,
1585.073,740.05589,
1582.162,743.6884,
1579.252,708.35815,
1576.341,712.01595,
1573.431,726.74761,
1570.520,717.00559,
1567.610,697.3527,
1564.699,691.27497,
1561.788,679.7325,
1558.878,649.73776,
1555.967,652.53462,
1553.057,628.10377,
1550.146,617.98907,
1547.235,650.15502,
1544.325,617.5366,
1541.414,590.42132,
1538.504,613.84506,
1535.593,594.83748,
1532.683,573.94425,
1529.772,578.0814,
1526.861,587.12807,
1523.951,611.05471,
1521.040,579.89917,
1518.130,551.18111,
1515.219,545.3608,
1512.309,521.96398,
1509.398,530.13314,
1506.487,523.06262,
1503.577,550.44445,
1500.666,526.57427,
1497.756,546.23719,
1494.845,538.24068,
1491.934,567.79212,
1489.024,504.26759,
1486.113,494.58228,
1483.203,485.11832,
1480.292,479.75744,
1477.382,459.60204,
1474.471,487.9973,
1471.560,488.56634,
1468.650,497.9822,
1465.739,473.89696,
1462.829,415.8196,
1459.918,427.77935,
1457.008,482.33875,
1454.097,488.28663,
1451.186,455.86074,
1448.276,418.65844,
1445.365,401.8594,
1442.455,435.01303,
1439.544,457.05725,
1436.633,471.88283,
1433.723,440.75679,
1430.812,425.96047,
1427.902,437.05291,
1424.991,397.24689,
1422.081,435.45152,
1419.170,464.92181,
1416.259,374.22262,
1413.349,409.39832,
1410.438,421.0022,
1407.528,361.35073,
1404.617,369.33759,
1401.707,417.66768,
1398.796,424.19933,
1395.885,423.81507,
1392.975,424.29093,
1390.064,393.47155,
1387.154,387.88723,
1384.243,345.75635,
1381.332,288.10665,
1378.422,299.85,
1375.511,355.12007,
1372.601,403.92166,
1369.690,455.14724,
1366.780,471.71239,
1363.869,481.99125,
1360.958,508.76779,
1358.048,493.11435,
1355.137,505.01536,
1352.227,554.96092,
1349.316,570.89045,
1346.406,554.36138,
1343.495,566.95126,
1340.584,611.49982,
1337.674,627.07363,
1334.763,661.52928,
1331.853,675.43775,
1328.942,689.34196,
1326.032,666.53138,
1323.121,674.33736,
1320.210,703.63907,
1317.300,747.2823,
1314.389,723.263,
1311.479,703.59206,
1308.568,730.76728,
1305.657,719.94276,
1302.747,714.68323,
1299.836,748.80839,
1296.926,778.22191,
1294.015,826.02673,
1291.105,828.88054,
1288.194,877.72332,
1285.283,902.17205,
1282.373,920.92182,
1279.462,961.39153,
1276.552,959.19673,
1273.641,961.683,
1270.731,1004.1224,
1267.820,970.15478,
1264.909,982.85683,
1261.999,959.4674,
1259.088,944.87346,
1256.178,950.85165,
1253.267,974.24867,
1250.356,935.62399,
1247.446,891.70437,
1244.535,876.99107,
1241.625,888.89997,
1238.714,893.47961,
1235.804,859.48064,
1232.893,829.62404,
1229.982,834,
1227.072,834,
1224.161,794.49632,
1221.251,781.78844,
1218.340,776.11313,
1215.430,753.63019,
1212.519,753.29934,
1209.608,757.76185,
1206.698,746.34083,
1203.787,789.4824,
1200.877,765.78009,
1197.966,778.36832,
1195.055,813.12994,
1192.145,811.48657,
1189.234,819.38068,
1186.324,841.36521,
1183.413,866.92387,
1180.503,878.29019,
1177.592,864.95947,
1174.681,851.20889,
1171.771,893.85576,
1168.860,887.60414,
1165.950,829.75345,
1163.039,824.38083,
1160.129,846.28551,
1157.218,858.03853,
1154.307,850.69257,
1151.397,843.12815,
1148.486,846.60516,
1145.576,815.9229,
1142.665,814.14708,
1139.754,787.15025,
1136.844,809.01211,
1133.933,814.54843,
1131.023,813.77677,
1128.112,805.14472,
1125.202,783.20773,
1122.291,790.88546,
1119.380,818.13858,
1116.470,832.25903,
1113.559,840.18599,
1110.649,830.86762,
1107.738,840.53872,
1104.828,841.10092,
1101.917,816.78672,
1099.006,810.76266,
1096.096,850.76367,
1093.185,830.56961,
1090.275,828.19073,
1087.364,831.43061,
1084.453,832.43754,
1081.543,826.74135,
1078.632,816.23927,
1075.722,813.64182,
1072.811,838.06205,
1069.901,838.93531,
1066.990,822.02504,
1064.079,824.12462,
1061.169,835.83682,
1058.258,841.30606,
1055.348,850.46438,
1052.437,879.96786,
1049.527,889.56364,
1046.616,878.26885,
1043.705,884.70765,
1040.795,879.33795,
1037.884,897.25246,
1034.974,923.46907,
1032.063,924.32331,
1029.153,903.51931,
1026.242,907.84409,
1023.331,930.49856,
1020.421,893.17391,
1017.510,899.65214,
1014.600,929.57325,
1011.689,944.85521,
1008.778,947.29322,
1005.868,949.37066,
1002.957,990.66767,
1000.047,1034.128,
997.136,1055.6352,
994.226,1051.6309,
991.315,1047.3069,
988.404,1061.4059,
985.494,1047.3671,
982.583,1019.1007,
979.673,1017.9266,
976.762,1030.742,
973.852,1025.7397,
970.941,1013.1493,
968.030,1020.445,
965.120,1005.9928,
962.209,1004.2878,
959.299,1033.0382,
956.388,1028.2011,
953.477,1010.0677,
950.567,1011.627,
947.656,1038.2282,
944.746,1055.2193,
941.835,1056.8098,
938.925,1046.4712,
936.014,1027.8485,
933.103,1021.7088,
930.193,1028.0073,
927.282,1005.8331,
924.372,1039.6574,
921.461,1021.1716,
918.551,1000.2195,
915.640,991.42494,
912.729,990.65822,
909.819,985.88795,
906.908,977.4637,
903.998,988.93046,
901.087,1006.6396,
898.176,1013.0912,
895.266,1008.7782,
892.355,1013.2665,
889.445,1062.7833,
886.534,1028.7703,
883.624,1037.4751,
880.713,1058.2693,
877.802,1075.1687,
874.892,1076.0138,
871.981,1044.3095,
869.071,1015.0701,
866.160,1013.4498,
863.250,1040.6859,
860.339,1056.8405,
857.428,1043.4261,
854.518,1041,
851.607,1041,
848.697,1029.3071,
845.786,1019.3293,
842.875,1026.5351,
839.965,1042.2523,
837.054,1016.5024,
834.144,1061.255,
831.233,1060.6673,
828.323,1049.076,
825.412,1052.9467,
822.501,1069.1488,
819.591,1031.1344,
816.680,1019.5833,
813.770,995.07241,
810.859,980.64628,
807.949,984.23661,
805.038,996.00884,
802.127,979.5463,
799.217,1002.5979,
796.306,984.32412,
793.396,961.27478,
790.485,962.89625,
787.574,984.40839,
784.664,968.82625,
781.753,988.81346,
778.843,986.2777,
775.932,988.35775,
773.022,1026.5216,
770.111,1036.3325,
767.200,1018.7285,
764.290,982.95035,
761.379,969.66509,
758.469,981.1166,
755.558,974.34038,
752.648,985.74483,
749.737,950.79102,
746.826,933.79733,
743.916,929.1817,
741.005,894.2355,
738.095,763.52333,
735.184,627.15491,
732.274,603.71718,
729.363,683.83164,
726.452,815.68748,
723.542,913.62408,
720.631,964.1078,
717.721,969.98016,
714.810,970.85223,
711.899,985.57427,
708.989,1000.9058,
706.078,1019.43,
703.168,988.17397,
700.257,967.06286,
697.347,978.04263,
694.436,1006.5199,
691.525,988.8362,
688.615,985.62891,
685.704,976.07105,
682.794,972.12756,
679.883,1000.9187,
676.973,976.87758,
674.062,978.38082,
671.151,997.77988,
668.241,1006.5641,
665.330,970.18908,
662.420,974.18274,
659.509,977.53972,
656.598,980.29825,
653.688,980.15966,
650.777,974.86408,
647.867,1000.3466,
644.956,985.56805,
642.046,971.34161,
639.135,971.72492,
636.224,982.20292,
633.314,1022.6938,
630.403,1005.2131,
627.493,989.45667,
624.582,995.88286,
621.672,999.84283,
618.761,1027.3578,
615.850,1051.4277,
612.940,1057.1693,
610.029,1042.8163,
607.119,1035.7096,
604.208,1033.58,
601.297,1051.9437,
598.387,1060.3946,
595.476,1034.8913,
592.566,1044.3362,
589.655,1028.507,
586.745,1008.1508,
583.834,992.46291,
580.923,986.83888,
578.013,960.15792,
575.102,927.76211,
572.192,936.86819,
569.281,986.297,
566.371,982.38388,
563.460,992.58202,
560.549,1006.2583,
557.639,1015.7314,
554.728,1018.6461,
551.818,1076.3895,
548.907,1096.313,
545.996,1087.3924,
543.086,1066.8388,
540.175,1070.732,
537.265,1059.4115,
534.354,1049.9831,
531.444,1053.0811,
528.533,1073.393,
525.622,1064.8576,
522.712,1082.4161,
519.801,1090.7993,
516.891,1077.5833,
513.980,1045.8372,
511.070,1080.3304,
508.159,1115.1027,
505.248,1130.2417,
502.338,1113.9715,
499.427,1147.1602,
496.517,1173.5353,
493.606,1170.8484,
490.695,1145.74,
487.785,1194.2368,
484.874,1166.4577,
481.964,1146.1694,
479.053,1147.574,
476.143,1158.3255,
473.232,1172.6687,
470.321,1172.6477,
467.411,1161.4283,
464.500,1146.2994,
461.590,1197.6039,
458.679,1171.8285,
455.769,1150.9724,
452.858,1173.0233,
449.947,1134.8267,
447.037,1165.8327,
444.126,1180.6485,
441.216,1167.8947,
438.305,1196.0861,
435.395,1190.8211,
432.484,1179.332,
429.573,1167.515,
426.663,1156.873,
423.752,1169.251,
420.842,1155.8192,
417.931,1146.5745,
415.020,1194.3511,
412.110,1201.8529,
409.199,1213.7799,
406.289,1227.9357,
403.378,1239.8079,
400.468,1183.1083,
397.557,1182.4811,
394.646,1191.7277,
391.736,1170.8169,
388.825,1133.8596,
385.915,1112.3561,
383.004,1108.1398,
380.094,1123.5337,
377.183,1173.1971,
374.272,1225.5374,
371.362,1256.234,
368.451,1254.2796,
365.541,1291.8064,
362.630,1282.3353,
359.719,1262.4484,
356.809,1255.8124,
353.898,1285.7643,
350.988,1292.3725,
348.077,1290.7096,
345.167,1289.773,
342.256,1285.2905,
339.345,1262.2113,
336.435,1246.0535,
333.524,1255.3388,
330.614,1297.8127,
327.703,1290.4638,
324.793,1279.5071,
321.882,1303.8756,
318.971,1252.5781,
316.061,1256.9741,
313.150,1276.9976,
310.240,1267.3501,
307.329,1296.3001,
304.418,1303.4405,
301.508,1280.6707,
298.597,1215.514,
295.687,1180.2014,
292.776,1189.7501,
289.866,1237.9463,
286.955,1308.8639,
284.044,1384.7799,
281.134,1426.7029,
278.223,1437.0957,
275.313,1465.0962,
272.402,1502.9497,
269.492,1546.9123,
266.581,1592.2102,
263.670,1595.1509,
260.760,1586.0747,
257.849,1577.7699,
254.939,1579.9715,
252.028,1584.3431,
249.117,1602.4458,
246.207,1619.5377,
243.296,1610.0212,
240.386,1627.2838,
237.475,1616.6381,
234.565,1585.9556,
231.654,1598.3721,
228.743,1563.6011,
225.833,1552.4644,
222.922,1589.7622,
220.012,1584.6623,
217.101,1558.9549,
214.191,1531.1587,
211.280,1521.7017,
208.369,1524.3641,
205.459,1526.3993,
202.548,1523.1142,
199.638,1500.6191,
196.727,1558.2313,
193.816,1585.6376,
190.906,1542.8984,
187.995,1540.0023,
185.085,1539.4729,
182.174,1538.8247,
179.264,1534.4881,
176.353,1535.9223,
173.442,1539.9005,
170.532,1540.7156,
167.621,1503.9459,
164.711,1479.8097,
161.800,1442.6693,
158.890,1371.4163,
155.979,1285.8346,
153.068,1189.0734,
150.158,1076.349,
147.247,925.57906,
144.337,776.01103,
141.426,622.15708,
138.516,460.85655,
135.605,331.57037,
132.694,228.56599,
129.784,148.57168,
126.873,89.931035,
123.963,60.358826,
121.052,40.484348,
118.141,24.064602,
115.231,28.263422,
112.320,27.034549,
109.410,22.863645,
106.499,22.15149,
103.589,19.758982,
100.678,13.925674,
97.767,3.2616108,
94.857,10.62288,
91.946,9.9688913,
89.036,4.4515916,
86.125,7.2884127,
83.215,5.3453982,
80.304,4.1971634,
77.393,7.7380131,
74.483,2.7589203,
71.572,0.36235211,
68.662,1.2078025,
65.751,3.3271557,
62.840,5.445106,
59.930,7,
57.019,7,
54.109,5.8056783,
51.198,6.2064371,
48.288,8.9773502,
45.377,6.163838,
42.466,6.236658,
39.556,6.9639328,
36.645,0.64422086,
33.735,2.1154908,
30.824,4.1164521,
27.914,1.3117511,
25.003,5.9810998,
22.092,6.093859,
19.182,-0.13729718,
16.271,-4.334238,
13.361,15.915815,
10.450,44.076964,
7.539,32.903918,
4.629,-20.599848,
1.718,-145.61559,
-1.192,-398.67906,
-4.103,-302.17407,
-7.013,-152.11508,
-9.924,1,
