,PL6A7C~1,
Wavenumbers [1/cm],Intensity,
3014.167,-1.625,
3011.256,1.4750215,
3008.346,49.821804,
3005.435,41.10645,
3002.525,50.715045,
2999.614,65.137336,
2996.704,58.923456,
2993.793,54.23272,
2990.882,52.123173,
2987.972,72.319505,
2985.061,59.158248,
2982.151,74.869133,
2979.240,55.086947,
2976.329,63.093603,
2973.419,78.928787,
2970.508,79.52501,
2967.598,75.466968,
2964.687,70.2697,
2961.777,78.939047,
2958.866,86.05107,
2955.955,80.963486,
2953.045,81.925338,
2950.134,85.587831,
2947.224,86.460406,
2944.313,92.071581,
2941.403,99.720346,
2938.492,95.800473,
2935.581,104.9394,
2932.671,104.85569,
2929.760,109.97885,
2926.850,102.8453,
2923.939,102.81425,
2921.028,110.76917,
2918.118,108.03369,
2915.207,99.140845,
2912.297,107.34538,
2909.386,120.98813,
2906.476,107.02671,
2903.565,110.23056,
2900.654,89.199079,
2897.744,117.08584,
2894.833,92.313183,
2891.923,85.320498,
2889.012,82.953036,
2886.102,76.816916,
2883.191,45.390104,
2880.280,-10.605893,
2877.370,-189.43278,
2874.459,-288.41087,
2871.549,-141.04482,
2868.638,21.292454,
2865.727,42.671101,
2862.817,81.133007,
2859.906,80.970437,
2856.996,91.881793,
2854.085,120.30363,
2851.175,99.23045,
2848.264,106.42916,
2845.353,93.849475,
2842.443,110.98266,
2839.532,98.166083,
2836.622,104.22331,
2833.711,102.32319,
2830.801,114.86397,
2827.890,125.0848,
2824.979,120.17708,
2822.069,131.38637,
2819.158,130.85478,
2816.248,117.16842,
2813.337,134.44696,
2810.427,121.76481,
2807.516,118.48297,
2804.605,113.66588,
2801.695,125.28288,
2798.784,116.74462,
2795.874,106.21931,
2792.963,117.08926,
2790.052,134.37114,
2787.142,127.03308,
2784.231,127.92471,
2781.321,112.81502,
2778.410,119.375,
2775.500,120.90672,
2772.589,126.49044,
2769.678,135.72991,
2766.768,141.31674,
2763.857,135.95303,
2760.947,131.89706,
2758.036,136.22214,
2755.126,143.85363,
2752.215,143.7569,
2749.304,122.33366,
2746.394,132.22176,
2743.483,140.32498,
2740.573,132.84176,
2737.662,138.70488,
2734.751,134.14202,
2731.841,147.53801,
2728.930,138.84528,
2726.020,146.26273,
2723.109,144.48842,
2720.199,159.41575,
2717.288,141.9188,
2714.377,154.56648,
2711.467,140.19478,
2708.556,139.5451,
2705.646,141.68485,
2702.735,154.03479,
2699.825,155.68958,
2696.914,157.89863,
2694.003,156.86118,
2691.093,152.4821,
2688.182,141.44685,
2685.272,156.97671,
2682.361,151.19269,
2679.450,163.53132,
2676.540,143.4563,
2673.629,147.04316,
2670.719,156.65227,
2667.808,153.81272,
2664.898,155.45282,
2661.987,155.70822,
2659.076,159.2306,
2656.166,166.4054,
2653.255,147.70663,
2650.345,166.48752,
2647.434,163.46074,
2644.524,166.69156,
2641.613,179.28952,
2638.702,168.61172,
2635.792,160.62426,
2632.881,168.10711,
2629.971,166.75753,
2627.060,165.3725,
2624.149,178.94376,
2621.239,180.39279,
2618.328,160.20545,
2615.418,160.35682,
2612.507,168.99555,
2609.597,169.375,
2606.686,175.23242,
2603.775,172.61707,
2600.865,185.49106,
2597.954,180.85414,
2595.044,184.42814,
2592.133,171.15206,
2589.223,188.2066,
2586.312,184.76693,
2583.401,190.09031,
2580.491,186.73076,
2577.580,183.34529,
2574.670,166.75869,
2571.759,181.93578,
2568.848,170.79478,
2565.938,210.42283,
2563.027,183.10681,
2560.117,176.1133,
2557.206,187.64806,
2554.296,204.48713,
2551.385,195.375,
2548.474,205.22705,
2545.564,191.9448,
2542.653,213.7005,
2539.743,217.05368,
2536.832,185.00677,
2533.922,213.20154,
2531.011,205.9497,
2528.100,214.30879,
2525.190,202.30697,
2522.279,208.62463,
2519.369,191.86566,
2516.458,185.59526,
2513.548,201.17475,
2510.637,226.12907,
2507.726,220.81366,
2504.816,205.56102,
2501.905,205.30244,
2498.995,203.68882,
2496.084,222.84189,
2493.173,203.90083,
2490.263,220.09369,
2487.352,224.95767,
2484.442,217.93816,
2481.531,223.84841,
2478.621,215.69725,
2475.710,230.32133,
2472.799,221.8952,
2469.889,219.79883,
2466.978,212.272,
2464.068,206.45965,
2461.157,221.33748,
2458.247,224.09557,
2455.336,226.99144,
2452.425,215.11083,
2449.515,230.84694,
2446.604,236.79208,
2443.694,223.72367,
2440.783,229.28153,
2437.872,234.33854,
2434.962,233.375,
2432.051,236.30098,
2429.141,237.95149,
2426.230,238.30981,
2423.320,244.51745,
2420.409,257.97122,
2417.498,253.57163,
2414.588,233.12034,
2411.677,236.84116,
2408.767,254.93996,
2405.856,276.5345,
2402.946,259.78519,
2400.035,250.27406,
2397.124,249.38569,
2394.214,260.2946,
2391.303,251.36958,
2388.393,239.86803,
2385.482,200.2256,
2382.571,210.79174,
2379.661,237.42162,
2376.750,233.16314,
2373.840,252.27806,
2370.929,269.23421,
2368.019,264.83314,
2365.108,264.69961,
2362.197,266.01332,
2359.287,270.75328,
2356.376,292.34154,
2353.466,273.02745,
2350.555,253.44979,
2347.645,256.21604,
2344.734,274.61926,
2341.823,256.72325,
2338.913,283.9541,
2336.002,279.97067,
2333.092,272.54762,
2330.181,278.46447,
2327.270,272.03506,
2324.360,285.18159,
2321.449,285.85118,
2318.539,279.94993,
2315.628,291.04686,
2312.718,293.49174,
2309.807,297.78488,
2306.896,300.35152,
2303.986,297.90103,
2301.075,300.82183,
2298.165,322.91394,
2295.254,305.89203,
2292.344,293.78986,
2289.433,316.03136,
2286.522,307.21434,
2283.612,309.65562,
2280.701,320.29875,
2277.791,316.69373,
2274.880,299.09102,
2271.969,301.33797,
2269.059,317.96084,
2266.148,289.54529,
2263.238,302.56417,
2260.327,308.58192,
2257.417,310.42611,
2254.506,311.82516,
2251.595,315.52047,
2248.685,323.6865,
2245.774,309.35333,
2242.864,310.57946,
2239.953,340.09918,
2237.043,325.36144,
2234.132,324.28664,
2231.221,332.375,
2228.311,324.5464,
2225.400,345.17798,
2222.490,337.44664,
2219.579,334.40071,
2216.669,346.3273,
2213.758,350.5044,
2210.847,348.98709,
2207.937,354.17141,
2205.026,371.59745,
2202.116,365.63721,
2199.205,372.56206,
2196.294,375.19302,
2193.384,371.796,
2190.473,357.78932,
2187.563,404.288,
2184.652,387.5799,
2181.742,386.98772,
2178.831,378.6085,
2175.920,385.71197,
2173.010,407.75198,
2170.099,391.37797,
2167.189,403.55439,
2164.278,425.58706,
2161.368,419.08811,
2158.457,429.39531,
2155.546,432.79812,
2152.636,430.16761,
2149.725,445.50921,
2146.815,455.20816,
2143.904,454.88428,
2140.993,472.02057,
2138.083,460.57558,
2135.172,467.90439,
2132.262,483.77729,
2129.351,484.04735,
2126.441,485.67599,
2123.530,486.29643,
2120.619,477.31087,
2117.709,460.94706,
2114.798,441.27489,
2111.888,419.73775,
2108.977,413.10348,
2106.067,413.89176,
2103.156,406.45648,
2100.245,388.37751,
2097.335,395.26505,
2094.424,409.19452,
2091.514,386.01747,
2088.603,396.76666,
2085.692,409.375,
2082.782,397.35901,
2079.871,388.26765,
2076.961,404.2126,
2074.050,394.61742,
2071.140,398.57047,
2068.229,397.64062,
2065.318,403.313,
2062.408,401.82205,
2059.497,405.97619,
2056.587,412.75862,
2053.676,404.75898,
2050.766,433.75766,
2047.855,389.5174,
2044.944,393.44391,
2042.034,390.92996,
2039.123,409.17635,
2036.213,412.64607,
2033.302,418.30951,
2030.391,425.00235,
2027.481,420.375,
2024.570,414.47516,
2021.660,404.90716,
2018.749,413.52696,
2015.839,416.56791,
2012.928,408.15688,
2010.017,401.59542,
2007.107,407.86285,
2004.196,412.0536,
2001.286,432.06402,
1998.375,433.41634,
1995.465,422.50893,
1992.554,397.58696,
1989.643,393.40956,
1986.733,411.44868,
1983.822,384.99243,
1980.912,422.94857,
1978.001,394.06146,
1975.090,390.58568,
1972.180,385.89229,
1969.269,385.375,
1966.359,381.48306,
1963.448,394.71582,
1960.538,393.07141,
1957.627,386.02515,
1954.716,384.40373,
1951.806,386.53047,
1948.895,367.95196,
1945.985,359.34069,
1943.074,383.92492,
1940.164,364.52878,
1937.253,354.20989,
1934.342,351.9135,
1931.432,374.84819,
1928.521,381.88104,
1925.611,358.19339,
1922.700,374.90953,
1919.790,372.76238,
1916.879,376.02625,
1913.968,345.41312,
1911.058,397.52514,
1908.147,371.24215,
1905.237,363.82349,
1902.326,342.64906,
1899.415,340.97254,
1896.505,314.81485,
1893.594,322.74084,
1890.684,320.95668,
1887.773,330.88343,
1884.863,358.06065,
1881.952,385.02235,
1879.041,389.10553,
1876.131,381.04559,
1873.220,369.78647,
1870.310,393.43774,
1867.399,382.58292,
1864.489,351.66014,
1861.578,384.68259,
1858.667,392.2403,
1855.757,363.96927,
1852.846,365.85194,
1849.936,359.32794,
1847.025,370.43583,
1844.114,374.25034,
1841.204,403.29808,
1838.293,411.88082,
1835.383,412.2005,
1832.472,426.64283,
1829.562,442.67943,
1826.651,413.86991,
1823.740,411.47847,
1820.830,413.28836,
1817.919,424.59065,
1815.009,399.11928,
1812.098,392.57973,
1809.188,425.20438,
1806.277,394.12748,
1803.366,401.95909,
1800.456,380.4526,
1797.545,433.19061,
1794.635,432.53602,
1791.724,439.87986,
1788.813,435.77294,
1785.903,420.46421,
1782.992,387.08289,
1780.082,333.49952,
1777.171,203.35731,
1774.261,168.40063,
1771.350,276.19702,
1768.439,383.4849,
1765.529,437.37876,
1762.618,472.97002,
1759.708,459.32039,
1756.797,452.125,
1753.887,471.32398,
1750.976,469.65772,
1748.065,461.45949,
1745.155,473.06522,
1742.244,454.88954,
1739.334,442.05971,
1736.423,460.74507,
1733.512,466.19207,
1730.602,462.38293,
1727.691,471.35459,
1724.781,490.89311,
1721.870,501.00837,
1718.960,532.79759,
1716.049,500.78216,
1713.138,511.32991,
1710.228,507.41262,
1707.317,473.64586,
1704.407,509.80287,
1701.496,527.13667,
1698.586,516.3632,
1695.675,534.08917,
1692.764,455.85037,
1689.854,498.25298,
1686.943,540.95852,
1684.033,497.51747,
1681.122,562.23651,
1678.211,536.63197,
1675.301,582.23316,
1672.390,567.24341,
1669.480,523.60764,
1666.569,553.46685,
1663.659,637.65638,
1660.748,594.85704,
1657.837,618.80639,
1654.927,594.31216,
1652.016,632.81612,
1649.106,611.08495,
1646.195,640.2861,
1643.285,676.96484,
1640.374,659.31228,
1637.463,656.86139,
1634.553,684.6459,
1631.642,769.25556,
1628.732,758.4224,
1625.821,766.39986,
1622.911,804.16087,
1620.000,873.49309,
1617.089,930.24067,
1614.179,967.33156,
1611.268,1005.9251,
1608.358,1055.0338,
1605.447,1161.0901,
1602.536,1125.4401,
1599.626,1184.9304,
1596.715,1165.8698,
1593.805,1112.3981,
1590.894,1109.017,
1587.984,1131.0273,
1585.073,1014.4098,
1582.162,1029.2751,
1579.252,1029.0103,
1576.341,1014.558,
1573.431,990.2293,
1570.520,1009.5994,
1567.610,998.74726,
1564.699,921.32208,
1561.788,935.9239,
1558.878,962.93368,
1555.967,920.46781,
1553.057,890.63368,
1550.146,862.79324,
1547.235,854.45892,
1544.325,878.60308,
1541.414,857.19116,
1538.504,828.43021,
1535.593,848.87775,
1532.683,862.40287,
1529.772,845.88765,
1526.861,839.40993,
1523.951,839.42971,
1521.040,822.66215,
1518.130,847.10623,
1515.219,910.33485,
1512.309,893.07763,
1509.398,826.2343,
1506.487,828.10735,
1503.577,826.48969,
1500.666,847.01725,
1497.756,824.41788,
1494.845,872.13432,
1491.934,842.21122,
1489.024,792.16159,
1486.113,857.13452,
1483.203,792.20975,
1480.292,814.76992,
1477.382,852.70493,
1474.471,770.59166,
1471.560,774.57864,
1468.650,754.26114,
1465.739,761.79215,
1462.829,792.27952,
1459.918,808.79493,
1457.008,804.75952,
1454.097,785.82105,
1451.186,782.77152,
1448.276,790.36458,
1445.365,756.51402,
1442.455,720.48783,
1439.544,743.78552,
1436.633,731.02545,
1433.723,721.27452,
1430.812,668.14301,
1427.902,715.26225,
1424.991,710.52344,
1422.081,699.36527,
1419.170,706.15154,
1416.259,713.8555,
1413.349,707.06735,
1410.438,656.0902,
1407.528,657.90596,
1404.617,696.79577,
1401.707,662.91089,
1398.796,588.0534,
1395.885,587.79259,
1392.975,610.76993,
1390.064,580.20428,
1387.154,601.60866,
1384.243,598.92608,
1381.332,580.93635,
1378.422,569.56822,
1375.511,573.31534,
1372.601,589.96327,
1369.690,642.80835,
1366.780,668.79977,
1363.869,677.00739,
1360.958,690.91911,
1358.048,715.76767,
1355.137,750.97941,
1352.227,760.39454,
1349.316,785.09141,
1346.406,846.61018,
1343.495,839.91503,
1340.584,816.08853,
1337.674,868.48383,
1334.763,894.622,
1331.853,901.11261,
1328.942,906.71178,
1326.032,931.84362,
1323.121,924.03764,
1320.210,938.6867,
1317.300,968.44289,
1314.389,1016.8062,
1311.479,1023.5985,
1308.568,1005.8202,
1305.657,1040.6799,
1302.747,1068.8779,
1299.836,1103.3037,
1296.926,1084.8788,
1294.015,1160.2633,
1291.105,1185.3885,
1288.194,1222.721,
1285.283,1236.387,
1282.373,1259.8905,
1279.462,1284.4532,
1276.552,1301.3435,
1273.641,1288.4966,
1270.731,1254.081,
1267.820,1247.5583,
1264.909,1224.8914,
1261.999,1221.8743,
1259.088,1235.5561,
1256.178,1264.6381,
1253.267,1245.5919,
1250.356,1223.4754,
1247.446,1211.6812,
1244.535,1207.3839,
1241.625,1197.0898,
1238.714,1187.7341,
1235.804,1200.4332,
1232.893,1211.6246,
1229.982,1211.9338,
1227.072,1169.3841,
1224.161,1184.0256,
1221.251,1167.2733,
1218.340,1115.0282,
1215.430,1112.9469,
1212.519,1132.7333,
1209.608,1123.035,
1206.698,1104.9283,
1203.787,1116.2695,
1200.877,1137.5422,
1197.966,1140.2396,
1195.055,1149.7607,
1192.145,1214.4878,
1189.234,1247.0533,
1186.324,1283.3779,
1183.413,1310.1415,
1180.503,1332.2731,
1177.592,1342.334,
1174.681,1252.4572,
1171.771,1293.5508,
1168.860,1257.8272,
1165.950,1258.4064,
1163.039,1234.2325,
1160.129,1235.762,
1157.218,1259.7586,
1154.307,1279.3432,
1151.397,1288.2852,
1148.486,1299.375,
1145.576,1298.2571,
1142.665,1272.5076,
1139.754,1288.2748,
1136.844,1290.2741,
1133.933,1288.7885,
1131.023,1256.2725,
1128.112,1229.6594,
1125.202,1255.0706,
1122.291,1280.6203,
1119.380,1268.5569,
1116.470,1287.09,
1113.559,1272.3635,
1110.649,1243.8006,
1107.738,1262.9883,
1104.828,1289.1267,
1101.917,1278.203,
1099.006,1263.2099,
1096.096,1294.5687,
1093.185,1281.3987,
1090.275,1279.5657,
1087.364,1282.8056,
1084.453,1294.4994,
1081.543,1292.7341,
1078.632,1278.1812,
1075.722,1277.7004,
1072.811,1299.2915,
1069.901,1340.3347,
1066.990,1298.1084,
1064.079,1313.2345,
1061.169,1319.852,
1058.258,1313.6811,
1055.348,1326.6608,
1052.437,1354.6836,
1049.527,1311.0128,
1046.616,1327.5205,
1043.705,1321.6673,
1040.795,1324.483,
1037.884,1349.6275,
1034.974,1349.7745,
1032.063,1323.39,
1029.153,1354.4402,
1026.242,1346.6556,
1023.331,1332.2092,
1020.421,1344.0141,
1017.510,1364.3819,
1014.600,1374.5291,
1011.689,1380.2167,
1008.778,1397.2284,
1005.868,1396.1124,
1002.957,1366.8604,
1000.047,1408.239,
997.136,1465.9005,
994.226,1501.0672,
991.315,1497.5012,
988.404,1460.3229,
985.494,1408.912,
982.583,1432.8956,
979.673,1440.7649,
976.762,1425.9361,
973.852,1412.607,
970.941,1412.1533,
968.030,1412.4674,
965.120,1390.5755,
962.209,1438.3178,
959.299,1432.21,
956.388,1449.8935,
953.477,1462.6206,
950.567,1462.7406,
947.656,1489.6059,
944.746,1514.243,
941.835,1487.8413,
938.925,1493.2199,
936.014,1490.2701,
933.103,1475.7255,
930.193,1465.5748,
927.282,1465.1376,
924.372,1442.3062,
921.461,1454.8394,
918.551,1412.7385,
915.640,1394.5229,
912.729,1420.132,
909.819,1429.9302,
906.908,1426.5605,
903.998,1451.0313,
901.087,1466.9226,
898.176,1465.2171,
895.266,1465.6274,
892.355,1480.5479,
889.445,1465.4411,
886.534,1502.9442,
883.624,1491.5357,
880.713,1476.2507,
877.802,1451.9632,
874.892,1384.0988,
871.981,1232.6661,
869.071,1075.6085,
866.160,1069.0738,
863.250,1217.8129,
860.339,1375.1608,
857.428,1435.923,
854.518,1457.9066,
851.607,1407.1504,
848.697,1316.5248,
845.786,1252.3888,
842.875,1266.874,
839.965,1363.3659,
837.054,1468.5983,
834.144,1488.4883,
831.233,1505.0408,
828.323,1521.761,
825.412,1545.8974,
822.501,1573.1835,
819.591,1566.5723,
816.680,1531.9198,
813.770,1518.9895,
810.859,1494.2642,
807.949,1478.1238,
805.038,1507.3706,
802.127,1515.6019,
799.217,1495.5041,
796.306,1495.1859,
793.396,1485.581,
790.485,1466.376,
787.574,1482.963,
784.664,1524.7887,
781.753,1515.6004,
778.843,1517.1766,
775.932,1525.5232,
773.022,1525.6861,
770.111,1553.4838,
767.200,1517.3094,
764.290,1525.6007,
761.379,1530.1344,
758.469,1517.7233,
755.558,1531.3718,
752.648,1564.7706,
749.737,1537.43,
746.826,1514.2466,
743.916,1505.862,
741.005,1498.2745,
738.095,1488.532,
735.184,1450.907,
732.274,1399.5622,
729.363,1386.8851,
726.452,1429.1291,
723.542,1438.8419,
720.631,1473.7793,
717.721,1498.6961,
714.810,1521.1761,
711.899,1540.7512,
708.989,1542.3651,
706.078,1561.6063,
703.168,1551.1945,
700.257,1535.599,
697.347,1523.8971,
694.436,1511.375,
691.525,1511.375,
688.615,1518.9219,
685.704,1537.6209,
682.794,1560.1196,
679.883,1572.3029,
676.973,1570.7002,
674.062,1577.3939,
671.151,1576.115,
668.241,1570.0897,
665.330,1571.1649,
662.420,1545.6055,
659.509,1542.9147,
656.598,1552.1645,
653.688,1564.9055,
650.777,1573.051,
647.867,1563.495,
644.956,1550.8494,
642.046,1490.0626,
639.135,1417.7768,
636.224,1434.7729,
633.314,1514.1667,
630.403,1547.9728,
627.493,1571.2017,
624.582,1590.5499,
621.672,1577.878,
618.761,1568.2557,
615.850,1596.7813,
612.940,1639.7933,
610.029,1667.4565,
607.119,1631.9231,
604.208,1665.2957,
601.297,1689.3483,
598.387,1684.33,
595.476,1648.4094,
592.566,1638.1775,
589.655,1670.7132,
586.745,1690.6769,
583.834,1685.1287,
580.923,1659.3039,
578.013,1647.5329,
575.102,1644.375,
572.192,1651.878,
569.281,1662.2818,
566.371,1645.0641,
563.460,1657.4844,
560.549,1673.6079,
557.639,1704.5172,
554.728,1757.3549,
551.818,1725.3619,
548.907,1700.702,
545.996,1687.8198,
543.086,1685.0395,
540.175,1683.4822,
537.265,1657.3009,
534.354,1672.4595,
531.444,1697.9323,
528.533,1700.2579,
525.622,1712.6731,
522.712,1669.2617,
519.801,1642.0482,
516.891,1650.2876,
513.980,1669.645,
511.070,1672.0793,
508.159,1681.4488,
505.248,1693.6283,
502.338,1700.6461,
499.427,1709.9081,
496.517,1716.3346,
493.606,1720.721,
490.695,1724.0169,
487.785,1728.6357,
484.874,1722.2665,
481.964,1707.1625,
479.053,1692.662,
476.143,1698.0377,
473.232,1691.181,
470.321,1700.0528,
467.411,1711.6152,
464.500,1708.832,
461.590,1687.3913,
458.679,1722.6471,
455.769,1743.4574,
452.858,1716.8862,
449.947,1731.4009,
447.037,1729.5209,
444.126,1733.0295,
441.216,1743.1844,
438.305,1736.327,
435.395,1745.8652,
432.484,1735.1217,
429.573,1702.0799,
426.663,1657.9917,
423.752,1491.8764,
420.842,1225,
417.931,957.76187,
415.020,839.458,
412.110,1233.3725,
409.199,1515.8052,
406.289,1655.4232,
403.378,1646.0471,
400.468,1549.2799,
397.557,1545.6249,
394.646,1605.0432,
391.736,1696.5682,
388.825,1702.602,
385.915,1687.3448,
383.004,1682.369,
380.094,1708.7954,
377.183,1736.637,
374.272,1756.3162,
371.362,1772.2615,
368.451,1786.7397,
365.541,1792.744,
362.630,1795.4675,
359.719,1795.4871,
356.809,1790.5205,
353.898,1743.3462,
350.988,1763.4667,
348.077,1790.7942,
345.167,1788.6939,
342.256,1775.2466,
339.345,1767.655,
336.435,1775.2011,
333.524,1803.375,
330.614,1803.375,
327.703,1818.2638,
324.793,1833.664,
321.882,1837.3353,
318.971,1820.9796,
316.061,1823.6763,
313.150,1835.8393,
310.240,1846.971,
307.329,1877.3898,
304.418,1920.3798,
301.508,1958.9504,
298.597,1964.8737,
295.687,1944.3805,
292.776,1937.7084,
289.866,1962.7705,
286.955,2059.5435,
284.044,2122.71,
281.134,2196.9204,
278.223,2273.7283,
275.313,2269.3072,
272.402,2317.1709,
269.492,2344.7705,
266.581,2321.8587,
263.670,2230.6964,
260.760,2273.852,
257.849,2351.7461,
254.939,2392.8435,
252.028,2392.6512,
249.117,2382.3248,
246.207,2382.4973,
243.296,2429.3476,
240.386,2413.4793,
237.475,2390.8494,
234.565,2378.2417,
231.654,2415.4913,
228.743,2401.511,
225.833,2357.6294,
222.922,2292.5404,
220.012,2253.1984,
217.101,2241.8471,
214.191,2225.453,
211.280,2165.8011,
208.369,2161.375,
205.459,2162.1735,
202.548,2164.2524,
199.638,2169.332,
196.727,2156.5458,
193.816,2144.5689,
190.906,2137.5308,
187.995,2056.44,
185.085,2056.2735,
182.174,2085.4162,
179.264,2078.1885,
176.353,2034.4428,
173.442,2041.1924,
170.532,2085.3782,
167.621,1999.5821,
164.711,1929.0739,
161.800,1842.1374,
158.890,1712.5864,
155.979,1563.2702,
153.068,1431.5871,
150.158,1297.3643,
147.247,1079.8248,
144.337,909.25199,
141.426,733.21607,
138.516,526.75139,
135.605,371.45944,
132.694,256.66955,
129.784,174.94668,
126.873,116.30603,
123.963,74.783353,
121.052,47.275794,
118.141,34.425558,
115.231,32.243289,
112.320,26.715005,
109.410,22.147618,
106.499,31.405636,
103.589,22.730165,
100.678,12.202026,
97.767,6.5145258,
94.857,12.611901,
91.946,14.165667,
89.036,11.358919,
86.125,4.9760714,
83.215,8.6842035,
80.304,10.980673,
77.393,3.8989738,
74.483,3.375,
71.572,5.5491127,
68.662,9.1671975,
65.751,7.0478443,
62.840,8.7835099,
59.930,10.438569,
57.019,6.9131591,
54.109,6.375,
51.198,6.6766093,
48.288,7.3523502,
45.377,4.538838,
42.466,2.138342,
39.556,0.60523716,
36.645,2.0096176,
33.735,-0.7404908,
30.824,-2.2996782,
27.914,1.9073733,
25.003,0.50708757,
22.092,0.34371367,
19.182,2.7182429,
16.271,13.210595,
13.361,61.20663,
10.450,119.93272,
7.539,111.55294,
4.629,-146.20586,
1.718,-474.35908,
-1.192,-763.67406,
-4.103,-655.39199,
-7.013,-391.37247,
-9.924,-1.625,
