,PLA19C~1,
Raman shift [1/cm],Intensity,
3014.167,1.125,
3011.256,0.125,
3008.346,62.158263,
3005.435,76.008391,
3002.525,64.577461,
2999.614,82.550982,
2996.704,90.532215,
2993.793,88.868088,
2990.882,92.995235,
2987.972,98.099775,
2985.061,89.578197,
2982.151,84.244327,
2979.240,103.95961,
2976.329,103.88729,
2973.419,122.24849,
2970.508,103.27501,
2967.598,116.93384,
2964.687,110.25951,
2961.777,108.93698,
2958.866,118.79365,
2955.955,113.84845,
2953.045,120.24358,
2950.134,137.15708,
2947.224,137.86878,
2944.313,125.08013,
2941.403,137.50638,
2938.492,137.13585,
2935.581,135.78636,
2932.671,138.64431,
2929.760,132.45192,
2926.850,132.02049,
2923.939,139.88199,
2921.028,154.74858,
2918.118,149.68419,
2915.207,144.30223,
2912.297,143.13346,
2909.386,164.2856,
2906.476,140.86939,
2903.565,157.17315,
2900.654,158.67809,
2897.744,148.31358,
2894.833,158.17664,
2891.923,160.8558,
2889.012,152.99783,
2886.102,161.93716,
2883.191,149.13822,
2880.280,125.80921,
2877.370,112.84595,
2874.459,120.125,
2871.549,139.92788,
2868.638,162.76211,
2865.727,156.6019,
2862.817,162.75335,
2859.906,165.21332,
2856.996,165.59103,
2854.085,160.80145,
2851.175,179.29068,
2848.264,164.4925,
2845.353,165.34067,
2842.443,164.3438,
2839.532,173.73678,
2836.622,152.42839,
2833.711,157.28042,
2830.801,161.92353,
2827.890,152.31206,
2824.979,159.11294,
2822.069,162.88619,
2819.158,148.58592,
2816.248,159.125,
2813.337,160.89817,
2810.427,157.69112,
2807.516,151.07469,
2804.605,159.53365,
2801.695,152.63814,
2798.784,168.35085,
2795.874,154.70549,
2792.963,151.91085,
2790.052,157.12457,
2787.142,151.92758,
2784.231,141.86724,
2781.321,153.37068,
2778.410,149.17956,
2775.500,150.70052,
2772.589,151.5088,
2769.678,146.55159,
2766.768,164.86482,
2763.857,161.91305,
2760.947,151.1313,
2758.036,159.74925,
2755.126,166.50534,
2752.215,162.27493,
2749.304,168.46492,
2746.394,174.21978,
2743.483,161.62502,
2740.573,158.89934,
2737.662,159.5821,
2734.751,170.35798,
2731.841,144.47481,
2728.930,167.57414,
2726.020,170.23727,
2723.109,159.59942,
2720.199,167.98748,
2717.288,171.125,
2714.377,191.15386,
2711.467,162.125,
2708.556,173.59279,
2705.646,179.05456,
2702.735,165.14048,
2699.825,185.50502,
2696.914,173.31498,
2694.003,175.28109,
2691.093,178.21406,
2688.182,180.52574,
2685.272,176.20466,
2682.361,181.46015,
2679.450,183.17029,
2676.540,182.88111,
2673.629,170.46133,
2670.719,181.97159,
2667.808,181.51408,
2664.898,181.02091,
2661.987,184.75819,
2659.076,184.36207,
2656.166,180.3674,
2653.255,189.97534,
2650.345,184.71665,
2647.434,195.41022,
2644.524,186.00514,
2641.613,195.32487,
2638.702,200.99875,
2635.792,180.62351,
2632.881,200.78557,
2629.971,195.78265,
2627.060,186.79,
2624.149,197.36875,
2621.239,199.38538,
2618.328,201.91306,
2615.418,196.46136,
2612.507,210.63878,
2609.597,191.06312,
2606.686,194.76154,
2603.775,189.60516,
2600.865,194.71205,
2597.954,202.64586,
2595.044,197.41995,
2592.133,204.29059,
2589.223,208.47448,
2586.312,214.56221,
2583.401,207.51188,
2580.491,212.67308,
2577.580,196.1448,
2574.670,208.125,
2571.759,200.96833,
2568.848,203.35709,
2565.938,209.07731,
2563.027,214.83184,
2560.117,202.13433,
2557.206,228.863,
2554.296,217.498,
2551.385,216.67893,
2548.474,216.27333,
2545.564,222.06169,
2542.653,220.88339,
2539.743,212.10035,
2536.832,212.61472,
2533.922,218.34577,
2531.011,228.5503,
2528.100,220.19121,
2525.190,226.65902,
2522.279,218.10986,
2519.369,233.2951,
2516.458,222.68095,
2513.548,217.46144,
2510.637,228.55538,
2507.726,227.94283,
2504.816,221.6887,
2501.905,220.19756,
2498.995,220.02078,
2496.084,237.80446,
2493.173,231.20347,
2490.263,231.88886,
2487.352,233.5006,
2484.442,241.55541,
2481.531,237.49205,
2478.621,233.58945,
2475.710,243.125,
2472.799,241.15193,
2469.889,239.00312,
2466.978,244.56829,
2464.068,236.50592,
2461.157,225.50999,
2458.247,222.00729,
2455.336,229.63382,
2452.425,224.64385,
2449.515,238.45557,
2446.604,249.83702,
2443.694,238.96217,
2440.783,237.31532,
2437.872,246.52611,
2434.962,253.44759,
2432.051,241.17435,
2429.141,239.83676,
2426.230,241.05981,
2423.320,253.39665,
2420.409,244.125,
2417.498,252.50141,
2414.588,261.39495,
2411.677,251.77045,
2408.767,266.08957,
2405.856,259.93927,
2402.946,252.8569,
2400.035,241.83157,
2397.124,271.13569,
2394.214,280.747,
2391.303,273.94275,
2388.393,274.08316,
2385.482,264.6978,
2382.571,275.46687,
2379.661,278.45047,
2376.750,282.75804,
2373.840,274.98751,
2370.929,265.22247,
2368.019,278.3904,
2365.108,275.47317,
2362.197,280.93047,
2359.287,281.72166,
2356.376,283.12324,
2353.466,272.07872,
2350.555,286.8901,
2347.645,291.71705,
2344.734,282.66876,
2341.823,289.95917,
2338.913,294.19068,
2336.002,296.52933,
2333.092,293.25142,
2330.181,302.42421,
2327.270,297.56504,
2324.360,269.83013,
2321.449,294.63179,
2318.539,282.10359,
2315.628,298.56106,
2312.718,291.99283,
2309.807,297.49127,
2306.896,309.32217,
2303.986,294.7809,
2301.075,300.27394,
2298.165,280.76889,
2295.254,311.34945,
2292.344,289.22871,
2289.433,293.78136,
2286.522,296.77228,
2283.612,311.78573,
2280.701,310.93219,
2277.791,298.32537,
2274.880,307.61892,
2271.969,320.25669,
2269.059,311.33208,
2266.148,323.71598,
2263.238,323.72732,
2260.327,337.0214,
2257.417,323.54833,
2254.506,333.78884,
2251.595,332.4196,
2248.685,305.23853,
2245.774,326.05858,
2242.864,345.41179,
2239.953,334.21467,
2237.043,340.08677,
2234.132,345.8653,
2231.221,322.78125,
2228.311,338.74095,
2225.400,333.46274,
2222.490,343.45395,
2219.579,333.73167,
2216.669,343.05823,
2213.758,333.64262,
2210.847,343.69424,
2207.937,371.18849,
2205.026,395.12559,
2202.116,377.02734,
2199.205,383.49912,
2196.294,391.57103,
2193.384,404.01903,
2190.473,420.70481,
2187.563,412.241,
2184.652,436.87806,
2181.742,441.125,
2178.831,456.51417,
2175.920,473.79349,
2173.010,486.62613,
2170.099,497.32441,
2167.189,479.125,
2164.278,480.59234,
2161.368,505.40875,
2158.457,544.85412,
2155.546,534.71633,
2152.636,537.18349,
2149.725,571.91692,
2146.815,568.45869,
2143.904,582.13242,
2140.993,602.91862,
2138.083,608.4776,
2135.172,602.125,
2132.262,609.00968,
2129.351,593.4904,
2126.441,590.65899,
2123.530,582.63114,
2120.619,536.23521,
2117.709,512.85125,
2114.798,503.17506,
2111.888,476.78901,
2108.977,444.125,
2106.067,435.78284,
2103.156,434.00484,
2100.245,422.11183,
2097.335,400.40249,
2094.424,390.57736,
2091.514,381.13042,
2088.603,391.0743,
2085.692,403.94649,
2082.782,392.33396,
2079.871,384.125,
2076.961,390.67295,
2074.050,407.16742,
2071.140,355.40036,
2068.229,384.58725,
2065.318,382.39726,
2062.408,384.76873,
2059.497,375.125,
2056.587,383.63649,
2053.676,381.40868,
2050.766,367.20273,
2047.855,379.78325,
2044.944,367.19391,
2042.034,364.44296,
2039.123,380.90614,
2036.213,381.51162,
2033.302,380.08134,
2030.391,365.65109,
2027.481,367.74681,
2024.570,379.02484,
2021.660,372.59803,
2018.749,368.84682,
2015.839,386.31791,
2012.928,382.96393,
2010.017,387.17712,
2007.107,385.63715,
2004.196,382.47022,
2001.286,378.54196,
1998.375,380.125,
1995.465,385.63125,
1992.554,368.71928,
1989.643,379.64111,
1986.733,386.78728,
1983.822,363.97138,
1980.912,367.75855,
1978.001,364.37918,
1975.090,365.92958,
1972.180,366.53856,
1969.269,377.05031,
1966.359,388.31426,
1963.448,369.20954,
1960.538,369.2401,
1957.627,378.25813,
1954.716,404.3781,
1951.806,371.125,
1948.895,372.27276,
1945.985,374.40604,
1943.074,363.90341,
1940.164,379.18236,
1937.253,356.85968,
1934.342,351.52661,
1931.432,345.32058,
1928.521,364.0611,
1925.611,370.68346,
1922.700,367.75069,
1919.790,367.125,
1916.879,346.65949,
1913.968,372.0918,
1911.058,326.70159,
1908.147,363.92209,
1905.237,366.94116,
1902.326,362.87166,
1899.415,364.31523,
1896.505,344.04071,
1893.594,354.6677,
1890.684,351.34728,
1887.773,354.09886,
1884.863,381.89721,
1881.952,365.92277,
1879.041,359.42043,
1876.131,347.28056,
1873.220,331.92141,
1870.310,365.39848,
1867.399,329.74875,
1864.489,387.45043,
1861.578,347.80619,
1858.667,366.03217,
1855.757,374.73359,
1852.846,357.084,
1849.936,350.05391,
1847.025,388.4194,
1844.114,371.83554,
1841.204,357.69493,
1838.293,372.11835,
1835.383,387.60149,
1832.472,383.485,
1829.562,394.56667,
1826.651,376.72257,
1823.740,380.5963,
1820.830,400.24323,
1817.919,365.03493,
1815.009,392.08683,
1812.098,402.61319,
1809.188,341.21817,
1806.277,380.1512,
1803.366,415.67582,
1800.456,390.00431,
1797.545,402.45138,
1794.635,374.44797,
1791.724,372.53264,
1788.813,411.91446,
1785.903,395.07063,
1782.992,428.88351,
1780.082,383.34267,
1777.171,382.78613,
1774.261,379.64535,
1771.350,404.98025,
1768.439,410.74393,
1765.529,420.94164,
1762.618,419.82127,
1759.708,403.58127,
1756.797,398.48864,
1753.887,416.25328,
1750.976,387.64203,
1748.065,391.08813,
1745.155,414.42817,
1742.244,401.90945,
1739.334,439.68499,
1736.423,454.76613,
1733.512,424.47452,
1730.602,440.30559,
1727.691,416.1156,
1724.781,452.53302,
1721.870,416.839,
1718.960,435.54759,
1716.049,422.82858,
1713.138,437.07991,
1710.228,448.82797,
1707.317,460.73986,
1704.407,461.2266,
1701.496,467.50583,
1698.586,475.51688,
1695.675,457.41083,
1692.764,500.62093,
1689.854,499.29823,
1686.943,503.95637,
1684.033,504.125,
1681.122,484.46485,
1678.211,532.65865,
1675.301,525.14967,
1672.390,566.13098,
1669.480,568.22126,
1666.569,580.29005,
1663.659,593.58231,
1660.748,620.45014,
1657.837,586.628,
1654.927,609.52329,
1652.016,625.56612,
1649.106,604.27561,
1646.195,650.55657,
1643.285,668.39844,
1640.374,679.49783,
1637.463,650.89963,
1634.553,693.258,
1631.642,703.21079,
1628.732,802.16055,
1625.821,808.14986,
1622.911,845.91087,
1620.000,903.39427,
1617.089,964.89117,
1614.179,1043.8689,
1611.268,1077.8981,
1608.358,1112.4862,
1605.447,1189.5542,
1602.536,1160.5771,
1599.626,1200.4419,
1596.715,1196.8642,
1593.805,1169.295,
1590.894,1174.051,
1587.984,1118.829,
1585.073,1139.0528,
1582.162,1130.7668,
1579.252,1117.4871,
1576.341,1082.2814,
1573.431,1079.6072,
1570.520,1079.5962,
1567.610,1099.9881,
1564.699,1053.4728,
1561.788,1038.0545,
1558.878,973.89697,
1555.967,984.74688,
1553.057,987.62519,
1550.146,942.71053,
1547.235,925.84761,
1544.325,909.89692,
1541.414,899.44546,
1538.504,889.76613,
1535.593,869.82128,
1532.683,879.58198,
1529.772,886.32522,
1526.861,860.48076,
1523.951,837.94338,
1521.040,814.67158,
1518.130,808.30611,
1515.219,809.20529,
1512.309,794.66553,
1509.398,779.83605,
1506.487,779.65232,
1503.577,803.21102,
1500.666,815.52876,
1497.756,771.27756,
1494.845,772.32456,
1491.934,753.1691,
1489.024,766.644,
1486.113,729.10916,
1483.203,737.67118,
1480.292,739.125,
1477.382,693.05485,
1474.471,702.07685,
1471.560,706.67367,
1468.650,695.87589,
1465.739,687.28206,
1462.829,692.88363,
1459.918,664.97554,
1457.008,664.52534,
1454.097,678.10889,
1451.186,685.3339,
1448.276,700.7352,
1445.365,670.98124,
1442.455,666.95799,
1439.544,685.125,
1436.633,684.77545,
1433.723,685.99132,
1430.812,702.94805,
1427.902,662.31321,
1424.991,628.19376,
1422.081,645.47454,
1419.170,637.62034,
1416.259,643.41557,
1413.349,604.34198,
1410.438,614.21773,
1407.528,611.25017,
1404.617,608.2349,
1401.707,632.85256,
1398.796,650.70892,
1395.885,645.4045,
1392.975,640.83336,
1390.064,645.65671,
1387.154,633.09553,
1384.243,562.57299,
1381.332,553.24369,
1378.422,542.08601,
1375.511,618.90205,
1372.601,682.79178,
1369.690,730.1289,
1366.780,752.9657,
1363.869,757.85148,
1360.958,742.27981,
1358.048,752.51767,
1355.137,783.52394,
1352.227,775.87649,
1349.316,804.67169,
1346.406,886.18426,
1343.495,865.13196,
1340.584,861.80338,
1337.674,878.52024,
1334.763,915.125,
1331.853,915.125,
1328.942,924.01964,
1326.032,938.99055,
1323.121,954.7214,
1320.210,979.76854,
1317.300,968.28641,
1314.389,962.88908,
1311.479,962.51342,
1308.568,948.68824,
1305.657,962.70149,
1302.747,998.04834,
1299.836,982.28728,
1296.926,1069.595,
1294.015,1079.7076,
1291.105,1066.0363,
1288.194,1137.6094,
1285.283,1163.285,
1282.373,1197.7655,
1279.462,1223.2621,
1276.552,1217.5108,
1273.641,1225.383,
1270.731,1248.9519,
1267.820,1224.2024,
1264.909,1229.2236,
1261.999,1210.4884,
1259.088,1275.249,
1256.178,1232.8764,
1253.267,1218.2202,
1250.356,1168.04,
1247.446,1132.217,
1244.535,1141.4598,
1241.625,1125.0029,
1238.714,1063.1614,
1235.804,1043.7463,
1232.893,1051.1281,
1229.982,1035.8065,
1227.072,996.87803,
1224.161,1005.8921,
1221.251,950.79779,
1218.340,920.76001,
1215.430,890.90145,
1212.519,882.44399,
1209.608,898.25125,
1206.698,910.29541,
1203.787,934.125,
1200.877,934.45933,
1197.966,939.85428,
1195.055,969.13545,
1192.145,1004.9301,
1189.234,1043.0231,
1186.324,1049.9424,
1183.413,1058.5819,
1180.503,1075.7642,
1177.592,1074.8423,
1174.681,1085.8579,
1171.771,1075.3117,
1168.860,996.71985,
1165.950,975.41808,
1163.039,986.79146,
1160.129,960.68297,
1157.218,948.70119,
1154.307,942.68681,
1151.397,918.0779,
1148.486,933.62357,
1145.576,940.27472,
1142.665,897.6549,
1139.754,924.22926,
1136.844,893.30865,
1133.933,879.47102,
1131.023,867.43422,
1128.112,869.26537,
1125.202,890.94629,
1122.291,867.01316,
1119.380,900.88248,
1116.470,876.17169,
1113.559,876.99125,
1110.649,870.26685,
1107.738,891.30845,
1104.828,898.56152,
1101.917,884.33828,
1099.006,905.25886,
1096.096,930.8998,
1093.185,878.21964,
1090.275,918.63486,
1087.364,876.97966,
1084.453,863.24936,
1081.543,872.00144,
1078.632,882.21344,
1075.722,903.81754,
1072.811,911.99373,
1069.901,924.21938,
1066.990,913.00003,
1064.079,929.17939,
1061.169,932.04969,
1058.258,940.25305,
1055.348,957.24312,
1052.437,951.84523,
1049.527,936.33339,
1046.616,967.61125,
1043.705,986.5403,
1040.795,976.43939,
1037.884,973.18238,
1034.974,974.40077,
1032.063,965.74047,
1029.153,962.07177,
1026.242,994.94011,
1023.331,1002.7912,
1020.421,986.69746,
1017.510,993.69217,
1014.600,1011.469,
1011.689,1020.6951,
1008.778,1026.3767,
1005.868,1051.2717,
1002.957,1067.6185,
1000.047,1126.909,
997.136,1162.8081,
994.226,1168.6635,
991.315,1156.1225,
988.404,1140.4493,
985.494,1141.0126,
982.583,1091.3323,
979.673,1068.0288,
976.762,1043.3377,
973.852,1051.3415,
970.941,1082.8671,
968.030,1087.5122,
965.120,1050.2431,
962.209,1078.377,
959.299,1110.7467,
956.388,1100.2864,
953.477,1079.0147,
950.567,1081.4906,
947.656,1107.019,
944.746,1121.4614,
941.835,1090.5423,
938.925,1096.9441,
936.014,1105.1367,
933.103,1105.4188,
930.193,1098.7316,
927.282,1075.5668,
924.372,1046.8162,
921.461,1058.5894,
918.551,1043.7923,
915.640,1028.7001,
912.729,1028.6617,
909.819,1030.5698,
906.908,1033.9395,
903.998,1001.5151,
901.087,1023.0408,
898.176,1054.4409,
895.266,1067.9032,
892.355,1066.4233,
889.445,1084.0479,
886.534,1081.6204,
883.624,1085.8348,
880.713,1105.4771,
877.802,1110.3137,
874.892,1086.4704,
871.981,1078.5726,
869.071,1055.1811,
866.160,1062.1644,
863.250,1066.0766,
860.339,1074.0744,
857.428,1085.9162,
854.518,1067.9084,
851.607,1060.4197,
848.697,1057.7494,
845.786,1058.1629,
842.875,1056.6782,
839.965,1057.5135,
837.054,1081.9017,
834.144,1062.0117,
831.233,1061.4581,
828.323,1028.505,
825.412,1006.3255,
822.501,1033.9761,
819.591,1033.1497,
816.680,981.84286,
813.770,983.53456,
810.859,970.91669,
807.949,962.48849,
805.038,1005.0387,
802.127,979.52176,
799.217,976.37961,
796.306,993.71973,
793.396,991.94163,
790.485,970.86255,
787.574,981.96571,
784.664,1004.1087,
781.753,994.70532,
778.843,985.67459,
775.932,987.44591,
773.022,1000.6753,
770.111,1023.5675,
767.200,992.38856,
764.290,968.25593,
761.379,969.15329,
758.469,987.58987,
755.558,991.83642,
752.648,948.66243,
749.737,940.77779,
746.826,944.38855,
743.916,917.9687,
741.005,830.12916,
738.095,741.63459,
735.184,641.02748,
732.274,586.19269,
729.363,633.34502,
726.452,780.73603,
723.542,894.8605,
720.631,914.12216,
717.721,926.71768,
714.810,946.0681,
711.899,963.92697,
708.989,950.20925,
706.078,946.11849,
703.168,952.41165,
700.257,952.17414,
697.347,947.29868,
694.436,954.95042,
691.525,948.51998,
688.615,941.4648,
685.704,932.94468,
682.794,922.38036,
679.883,909.8727,
676.973,904.2631,
674.062,922.90554,
671.151,940.69995,
668.241,942.45405,
665.330,921.57879,
662.420,931.16357,
659.509,934.39486,
656.598,945.511,
653.688,958.89496,
650.777,958.77306,
647.867,977.88493,
644.956,954.8824,
642.046,950.56294,
639.135,962.25595,
636.224,940.2006,
633.314,955.28543,
630.403,950.84805,
627.493,942.43648,
624.582,946.60043,
621.672,984.61615,
618.761,989.16476,
615.850,990.125,
612.940,998.66337,
610.029,1010.2587,
607.119,981.04233,
604.208,991.61525,
601.297,981.67095,
598.387,979.02345,
595.476,1011.4221,
592.566,1014.5704,
589.655,1016.4208,
586.745,998.46435,
583.834,959.85204,
580.923,909.02548,
578.013,892.54607,
575.102,907.627,
572.192,927.48427,
569.281,937.5468,
566.371,939.89467,
563.460,965.52186,
560.549,967.35398,
557.639,961.61632,
554.728,971.66699,
551.818,980.25046,
548.907,997.96974,
545.996,1008.5138,
543.086,1008.1184,
540.175,1003.4465,
537.265,1028.4748,
534.354,1028.0912,
531.444,1018.961,
528.533,1020.2973,
525.622,1008.6581,
522.712,1004.3047,
519.801,1014.1995,
516.891,1033.69,
513.980,1041.433,
511.070,1035.0815,
508.159,1045.4969,
505.248,1069.3884,
502.338,1097.125,
499.427,1097.125,
496.517,1114.0947,
493.606,1121.4046,
490.695,1111.6228,
487.785,1122.3999,
484.874,1146.0966,
481.964,1148.5736,
479.053,1128.1384,
476.143,1098.9558,
473.232,1119.4265,
470.321,1126.1787,
467.411,1136.788,
464.500,1172.4572,
461.590,1106.6035,
458.679,1117.8409,
455.769,1130.7827,
452.858,1106.2045,
449.947,1106.9685,
447.037,1127.1481,
444.126,1141.2341,
441.216,1141.5375,
438.305,1132.3944,
435.395,1139.6483,
432.484,1127.4549,
429.573,1111.0476,
426.663,1140.6931,
423.752,1103.3721,
420.842,1068.7709,
417.931,1062.9923,
415.020,1115.3191,
412.110,1109.0773,
409.199,1121.2839,
406.289,1144.5044,
403.378,1167.166,
400.468,1179.2619,
397.557,1152.276,
394.646,1114.2366,
391.736,1089.8594,
388.825,1081.5629,
385.915,1056.7729,
383.004,1037.125,
380.094,1042.3075,
377.183,1143.8918,
374.272,1174.2961,
371.362,1192.313,
368.451,1231.2162,
365.541,1232.7173,
362.630,1241.8648,
359.719,1253.5645,
356.809,1263.6266,
353.898,1255.3898,
350.988,1257.4649,
348.077,1259.0921,
345.167,1254.0115,
342.256,1251.7703,
339.345,1244.7478,
336.435,1253.8374,
333.524,1291.8666,
330.614,1283.6699,
327.703,1269.3167,
324.793,1277.9749,
321.882,1335.0403,
318.971,1300.0985,
316.061,1307.1692,
313.150,1324.3536,
310.240,1315.4482,
307.329,1338.708,
304.418,1349.0369,
301.508,1348.9435,
298.597,1344.501,
295.687,1346.1567,
292.776,1367.9584,
289.866,1420.3229,
286.955,1530.393,
284.044,1604.3149,
281.134,1677.7458,
278.223,1760.9688,
275.313,1869.2865,
272.402,1919.4275,
269.492,1963.8395,
266.581,2017.4403,
263.670,2021.8514,
260.760,2061.259,
257.849,2087.9129,
254.939,2064.4287,
252.028,2172.7017,
249.117,2176.2083,
246.207,2123.3592,
243.296,2093.3456,
240.386,2101.8789,
237.475,2073.9324,
234.565,2011.7628,
231.654,1965.0183,
228.743,1902.1911,
225.833,1872.8817,
222.922,1891.9315,
220.012,1823.4473,
217.101,1762.3585,
214.191,1722.5621,
211.280,1724.017,
208.369,1726.1434,
205.459,1688.3977,
202.548,1635.1389,
199.638,1664.1649,
196.727,1666.0915,
193.816,1686.9058,
190.906,1741.998,
187.995,1738.3779,
185.085,1740.9078,
182.174,1727.6914,
179.264,1663.3652,
176.353,1743.9117,
173.442,1763.7578,
170.532,1712.377,
167.621,1714.5399,
164.711,1699.8835,
161.800,1664.4977,
158.890,1601.1617,
155.979,1507.743,
153.068,1391.4578,
150.158,1254.0083,
147.247,1094.6229,
144.337,900.75544,
141.426,706.96036,
138.516,529.17133,
135.605,367.13002,
132.694,247.72429,
129.784,162.30298,
126.873,96.511039,
123.963,67.760106,
121.052,53.008819,
118.141,45.155897,
115.231,28.071311,
112.320,22.819544,
109.410,24.988645,
106.499,24.27649,
103.589,20.203219,
100.678,15.766891,
97.767,12.212204,
94.857,8.6600548,
91.946,8.7374435,
89.036,11.237898,
86.125,11.947103,
83.215,11.59408,
80.304,9.2095385,
77.393,3.544179,
74.483,5.7455398,
71.572,7.4873521,
68.662,8.0557325,
65.751,7.3492814,
62.840,8.570106,
59.930,8.8139966,
57.019,3.8784227,
54.109,1.3335175,
51.198,1.9346557,
48.288,6.175962,
45.377,12.506365,
42.466,13.888342,
39.556,11.779644,
36.645,9.6730736,
33.735,12.240491,
30.824,14.904113,
27.914,14.202938,
25.003,17.238187,
22.092,16.864668,
19.182,12.651306,
16.271,28.739579,
13.361,127.84575,
10.450,298.39331,
7.539,549.78684,
4.629,604.28218,
1.718,480.16051,
-1.192,108.58247,
-4.103,17.980466,
-7.013,-5.9227092,
-9.924,3.125,
