,PLIQUI~1,
Wavenumbers [1/cm],Intensity,
3014.167,-2.625,
3011.256,1.2749785,
3008.346,49.124705,
3005.435,38.184189,
3002.525,51.715045,
2999.614,64.612664,
2996.704,61.286342,
2993.793,38.347352,
2990.882,57.680353,
2987.972,75.284191,
2985.061,58.705051,
2982.151,55.971635,
2979.240,54.85693,
2976.329,68.385921,
2973.419,63.69772,
2970.508,82.07498,
2967.598,72.088253,
2964.687,75.449048,
2961.777,68.16115,
2958.866,86.385393,
2955.955,79.963486,
2953.045,96.842569,
2950.134,93.06594,
2947.224,93.029783,
2944.313,115.82443,
2941.403,108.55338,
2938.492,114.78963,
2935.581,111.19217,
2932.671,110.81708,
2929.760,116.02884,
2926.850,115.16598,
2923.939,123.77688,
2921.028,123.53977,
2918.118,112.75409,
2915.207,102.43193,
2912.297,106.34961,
2909.386,127.34581,
2906.476,112.15029,
2903.565,111.375,
2900.654,110.76327,
2897.744,115.22413,
2894.833,95.540094,
2891.923,84.375,
2889.012,89.282517,
2886.102,97.025023,
2883.191,58.397656,
2880.280,29.365415,
2877.370,-101.30492,
2874.459,-219.01444,
2871.549,-89.098097,
2868.638,39.974923,
2865.727,50.986489,
2862.817,85.218571,
2859.906,90.375,
2856.996,99.831977,
2854.085,117.29728,
2851.175,104.54068,
2848.264,96.164168,
2845.353,104.5044,
2842.443,118.36107,
2839.532,99.330413,
2836.622,109.46484,
2833.711,105.95271,
2830.801,102.87868,
2827.890,127.95539,
2824.979,114.65899,
2822.069,110.43186,
2819.158,119.93565,
2816.248,119.15684,
2813.337,141.85916,
2810.427,119.15461,
2807.516,117.64125,
2804.605,117.60096,
2801.695,120.67763,
2798.784,113.81854,
2795.874,116.08476,
2792.963,112.01766,
2790.052,132.36964,
2787.142,121.96727,
2784.231,140.08463,
2781.321,121.56358,
2778.410,120.64024,
2775.500,118.43845,
2772.589,126.72133,
2769.678,130.30332,
2766.768,125.69344,
2763.857,131.26903,
2760.947,125.87815,
2758.036,124.68072,
2755.126,141.52243,
2752.215,136.82055,
2749.304,133.77969,
2746.394,119.7036,
2743.483,133.87498,
2740.573,133.93914,
2737.662,130.14128,
2734.751,120.14202,
2731.841,122.83471,
2728.930,129.21384,
2726.020,144.92593,
2723.109,125.4165,
2720.199,142.65004,
2717.288,140.18157,
2714.377,144.24582,
2711.467,143.78489,
2708.556,138.24742,
2705.646,132.83978,
2702.735,143.86726,
2699.825,139.30956,
2696.914,153.70865,
2694.003,156.63191,
2691.093,156.5892,
2688.182,158.19352,
2685.272,145.21568,
2682.361,138.25164,
2679.450,140.99224,
2676.540,137.51727,
2673.629,140.7248,
2670.719,147.50625,
2667.808,159.18046,
2664.898,155.93336,
2661.987,158.10829,
2659.076,148.5194,
2656.166,149.97237,
2653.255,157.85629,
2650.345,160.72709,
2647.434,141.00404,
2644.524,159.14719,
2641.613,165.86086,
2638.702,160.50125,
2635.792,154.43582,
2632.881,162.75603,
2629.971,160.24749,
2627.060,162.54156,
2624.149,161.99688,
2621.239,160.375,
2618.328,161.33261,
2615.418,159.04773,
2612.507,163.82161,
2609.597,149.30314,
2606.686,176.54368,
2603.775,172.25198,
2600.865,165.43303,
2597.954,183.47083,
2595.044,181.41043,
2592.133,166.03735,
2589.223,167.61606,
2586.312,161.22926,
2583.401,161.78375,
2580.491,175.52399,
2577.580,167.37335,
2574.670,162.50068,
2571.759,165.58732,
2568.848,164.02687,
2565.938,169.18454,
2563.027,167.00909,
2560.117,160.65536,
2557.206,172.744,
2554.296,170.86013,
2551.385,173.19305,
2548.474,192.74563,
2545.564,181.91314,
2542.653,189.92198,
2539.743,190.96742,
2536.832,183.375,
2533.922,200.965,
2531.011,179.49965,
2528.100,187.17638,
2525.190,196.23361,
2522.279,195.34324,
2519.369,177.39369,
2516.458,176.03577,
2513.548,170.18408,
2510.637,198.68241,
2507.726,205.87315,
2504.816,194.49788,
2501.905,182.99817,
2498.995,197.67359,
2496.084,199.00216,
2493.173,184.74321,
2490.263,205.70047,
2487.352,202.6254,
2484.442,202.67909,
2481.531,191.00795,
2478.621,183.39392,
2475.710,217.28299,
2472.799,200.19569,
2469.889,188.25312,
2466.978,186.60186,
2464.068,191.07873,
2461.157,205.5675,
2458.247,206.375,
2455.336,210.99144,
2452.425,196.4363,
2449.515,205.375,
2446.604,208.54779,
2443.694,212.04934,
2440.783,226.56869,
2437.872,195.59379,
2434.962,199.01095,
2432.051,201.6406,
2429.141,202.83393,
2426.230,213.39713,
2423.320,219.53212,
2420.409,217.34942,
2417.498,221.34973,
2414.588,221.65259,
2411.677,203.37903,
2408.767,227.08662,
2405.856,228.63208,
2402.946,224.94605,
2400.035,235.35623,
2397.124,231.02741,
2394.214,222.9702,
2391.303,221.4082,
2388.393,207.16335,
2385.482,184.3003,
2382.571,189.55234,
2379.661,186.49126,
2376.750,210.94875,
2373.840,239.14057,
2370.929,246.33168,
2368.019,235.6404,
2365.108,232.32788,
2362.197,236.58321,
2359.287,246.5516,
2356.376,252.36972,
2353.466,255.63362,
2350.555,231.28967,
2347.645,222.70347,
2344.734,248.43957,
2341.823,245.52425,
2338.913,246.55261,
2336.002,250.71229,
2333.092,240.60516,
2330.181,224.60263,
2327.270,230.93496,
2324.360,243.04716,
2321.449,252.54508,
2318.539,261.33218,
2315.628,257.28267,
2312.718,261.67456,
2309.807,255.05813,
2306.896,263.61913,
2303.986,263.11528,
2301.075,263.52394,
2298.165,275.14447,
2295.254,247.06438,
2292.344,264.58663,
2289.433,261.71864,
2286.522,274.12938,
2283.612,281.9949,
2280.701,297.81891,
2277.791,275.01433,
2274.880,263.59305,
2271.969,253.76183,
2269.059,261.63659,
2266.148,254.97266,
2263.238,268.36726,
2260.327,276.47833,
2257.417,264.84944,
2254.506,275.67988,
2251.595,285.37866,
2248.685,280.90193,
2245.774,274.06742,
2242.864,279.54206,
2239.953,294.32676,
2237.043,286.59572,
2234.132,284.27371,
2231.221,291.90217,
2228.311,277.10827,
2225.400,298.09355,
2222.490,291.16008,
2219.579,302.69119,
2216.669,323.27007,
2213.758,306.2377,
2210.847,296.65962,
2207.937,333.90916,
2205.026,319.81873,
2202.116,329.41111,
2199.205,303.84982,
2196.294,313.55698,
2193.384,325.48001,
2190.473,309.49941,
2187.563,377.2735,
2184.652,356.52561,
2181.742,353.82911,
2178.831,351.09098,
2175.920,349.04895,
2173.010,368.47704,
2170.099,354.97767,
2167.189,343.55439,
2164.278,368.52173,
2161.368,373.94588,
2158.457,380.7151,
2155.546,386.70771,
2152.636,383.83248,
2149.725,392.52264,
2146.815,399.24152,
2143.904,403.0776,
2140.993,406.81419,
2138.083,400.92818,
2135.172,409.34141,
2132.262,400.85739,
2129.351,408.47854,
2126.441,408.95751,
2123.530,403.3301,
2120.619,396.21,
2117.709,377.42975,
2114.798,370.27489,
2111.888,351.81261,
2108.977,344.2889,
2106.067,333.79122,
2103.156,344.57253,
2100.245,331.37375,
2097.335,331.66295,
2094.424,343.58801,
2091.514,327.30241,
2088.603,328.22291,
2085.692,339.65004,
2082.782,334.06583,
2079.871,330.19647,
2076.961,336.92295,
2074.050,357.01742,
2071.140,327.63958,
2068.229,317.72916,
2065.318,331.6715,
2062.408,332.42039,
2059.497,329.97619,
2056.587,327.53784,
2053.676,328.00823,
2050.766,339.45123,
2047.855,330.46044,
2044.944,330.04969,
2042.034,312.64095,
2039.123,328.75547,
2036.213,329.83721,
2033.302,331.89664,
2030.391,324.49399,
2027.481,320.35058,
2024.570,339.91737,
2021.660,333.96629,
2018.749,358.46323,
2015.839,335.10597,
2012.928,338.20218,
2010.017,344.96023,
2007.107,316.58246,
2004.196,305.91072,
2001.286,341.21239,
1998.375,332.75688,
1995.465,307.57589,
1992.554,314.01609,
1989.643,317.30587,
1986.733,309.89342,
1983.822,302.9267,
1980.912,310.09759,
1978.001,304.88335,
1975.090,311.57042,
1972.180,296.48008,
1969.269,293.09344,
1966.359,308.9156,
1963.448,320.8717,
1960.538,300.84122,
1957.627,312.31619,
1954.716,276.49535,
1951.806,309.38144,
1948.895,293.81827,
1945.985,310.2263,
1943.074,278.7293,
1940.164,272.22122,
1937.253,270.91862,
1934.342,268.42633,
1931.432,300.93021,
1928.521,297.64615,
1925.611,276.72574,
1922.700,288.41229,
1919.790,284.62364,
1916.879,260.11874,
1913.968,290.33565,
1911.058,307.384,
1908.147,291.64798,
1905.237,275.61026,
1902.326,259.27573,
1899.415,256.54937,
1896.505,216.36274,
1893.594,211.0885,
1890.684,238.89134,
1887.773,238.21986,
1884.863,264.80097,
1881.952,294.32486,
1879.041,292.05361,
1876.131,289.375,
1873.220,289.375,
1870.310,291.2315,
1867.399,279.56692,
1864.489,271.60866,
1861.578,281.20438,
1858.667,307.8122,
1855.757,247.17214,
1852.846,258.16472,
1849.936,276.23587,
1847.025,259.43583,
1844.114,274.1139,
1841.204,313.43444,
1838.293,299.90577,
1835.383,275.36351,
1832.472,295.28283,
1829.562,313.0138,
1826.651,282.60502,
1823.740,296.03789,
1820.830,287.08349,
1817.919,300.10566,
1815.009,274.40681,
1812.098,304.38285,
1809.188,319.63079,
1806.277,277.3488,
1803.366,309.92582,
1800.456,284.9138,
1797.545,308.88576,
1794.635,285.53602,
1791.724,297.17106,
1788.813,311.56883,
1785.903,286.74713,
1782.992,267.30197,
1780.082,232.13992,
1777.171,126.35838,
1774.261,93.210582,
1771.350,177.40951,
1768.439,252.78253,
1765.529,300.74172,
1762.618,324.24001,
1759.708,298.74427,
1756.797,314.48106,
1753.887,345.60532,
1750.976,346.86125,
1748.065,344.00173,
1745.155,352.1491,
1742.244,334.87595,
1739.334,307.31148,
1736.423,331.46281,
1733.512,348.01322,
1730.602,356.85517,
1727.691,344.02179,
1724.781,354.31995,
1721.870,343.08443,
1718.960,381.30884,
1716.049,359.33294,
1713.138,376.45989,
1710.228,368.19084,
1707.317,353.991,
1704.407,371.24134,
1701.496,391.60596,
1698.586,381.3632,
1695.675,412.18909,
1692.764,385.02662,
1689.854,369.98129,
1686.943,384.83539,
1684.033,374.6482,
1681.122,380.27305,
1678.211,384.33693,
1675.301,453.16224,
1672.390,416.27631,
1669.480,383.51137,
1666.569,401.47954,
1663.659,486.80337,
1660.748,452.62566,
1657.837,465.94361,
1654.927,491.18757,
1652.016,483.05911,
1649.106,471.15839,
1646.195,502.83055,
1643.285,522.42318,
1640.374,566.12065,
1637.463,508.13161,
1634.553,550.46856,
1631.642,623.66816,
1628.732,650.44018,
1625.821,661.39528,
1622.911,692.20031,
1620.000,762.48049,
1617.089,825.12127,
1614.179,911.89331,
1611.268,961.55328,
1608.358,1032.9569,
1605.447,1072.2039,
1602.536,1094.8765,
1599.626,1107.4142,
1596.715,1133.7878,
1593.805,1088.0811,
1590.894,1077.9716,
1587.984,1090.3664,
1585.073,1006.4425,
1582.162,1013.082,
1579.252,981.36975,
1576.341,936.52608,
1573.431,936.77309,
1570.520,904.97803,
1567.610,933.1207,
1564.699,910.12351,
1561.788,856.93876,
1558.878,828.08526,
1555.967,809.82237,
1553.057,776.58217,
1550.146,749.69866,
1547.235,755.36218,
1544.325,772.85798,
1541.414,753.99231,
1538.504,758.57893,
1535.593,752.69939,
1532.683,734.61622,
1529.772,752.66873,
1526.861,737.87953,
1523.951,728.28382,
1521.040,746.18101,
1518.130,742.96895,
1515.219,764.9751,
1512.309,755.92453,
1509.398,743.67151,
1506.487,756.65861,
1503.577,736.58648,
1500.666,696.63547,
1497.756,740.3583,
1494.845,761.73356,
1491.934,698.3561,
1489.024,692.58114,
1486.113,701.64716,
1483.203,683.72348,
1480.292,650.82859,
1477.382,674.47193,
1474.471,664.49266,
1471.560,637.60502,
1468.650,599.31096,
1465.739,592.42039,
1462.829,614.27952,
1459.918,641.84475,
1457.008,661.99048,
1454.097,669.83716,
1451.186,672.87016,
1448.276,652.392,
1445.365,604.30233,
1442.455,575.4357,
1439.544,551.38686,
1436.633,586.06319,
1433.723,537.00113,
1430.812,535.77877,
1427.902,553.17205,
1424.991,544.64219,
1422.081,500.3361,
1419.170,528.34523,
1416.259,572.25803,
1413.349,539.0815,
1410.438,518.3772,
1407.528,498.63772,
1404.617,504.64033,
1401.707,492.05762,
1398.796,444.9415,
1395.885,427.77668,
1392.975,419.87394,
1390.064,389.2677,
1387.154,425.27205,
1384.243,409.92516,
1381.332,375.90426,
1378.422,424.99365,
1375.511,359.41898,
1372.601,440.39476,
1369.690,480.80668,
1366.780,455.48563,
1363.869,493.14305,
1360.958,501.13197,
1358.048,515.36098,
1355.137,553.60783,
1352.227,571.34229,
1349.316,597.6478,
1346.406,654.12262,
1343.495,646.69376,
1340.584,597.90997,
1337.674,644.65979,
1334.763,633.26839,
1331.853,709.30134,
1328.942,640.32841,
1326.032,684.39034,
1323.121,705.26657,
1320.210,745.00064,
1317.300,769.86755,
1314.389,814.45912,
1311.479,838.39452,
1308.568,835.10184,
1305.657,847.88904,
1302.747,835.61592,
1299.836,927.42909,
1296.926,957.14412,
1294.015,973.69195,
1291.105,979.65825,
1288.194,1012.3247,
1285.283,996.7469,
1282.373,1034.203,
1279.462,1071.2572,
1276.552,1070.0836,
1273.641,1063.1711,
1270.731,1070.2571,
1267.820,1064.8964,
1264.909,1033.7154,
1261.999,1014.608,
1259.088,1020.9929,
1256.178,1070.193,
1253.267,1017.7666,
1250.356,963.48054,
1247.446,975.12463,
1244.535,990.41966,
1241.625,974.47503,
1238.714,963.97951,
1235.804,973.09832,
1232.893,961.62461,
1229.982,962.45509,
1227.072,935.29572,
1224.161,957.74961,
1221.251,921.427,
1218.340,873.04097,
1215.430,880.8007,
1212.519,901.46948,
1209.608,887.97185,
1206.698,873.80074,
1203.787,897.12877,
1200.877,889.26058,
1197.966,871.2774,
1195.055,896.82571,
1192.145,966.74188,
1189.234,1007.8388,
1186.324,1027.1031,
1183.413,1052.9232,
1180.503,1085.8182,
1177.592,1091.8293,
1174.681,1044.7997,
1171.771,1007.055,
1168.860,1036.5269,
1165.950,973.25926,
1163.039,996.48556,
1160.129,977.98369,
1157.218,998.56418,
1154.307,1049.2301,
1151.397,1049.5075,
1148.486,1051.4154,
1145.576,1106.1392,
1142.665,1054.6403,
1139.754,1026.7798,
1136.844,1046.5859,
1133.933,1057.375,
1131.023,1031.8818,
1128.112,996.94736,
1125.202,985.85809,
1122.291,995.02058,
1119.380,1048.2364,
1116.470,1034.116,
1113.559,996.80554,
1110.649,997.50738,
1107.738,1015.163,
1104.828,1002.9056,
1101.917,976.70067,
1099.006,987.27196,
1096.096,977.48251,
1093.185,979.23851,
1090.275,995.5604,
1087.364,1000.7472,
1084.453,1008.1246,
1081.543,1011.1839,
1078.632,1007.7482,
1075.722,1014.2735,
1072.811,1047.3201,
1069.901,1032.4747,
1066.990,1029.7583,
1064.079,1048.4294,
1061.169,1011.534,
1058.258,997.66671,
1055.348,1030.8448,
1052.437,1030.6033,
1049.527,1012.4156,
1046.616,1039.3493,
1043.705,1040.0627,
1040.795,1044.483,
1037.884,1037.2602,
1034.974,1031.8441,
1032.063,1037.2289,
1029.153,1031.3098,
1026.242,1039.0944,
1023.331,1027.7091,
1020.421,1053.2591,
1017.510,1093.9491,
1014.600,1113.4145,
1011.689,1101.393,
1008.778,1076.8301,
1005.868,1050.4908,
1002.957,1063.3961,
1000.047,1086.487,
997.136,1132.5512,
994.226,1172.3133,
991.315,1171.9344,
988.404,1132.5916,
985.494,1122.4352,
982.583,1080.4639,
979.673,1064.8636,
976.762,1065.4847,
973.852,1067.491,
970.941,1070.2279,
968.030,1078.6235,
965.120,1074.4036,
962.209,1081.224,
959.299,1083.7915,
956.388,1073.7357,
953.477,1083.4602,
950.567,1113.5578,
947.656,1126.6005,
944.746,1135.9456,
941.835,1126.6572,
938.925,1138.8521,
936.014,1137.776,
933.103,1127.6095,
930.193,1120.1801,
927.282,1101.1294,
924.372,1059.6947,
921.461,1082.3582,
918.551,1073.7851,
915.640,1054.4258,
912.729,1053.3523,
909.819,1073.8207,
906.908,1084.7722,
903.998,1108.4406,
901.087,1095.2798,
898.176,1082.4662,
895.266,1082.5968,
892.355,1088.6315,
889.445,1095.3456,
886.534,1092.0355,
883.624,1095.412,
880.713,1102.4786,
877.802,1088.2685,
874.892,1019.8341,
871.981,872.33688,
869.071,743.6833,
866.160,750.35331,
863.250,878.69962,
860.339,1012.0129,
857.428,1067.9664,
854.518,1085.9788,
851.607,1037.7188,
848.697,946.14913,
845.786,874.6422,
842.875,905.94417,
839.965,1032.9724,
837.054,1081.989,
834.144,1136.6867,
831.233,1158.0409,
828.323,1132.7115,
825.412,1112.6437,
822.501,1136.6729,
819.591,1138.3257,
816.680,1125.5545,
813.770,1107.3389,
810.859,1109.2048,
807.949,1114.1067,
805.038,1093.3706,
802.127,1101.6019,
799.217,1074.0501,
796.306,1067.7804,
793.396,1071.543,
790.485,1076.3231,
787.574,1087.6552,
784.664,1095.0362,
781.753,1088.3232,
778.843,1086.3353,
775.932,1084.98,
773.022,1080.2913,
770.111,1099.0956,
767.200,1104.9429,
764.290,1100.0183,
761.379,1090.2547,
758.469,1083.6306,
755.558,1088.0589,
752.648,1077.4691,
749.737,1074.7222,
746.826,1063.1857,
743.916,1059.031,
741.005,1075.3225,
738.095,1021.7386,
735.184,998.21357,
732.274,967.70962,
729.363,958.14307,
726.452,982.10589,
723.542,986.15285,
720.631,1052.8899,
717.721,1075.6664,
714.810,1097.9317,
711.899,1126.8601,
708.989,1107.4939,
706.078,1072.919,
703.168,1063.7678,
700.257,1074.1019,
697.347,1088.9403,
694.436,1087.0695,
691.525,1075.8162,
688.615,1080.9219,
685.704,1096.1673,
682.794,1111.5452,
679.883,1115.9877,
676.973,1129.611,
674.062,1138.1177,
671.151,1115.9519,
668.241,1089.3312,
665.330,1107.6943,
662.420,1093.3171,
659.509,1080.2161,
656.598,1081.299,
653.688,1097.9664,
650.777,1122.4029,
647.867,1093.7351,
644.956,1063.8473,
642.046,1016.6217,
639.135,978.13054,
636.224,1007.6336,
633.314,1059.2396,
630.403,1098.9795,
627.493,1118.9113,
624.582,1114.6653,
621.672,1084.5695,
618.761,1086.4148,
615.850,1138.0659,
612.940,1172.5443,
610.029,1155.6924,
607.119,1133.5827,
604.208,1166.1657,
601.297,1194.3335,
598.387,1200.6359,
595.476,1176.5469,
592.566,1125.3874,
589.655,1165.6146,
586.745,1192.809,
583.834,1195.1317,
580.923,1201.4935,
578.013,1221.1118,
575.102,1187.9446,
572.192,1169.0217,
569.281,1187.3592,
566.371,1192.8376,
563.460,1166.5672,
560.549,1165.6079,
557.639,1183.0891,
554.728,1202.3604,
551.818,1217.9667,
548.907,1189.6855,
545.996,1185.3154,
543.086,1210.0395,
540.175,1208.4822,
537.265,1177.231,
534.354,1177.4156,
531.444,1188.539,
528.533,1188.8582,
525.622,1223.7758,
522.712,1187.6888,
519.801,1149.828,
516.891,1138.4441,
513.980,1158.5758,
511.070,1197.0011,
508.159,1185.6313,
505.248,1163.6355,
502.338,1184.7198,
499.427,1162.3367,
496.517,1188.6174,
493.606,1212.3655,
490.695,1210.696,
487.785,1213.0053,
484.874,1198.5119,
481.964,1183.3153,
479.053,1178.7069,
476.143,1200.9778,
473.232,1206.6914,
470.321,1213.2408,
467.411,1221.6674,
464.500,1230.4247,
461.590,1192.9035,
458.679,1204.3868,
455.769,1209.1423,
452.858,1186.3401,
449.947,1243.635,
447.037,1223.2167,
444.126,1213.0962,
441.216,1225.9512,
438.305,1194.712,
435.395,1227.0906,
432.484,1214.2851,
429.573,1167.0675,
426.663,1157.1856,
423.752,995.2712,
420.842,794.76281,
417.931,595.63484,
415.020,441.68814,
412.110,780.23318,
409.199,1000.7514,
406.289,1109.2142,
403.378,1139.1342,
400.468,1068.0708,
397.557,1080.3372,
394.646,1132.7679,
391.736,1186.6305,
388.825,1225.8506,
385.915,1231.5209,
383.004,1222.3774,
380.094,1213.5651,
377.183,1236.8918,
374.272,1226.5488,
371.362,1237.9815,
368.451,1296.9131,
365.541,1256.3841,
362.630,1258.4848,
359.719,1260.2,
356.809,1238.6015,
353.898,1242.3455,
350.988,1259.6496,
348.077,1275.6983,
345.167,1280.9966,
342.256,1273.5259,
339.345,1262.3406,
336.435,1253.8198,
333.524,1253.3145,
330.614,1283.1207,
327.703,1325.2329,
324.793,1353.0237,
321.882,1343.3426,
318.971,1329.9606,
316.061,1345.8842,
313.150,1375.4583,
310.240,1401.4324,
307.329,1445.2532,
304.418,1471.95,
301.508,1489.0858,
298.597,1510.5579,
295.687,1505.6026,
292.776,1536.9585,
289.866,1602.8123,
286.955,1685.5496,
284.044,1735.325,
281.134,1808.4747,
278.223,1896.1295,
275.313,1901.2875,
272.402,1957.5608,
269.492,1986.2852,
266.581,1956.0689,
263.670,1867.8473,
260.760,1936.404,
257.849,2038.7991,
254.939,2085.7676,
252.028,2055.9735,
249.117,2041.1772,
246.207,2054.6114,
243.296,2121.2267,
240.386,2117.9271,
237.475,2089.3238,
234.565,2047.8887,
231.654,2019.4037,
228.743,2000.7169,
225.833,1949.6042,
222.922,1851.9629,
220.012,1800.2354,
217.101,1772.5793,
214.191,1749.3542,
211.280,1709.3437,
208.369,1692.2459,
205.459,1657.4275,
202.548,1626.2803,
199.638,1689.4118,
196.727,1638.415,
193.816,1604.319,
190.906,1631.4292,
187.995,1547.4423,
185.085,1531.1421,
182.174,1541.0656,
179.264,1525.1647,
176.353,1509.2779,
173.442,1514.4271,
170.532,1534.6028,
167.621,1510.8106,
164.711,1479.1477,
161.800,1426.3917,
158.890,1338.585,
155.979,1223.4517,
153.068,1140.4901,
150.158,1069.4341,
147.247,928.71546,
144.337,779.15547,
141.426,615.0115,
138.516,431.48735,
135.605,318.22804,
132.694,227.8744,
129.784,156.08605,
126.873,98.160534,
123.963,63.612195,
121.052,39.576059,
118.141,22.442411,
115.231,21.66443,
112.320,18.833184,
109.410,15.647711,
106.499,17.072021,
103.589,11.212201,
100.678,6.6466217,
97.767,7.3575593,
94.857,8.067989,
91.946,5.9563348,
89.036,3.0523874,
86.125,7.3076191,
83.215,11.029602,
80.304,10.022942,
77.393,0.10856329,
74.483,4.6160797,
71.572,5.5632394,
68.662,2.4442675,
65.751,3.1507186,
62.840,4.338404,
59.930,5.375,
57.019,5.375,
54.109,1.7920349,
51.198,1.1846557,
48.288,5.3636751,
45.377,3.956919,
42.466,-1.1594127,
39.556,-6.4738142,
36.645,0.54808793,
33.735,0.8172546,
30.824,-1.5085479,
27.914,-4.3132489,
25.003,-2.1344501,
22.092,-2.5624273,
19.182,-6.3046399,
16.271,3.4882219,
13.361,10.325206,
10.450,6.2020964,
7.539,-41.283348,
4.629,-234.85507,
1.718,-448.24368,
-1.192,-590.46117,
-4.103,-511.39788,
-7.013,-311.81493,
-9.924,1.375,
