,PL1D8D~1,
Raman shift [1/cm],Intensity,
3014.167,3.125,
3011.256,-0.67495705,
3008.346,109.5041,
3005.435,135.93065,
3002.525,134.84256,
2999.614,112.39388,
2996.704,129.17758,
2993.793,138.88652,
2990.882,143.68218,
2987.972,151.125,
2985.061,154.22845,
2982.151,173.09644,
2979.240,159.55655,
2976.329,177.39002,
2973.419,177.9404,
2970.508,185.75829,
2967.598,185.26837,
2964.687,194.81114,
2961.777,186.72313,
2958.866,219.13539,
2955.955,208.16039,
2953.045,220.55675,
2950.134,215.79557,
2947.224,224.5805,
2944.313,232.48469,
2941.403,229.20848,
2938.492,250.57216,
2935.581,247.15202,
2932.671,253.24517,
2929.760,240.75959,
2926.850,249.02763,
2923.939,255.92406,
2921.028,256.81321,
2918.118,262.82651,
2915.207,278.06807,
2912.297,272.15885,
2909.386,267.70165,
2906.476,270.21768,
2903.565,275.02871,
2900.654,272.63055,
2897.744,269.11243,
2894.833,271.01154,
2891.923,271.0705,
2889.012,262.29263,
2886.102,262.74932,
2883.191,257.13255,
2880.280,244.51734,
2877.370,220.0088,
2874.459,212.70375,
2871.549,255.62527,
2868.638,262.57862,
2865.727,280.78269,
2862.817,290.32553,
2859.906,276.15064,
2856.996,293.58198,
2854.085,289.04094,
2851.175,289.8359,
2848.264,279.831,
2845.353,289.03873,
2842.443,289.91664,
2839.532,285.48328,
2836.622,288.73177,
2833.711,283.71055,
2830.801,286.91618,
2827.890,277.14422,
2824.979,286.45888,
2822.069,298.09088,
2819.158,294.36489,
2816.248,289.38947,
2813.337,308.85672,
2810.427,297.33849,
2807.516,293.18266,
2804.605,296.53365,
2801.695,300.38816,
2798.784,294.71638,
2795.874,296.7002,
2792.963,302.76809,
2790.052,284.13015,
2787.142,291.25662,
2784.231,292.28649,
2781.321,284.19362,
2778.410,296.39024,
2775.500,286.52983,
2772.589,306.66323,
2769.678,301.73252,
2766.768,311.48812,
2763.857,315.86296,
2760.947,314.55881,
2758.036,312.59639,
2755.126,296.11219,
2752.215,316.29756,
2749.304,318.95412,
2746.394,316.76007,
2743.483,319.675,
2740.573,323.67369,
2737.662,322.33802,
2734.751,317.24149,
2731.841,314.55723,
2728.930,319.90043,
2726.020,326.35475,
2723.109,323.25917,
2720.199,331.43739,
2717.288,335.70528,
2714.377,327.86664,
2711.467,340.46896,
2708.556,341.09342,
2705.646,324.89964,
2702.735,338.30284,
2699.825,341.78861,
2696.914,343.03001,
2694.003,348.58354,
2691.093,341.25015,
2688.182,337.48796,
2685.272,342.93012,
2682.361,335.43068,
2679.450,341.58592,
2676.540,360.55593,
2673.629,342.41643,
2670.719,357.27102,
2667.808,353.22227,
2664.898,351.50146,
2661.987,360.55832,
2659.076,362.74353,
2656.166,373.6402,
2653.255,363.08759,
2650.345,369.6132,
2647.434,368.29648,
2644.524,372.82765,
2641.613,364.09609,
2638.702,365.01453,
2635.792,373.00037,
2632.881,380.51768,
2629.971,362.82283,
2627.060,387.7925,
2624.149,389.85311,
2621.239,391.10721,
2618.328,388.37932,
2615.418,389.81136,
2612.507,383.6072,
2609.597,386.03318,
2606.686,388.51456,
2603.775,389.64484,
2600.865,401.35712,
2597.954,404.31666,
2595.044,405.15157,
2592.133,393.62176,
2589.223,387.45026,
2586.312,416.22051,
2583.401,407.51188,
2580.491,414.125,
2577.580,397.19762,
2574.670,433.92983,
2571.759,420.07962,
2568.848,408.48404,
2565.938,427.36315,
2563.027,419.02728,
2560.117,412.04088,
2557.206,423.58994,
2554.296,434.08839,
2551.385,411.95112,
2548.474,438.38448,
2545.564,427.63149,
2542.653,424.82969,
2539.743,434.65581,
2536.832,446.47267,
2533.922,434.34577,
2531.011,444.27533,
2528.100,431.45949,
2525.190,439.40246,
2522.279,456.0312,
2519.369,452.01192,
2516.458,435.45007,
2513.548,427.74316,
2510.637,466.51017,
2507.726,454.62685,
2504.816,431.68531,
2501.905,458.70427,
2498.995,444.24444,
2496.084,442.75216,
2493.173,443.96739,
2490.263,446.33855,
2487.352,474.83287,
2484.442,468.69459,
2481.531,485.39612,
2478.621,469.94954,
2475.710,500.03299,
2472.799,486.15193,
2469.889,482.54883,
2466.978,486.56829,
2464.068,469.88684,
2461.157,478.86233,
2458.247,494.75721,
2455.336,493.95281,
2452.425,498.55896,
2449.515,489.84226,
2446.604,502.47753,
2443.694,507.77633,
2440.783,488.45383,
2437.872,489.40127,
2434.962,518.92224,
2432.051,517.36593,
2429.141,511.04287,
2426.230,513.47309,
2423.320,523.125,
2420.409,518.58663,
2417.498,515.91152,
2414.588,520.75997,
2411.677,531.40783,
2408.767,513.64272,
2405.856,526.56781,
2402.946,533.38684,
2400.035,533.02406,
2397.124,542.02339,
2394.214,549.7738,
2391.303,549.51728,
2388.393,533.94125,
2385.482,534.86063,
2382.571,549.64421,
2379.661,549.56673,
2376.750,556.91567,
2373.840,546.06566,
2370.929,572.81094,
2368.019,572.00494,
2365.108,567.86846,
2362.197,577.51405,
2359.287,578.32667,
2356.376,545.18312,
2353.466,556.48798,
2350.555,571.26018,
2347.645,572.02037,
2344.734,569.48906,
2341.823,594.71042,
2338.913,588.34887,
2336.002,587.91201,
2333.092,598.30896,
2330.181,608.95105,
2327.270,606.51004,
2324.360,590.18397,
2321.449,588.00256,
2318.539,609.40332,
2315.628,620.73012,
2312.718,613.05892,
2309.807,605.67151,
2306.896,614.8887,
2303.986,612.29376,
2301.075,622.48663,
2298.165,630.33645,
2295.254,617.38352,
2292.344,603.91337,
2289.433,617.19455,
2286.522,634.09822,
2283.612,637.95536,
2280.701,637.52859,
2277.791,653.9647,
2274.880,650.55299,
2271.969,652.89866,
2269.059,647.42199,
2266.148,666.92967,
2263.238,634.74279,
2260.327,626.84937,
2257.417,658.42777,
2254.506,677.43836,
2251.595,656.99051,
2248.685,684.00565,
2245.774,674.499,
2242.864,679.33701,
2239.953,648.45586,
2237.043,685.96964,
2234.132,683.01077,
2231.221,666.72962,
2228.311,686.74095,
2225.400,677.23758,
2222.490,685.95247,
2219.579,707.125,
2216.669,719.06777,
2213.758,705.03347,
2210.847,719.33655,
2207.937,742.4328,
2205.026,752.01363,
2202.116,751.78319,
2199.205,730.30006,
2196.294,745.98495,
2193.384,738.52047,
2190.473,760.15435,
2187.563,759.11533,
2184.652,758.17928,
2181.742,775.35366,
2178.831,809.16005,
2175.920,823.3709,
2173.010,857.57738,
2170.099,895.9886,
2167.189,923.26851,
2164.278,948.40741,
2161.368,989.40947,
2158.457,1039.2717,
2155.546,1097.351,
2152.636,1109.4601,
2149.725,1161.8833,
2146.815,1203.0906,
2143.904,1227.7124,
2140.993,1214.1195,
2138.083,1280.3377,
2135.172,1280.2761,
2132.262,1284.0308,
2129.351,1259.3662,
2126.441,1257.727,
2123.530,1209.6985,
2120.619,1171.1617,
2117.709,1145.6121,
2114.798,1078.3056,
2111.888,1028.4013,
2108.977,989.95281,
2106.067,939.38071,
2103.156,948.88055,
2100.245,878.11747,
2097.335,867.08835,
2094.424,861.20013,
2091.514,831.56596,
2088.603,851.1757,
2085.692,844.21425,
2082.782,845.07276,
2079.871,835.62442,
2076.961,822.83536,
2074.050,791.725,
2071.140,820.06777,
2068.229,805.48567,
2065.318,809.8905,
2062.408,810.63256,
2059.497,803.51189,
2056.587,801.96216,
2053.676,785.97605,
2050.766,789.50915,
2047.855,789.32435,
2044.944,799.3173,
2042.034,811.59309,
2039.123,786.1654,
2036.213,792.33612,
2033.302,801.64664,
2030.391,793.59994,
2027.481,801.00291,
2024.570,809.49634,
2021.660,785.66236,
2018.749,805.94729,
2015.839,779.89141,
2012.928,800.21728,
2010.017,794.59189,
2007.107,795.88946,
2004.196,791.4822,
2001.286,784.97663,
1998.375,764.8622,
1995.465,765.27143,
1992.554,773.1367,
1989.643,803.08809,
1986.733,778.32237,
1983.822,764.97138,
1980.912,768.30307,
1978.001,753.65931,
1975.090,748.67311,
1972.180,754.16093,
1969.269,733.03016,
1966.359,755.07128,
1963.448,760.35881,
1960.538,759.55953,
1957.627,760.125,
1954.716,753.32609,
1951.806,751.01277,
1948.895,780.62105,
1945.985,735.51225,
1943.074,732.56412,
1940.164,731.48078,
1937.253,745.03777,
1934.342,753.048,
1931.432,723.34266,
1928.521,711.37198,
1925.611,711.68346,
1922.700,732.49378,
1919.790,706.25831,
1916.879,689.96199,
1913.968,690.12377,
1911.058,705.34121,
1908.147,685.83746,
1905.237,718.16173,
1902.326,701.02573,
1899.415,713.38964,
1896.505,720.55872,
1893.594,711.76522,
1890.684,710.32104,
1887.773,691.86699,
1884.863,704.10222,
1881.952,712.05759,
1879.041,721.74183,
1876.131,709.83742,
1873.220,704.38163,
1870.310,723.61824,
1867.399,704.46087,
1864.489,728.09994,
1861.578,679.71279,
1858.667,698.20582,
1855.757,721.90423,
1852.846,741.85834,
1849.936,723.05594,
1847.025,702.4778,
1844.114,706.34383,
1841.204,721.95017,
1838.293,738.61918,
1835.383,745.9505,
1832.472,721.25196,
1829.562,728.31589,
1826.651,756.80055,
1823.740,756.57326,
1820.830,761.8416,
1817.919,738.06495,
1815.009,771.51176,
1812.098,771.84154,
1809.188,773.93895,
1806.277,792.70449,
1803.366,762.00855,
1800.456,755.56466,
1797.545,766.53617,
1794.635,793.41689,
1791.724,754.39676,
1788.813,787.72706,
1785.903,786.85567,
1782.992,771.17272,
1780.082,778.96566,
1777.171,759.46548,
1774.261,782.83993,
1771.350,788.99751,
1768.439,795.63403,
1765.529,794.67319,
1762.618,815.02376,
1759.708,831.40774,
1756.797,825.83712,
1753.887,838.33199,
1750.976,845.97317,
1748.065,841.65495,
1745.155,845.125,
1742.244,833.86868,
1739.334,813.74618,
1736.423,817.72312,
1733.512,843.22669,
1730.602,870.57344,
1727.691,837.97431,
1724.781,854.44176,
1721.870,833.1534,
1718.960,873.81446,
1716.049,887.4809,
1713.138,880.43004,
1710.228,875.64381,
1707.317,889.27814,
1704.407,878.54744,
1701.496,888.06357,
1698.586,875.26523,
1695.675,853.53941,
1692.764,890.94059,
1689.854,895.03839,
1686.943,847.77756,
1684.033,884.15639,
1681.122,897.9041,
1678.211,949.6301,
1675.301,970.06333,
1672.390,981.22669,
1669.480,1015.2534,
1666.569,1030.6426,
1663.659,993.56597,
1660.748,1020.7613,
1657.837,1053.8686,
1654.927,1086.7267,
1652.016,1070.6839,
1649.106,1094.1532,
1646.195,1134.5496,
1643.285,1112.3555,
1640.374,1164.3097,
1637.463,1127.6202,
1634.553,1208.992,
1631.642,1200.5593,
1628.732,1240.3383,
1625.821,1276.1891,
1622.911,1373.5728,
1620.000,1444.2305,
1617.089,1530.3937,
1614.179,1663.3179,
1611.268,1710.452,
1608.358,1815.0681,
1605.447,1867.2682,
1602.536,1926.9701,
1599.626,1955.9632,
1596.715,1958.125,
1593.805,1958.125,
1590.894,1945.7956,
1587.984,1937.1963,
1585.073,1900.3907,
1582.162,1884.9413,
1579.252,1881.4884,
1576.341,1842.674,
1573.431,1801.0149,
1570.520,1806.6482,
1567.610,1761.9478,
1564.699,1732.0745,
1561.788,1699.6605,
1558.878,1699.0492,
1555.967,1676.3771,
1553.057,1628.315,
1550.146,1626.3322,
1547.235,1612.9216,
1544.325,1559.3654,
1541.414,1547.3267,
1538.504,1555.4732,
1535.593,1528.7008,
1532.683,1490.965,
1529.772,1449.8379,
1526.861,1408.6645,
1523.951,1399.834,
1521.040,1392.6262,
1518.130,1364.9147,
1515.219,1361.6865,
1512.309,1324.9809,
1509.398,1361.3096,
1506.487,1322.4712,
1503.577,1338.892,
1500.666,1317.215,
1497.756,1293.8199,
1494.845,1289.2845,
1491.934,1269.0022,
1489.024,1231.4649,
1486.113,1229.1978,
1483.203,1222.0197,
1480.292,1165.9718,
1477.382,1161.7827,
1474.471,1186.9137,
1471.560,1191.948,
1468.650,1181.5592,
1465.739,1121.4024,
1462.829,1087.1409,
1459.918,1114.9595,
1457.008,1140.1404,
1454.097,1154.9897,
1451.186,1129.1231,
1448.276,1069.3871,
1445.365,1080.9844,
1442.455,1094.459,
1439.544,1068.2204,
1436.633,1094.9105,
1433.723,1059.4898,
1430.812,1082.0168,
1427.902,1067.1779,
1424.991,1027.3719,
1422.081,1020.6201,
1419.170,1020.9891,
1416.259,981.43191,
1413.349,970.61452,
1410.438,994.61729,
1407.528,963.92553,
1404.617,961.08736,
1401.707,985.72381,
1398.796,987.57257,
1395.885,975.4045,
1392.975,955.60356,
1390.064,931.47947,
1387.154,935.25571,
1384.243,912.05287,
1381.332,836.10093,
1378.422,889.53516,
1375.511,994.45463,
1372.601,1041.2819,
1369.690,1107.7022,
1366.780,1126.0454,
1363.869,1167.3548,
1360.958,1199.9508,
1358.048,1226.9244,
1355.137,1245.9589,
1352.227,1318.9228,
1349.316,1398.125,
1346.406,1397.8057,
1343.495,1419.5467,
1340.584,1500.6955,
1337.674,1567.5202,
1334.763,1603.9486,
1331.853,1599.3124,
1328.942,1642.7087,
1326.032,1724.7933,
1323.121,1736.9382,
1320.210,1764.4255,
1317.300,1799.1929,
1314.389,1813.125,
1311.479,1844.5811,
1308.568,1901.6478,
1305.657,1921.8534,
1302.747,1910.2564,
1299.836,1970.6558,
1296.926,2061.1505,
1294.015,2083.2143,
1291.105,2140.4797,
1288.194,2257.5528,
1285.283,2315.9131,
1282.373,2345.2109,
1279.462,2373.2423,
1276.552,2422.5031,
1273.641,2470.0967,
1270.731,2494.8862,
1267.820,2521.8786,
1264.909,2513.6192,
1261.999,2488.6576,
1259.088,2503.2515,
1256.178,2488.7088,
1253.267,2516.0456,
1250.356,2427.6004,
1247.446,2347.0948,
1244.535,2301.817,
1241.625,2253.8843,
1238.714,2217.9273,
1235.804,2206.4309,
1232.893,2143.125,
1229.982,2142.6344,
1227.072,2128.1494,
1224.161,2085.9403,
1221.251,2040.155,
1218.340,1981.1304,
1215.430,1967.1357,
1212.519,1967.9753,
1209.608,1941.4693,
1206.698,1928.4871,
1203.787,1984.2657,
1200.877,2012.125,
1197.966,2012.125,
1195.055,2087.2109,
1192.145,2151.9677,
1189.234,2185.3448,
1186.324,2225.7644,
1183.413,2253.0082,
1180.503,2239.623,
1177.592,2204.3875,
1174.681,2184.6592,
1171.771,2201.239,
1168.860,2162.8361,
1165.950,2129.2923,
1163.039,2128.4106,
1160.129,2109.8902,
1157.218,2087.914,
1154.307,2087.5455,
1151.397,2091.2619,
1148.486,2056.684,
1145.576,2006.2474,
1142.665,2078.1683,
1139.754,2007.6439,
1136.844,1981.0211,
1133.933,1985.3361,
1131.023,1988.2924,
1128.112,1983.3395,
1125.202,1976.7434,
1122.291,1972.7679,
1119.380,2019.2116,
1116.470,2028.0369,
1113.559,2031.4447,
1110.649,2040.638,
1107.738,2051.5548,
1104.828,2056.7089,
1101.917,2062.6342,
1099.006,2074.4447,
1096.096,2059.8127,
1093.185,2103.7128,
1090.275,2065.8522,
1087.364,2089.745,
1084.453,2079.2516,
1081.543,2043.7873,
1078.632,2043.8688,
1075.722,2079.0384,
1072.811,2043.6286,
1069.901,2036.6425,
1066.990,2107.2582,
1064.079,2129.5691,
1061.169,2135.4388,
1058.258,2152.947,
1055.348,2180.7679,
1052.437,2208.8003,
1049.527,2256.8495,
1046.616,2223.834,
1043.705,2240.9357,
1040.795,2262.4491,
1037.884,2282.757,
1034.974,2275.8763,
1032.063,2245.6019,
1029.153,2250.9679,
1026.242,2282.9713,
1023.331,2301.6239,
1020.421,2304.4279,
1017.510,2323.7347,
1014.600,2345.8919,
1011.689,2359.116,
1008.778,2373.8166,
1005.868,2401.8895,
1002.957,2487.0646,
1000.047,2583.845,
997.136,2657.4125,
994.226,2682.2174,
991.315,2658.7711,
988.404,2618.6386,
985.494,2615.7798,
982.583,2600.3617,
979.673,2588.6136,
976.762,2568.6861,
973.852,2583.6456,
970.941,2624.8309,
968.030,2633.0555,
965.120,2576.0677,
962.209,2562.427,
959.299,2558.7085,
956.388,2551.4054,
953.477,2576.541,
950.567,2623.0007,
947.656,2631.2364,
944.746,2632.086,
941.835,2636.1741,
938.925,2624.622,
936.014,2601.9386,
933.103,2596.3647,
930.193,2606.1359,
927.282,2570.0333,
924.372,2568.3421,
921.461,2518.7862,
918.551,2488.3445,
915.640,2452.3535,
912.729,2427.6643,
909.819,2461.6827,
906.908,2481.0585,
903.998,2451.9012,
901.087,2458.1281,
898.176,2488.076,
895.266,2518.473,
892.355,2536.3656,
889.445,2559.0258,
886.534,2605.043,
883.624,2624.8903,
880.713,2631.1457,
877.802,2628.6511,
874.892,2621.7573,
871.981,2619.2372,
869.071,2581.6437,
866.160,2572.3652,
863.250,2620.4001,
860.339,2656.8916,
857.428,2641.1685,
854.518,2637.0769,
851.607,2635.4127,
848.697,2619.3052,
845.786,2584.1008,
842.875,2561.6205,
839.965,2576.3874,
837.054,2614.0785,
834.144,2609.9347,
831.233,2589.7931,
828.323,2569.739,
825.412,2565.2423,
822.501,2575.8909,
819.591,2563.4949,
816.680,2530.2724,
813.770,2497.0649,
810.859,2480.32,
807.949,2466.8249,
805.038,2440.2113,
802.127,2465.7282,
799.217,2440.5455,
796.306,2405.0167,
793.396,2400.3084,
790.485,2431.9165,
787.574,2459.9729,
784.664,2429.6288,
781.753,2434.1898,
778.843,2430.7936,
775.932,2428.915,
773.022,2452.24,
770.111,2504.5651,
767.200,2495.1827,
764.290,2473.2108,
761.379,2462.4882,
758.469,2470.9381,
755.558,2487.7149,
752.648,2440.4678,
749.737,2427.8611,
746.826,2392.5571,
743.916,2328.7155,
741.005,2255.972,
738.095,2192.6456,
735.184,2054.2691,
732.274,2028.4199,
729.363,2101.5509,
726.452,2223.5367,
723.542,2358.7053,
720.631,2410.4683,
717.721,2404.6483,
714.810,2384.0341,
711.899,2385.4122,
708.989,2433.8277,
706.078,2454.9589,
703.168,2430.9784,
700.257,2408.8244,
697.347,2398.4734,
694.436,2377.9286,
691.525,2370.6944,
688.615,2421.9535,
685.704,2425.0649,
682.794,2381.5719,
679.883,2361.8551,
676.973,2400.3209,
674.062,2392.811,
671.151,2396.8366,
668.241,2404.5481,
665.330,2378.562,
662.420,2408.9138,
659.509,2410.6805,
656.598,2409.4232,
653.688,2410.6649,
650.777,2408.585,
647.867,2392.6584,
644.956,2374.8845,
642.046,2376.0754,
639.135,2392.6403,
636.224,2402.3239,
633.314,2442.0209,
630.403,2433.7975,
627.493,2434.5676,
624.582,2453.2999,
621.672,2440.628,
618.761,2500.9201,
615.850,2519.574,
612.940,2525.6142,
610.029,2538.5196,
607.119,2540.8885,
604.208,2563.8454,
601.297,2556.6739,
598.387,2538.9785,
595.476,2533.1538,
592.566,2501.6711,
589.655,2514.2659,
586.745,2515.4456,
583.834,2497.3179,
580.923,2473.125,
578.013,2473.125,
575.102,2444.4456,
572.192,2451.3505,
569.281,2502.6874,
566.371,2505.8179,
563.460,2511.7687,
560.549,2513.1504,
557.639,2520.4505,
554.728,2544.0612,
551.818,2558.8872,
548.907,2590.158,
545.996,2586.3528,
543.086,2555.648,
540.175,2571.9996,
537.265,2570.2279,
534.354,2574.1419,
531.444,2584.4195,
528.533,2600.2771,
525.622,2630.5391,
522.712,2648.6533,
519.801,2662.2351,
516.891,2675.7246,
513.980,2693.5334,
511.070,2704.9859,
508.159,2723.452,
505.248,2749.1395,
502.338,2781.4294,
499.427,2860.1562,
496.517,2881.6907,
493.606,2880.4425,
490.695,2878.0879,
487.785,2885.016,
484.874,2906.1579,
481.964,2911.7264,
479.053,2895.8514,
476.143,2861.2931,
473.232,2879.2683,
470.321,2867.6619,
467.411,2840.287,
464.500,2821.6571,
461.590,2882.1505,
458.679,2908.48,
455.769,2896.591,
452.858,2855.3976,
449.947,2867.6205,
447.037,2897.4292,
444.126,2907.3614,
441.216,2898.0937,
438.305,2920.9516,
435.395,2918.2243,
432.484,2941.3804,
429.573,2973.6874,
426.663,2954.6839,
423.752,2917.5566,
420.842,2896.1881,
417.931,2905.7161,
415.020,2964.1097,
412.110,3013.6799,
409.199,3077.0907,
406.289,3102.9868,
403.378,3035.0174,
400.468,3003.2657,
397.557,3015.2334,
394.646,3035.0476,
391.736,3030.9902,
388.825,2995.5413,
385.915,2947.8714,
383.004,2933.3998,
380.094,2983.6933,
377.183,3073.238,
374.272,3099.7533,
371.362,3114.0754,
368.451,3146.6295,
365.541,3171.3972,
362.630,3183.0412,
359.719,3189.4927,
356.809,3197.5717,
353.898,3238.0068,
350.988,3252.3799,
348.077,3241.1854,
345.167,3207.0872,
342.256,3206.3401,
339.345,3216.7537,
336.435,3227.7906,
333.524,3231.8666,
330.614,3223.6699,
327.703,3231.3931,
324.793,3241.125,
321.882,3241.1052,
318.971,3232.9273,
316.061,3256.9823,
313.150,3275.425,
310.240,3244.2562,
307.329,3296.0081,
304.418,3310.2857,
301.508,3295.4296,
298.597,3270.2554,
295.687,3244.4216,
292.776,3254.7918,
289.866,3317.5086,
286.955,3471.1635,
284.044,3553.8449,
281.134,3641.3356,
278.223,3735.6218,
275.313,3773.2014,
272.402,3819.4646,
269.492,3868.9878,
266.581,3920.5918,
263.670,3983.0821,
260.760,4008.9607,
257.849,4035.8853,
254.939,4092.3943,
252.028,4111.945,
249.117,4130.0889,
246.207,4133.6545,
243.296,4097.0526,
240.386,4089.207,
237.475,4087.125,
234.565,4080.9132,
231.654,4041.4724,
228.743,4021.6176,
225.833,3991.4774,
222.922,3939.0334,
220.012,3872.7349,
217.101,3884.4937,
214.191,3909.0712,
211.280,3875.6079,
208.369,3854.2862,
205.459,3836.3415,
202.548,3819.1138,
199.638,3795.8931,
196.727,3815.3261,
193.816,3828.3086,
190.906,3818.9788,
187.995,3871.8326,
185.085,3868.8465,
182.174,3850.4139,
179.264,3869.9285,
176.353,3860.591,
173.442,3864.6392,
170.532,3875.2283,
167.621,3807.4566,
164.711,3727.6336,
161.800,3629.362,
158.890,3504.1294,
155.979,3294.0809,
153.068,3014.4659,
150.158,2677.2191,
147.247,2307.4737,
144.337,1886.0803,
141.426,1481.3454,
138.516,1127.2012,
135.605,802.42709,
132.694,550.60911,
129.784,363.59593,
126.873,237.73307,
123.963,171.72102,
121.052,123.84436,
118.141,80.296336,
115.231,73.019296,
112.320,60.80501,
109.410,47.715934,
106.499,45.579469,
103.589,35.600674,
100.678,27.310135,
97.767,25.177322,
94.857,25.817989,
91.946,25.318778,
89.036,23.786306,
86.125,21.65869,
83.215,19.001319,
80.304,16.885567,
77.393,16.177397,
74.483,14.81473,
71.572,13.400296,
68.662,12.055733,
65.751,11.349281,
62.840,12.088404,
59.930,12.937714,
57.019,12.232632,
54.109,14.513643,
51.198,13.712126,
48.288,8.1646371,
45.377,13.088284,
42.466,10.590587,
39.556,4.125,
36.645,4.125,
33.735,5.6827454,
30.824,4.9161303,
27.914,-2.0956222,
25.003,0.86082485,
22.092,2.1562863,
19.182,-0.26400867,
16.271,-12.155341,
13.361,-39.212273,
10.450,-136.09956,
7.539,-520.87132,
4.629,-919.82716,
1.718,-1235.1548,
-1.192,-1350.1837,
-4.103,-916.41492,
-7.013,-436.25297,
-9.924,0.125,
