,PLA6AA~1,
Wavenumbers [1/cm],Intensity,
3014.167,-3,
3011.256,1.1000215,
3008.346,61.13423,
3005.435,63.501769,
3002.525,67.244966,
2999.614,69.892245,
2996.704,84.504126,
2993.793,66.981568,
2990.882,83.824412,
2987.972,85.96973,
2985.061,89.310357,
2982.151,91.312597,
2979.240,84.633078,
2976.329,99.524571,
2973.419,106.36919,
2970.508,109.23333,
2967.598,95.716868,
2964.687,109.52242,
2961.777,96.31611,
2958.866,123,
2955.955,123.75885,
2953.045,132.89932,
2950.134,131.03208,
2947.224,123.51244,
2944.313,139.65171,
2941.403,142.34535,
2938.492,146.14905,
2935.581,146.88712,
2932.671,155.96139,
2929.760,158.72307,
2926.850,149.31353,
2923.939,150.51868,
2921.028,156.54119,
2918.118,168.49748,
2915.207,140.34801,
2912.297,171.84344,
2909.386,166.62773,
2906.476,157.84553,
2903.565,159.32297,
2900.654,155.44691,
2897.744,183.66055,
2894.833,142.97964,
2891.923,144.08341,
2889.012,142.6185,
2886.102,154.9392,
2883.191,137.01133,
2880.280,137.01435,
2877.370,54.069974,
2874.459,6.8114853,
2871.549,67.381992,
2868.638,138.82264,
2865.727,135.1808,
2862.817,154.60158,
2859.906,155.54416,
2856.996,161.45698,
2854.085,184.20381,
2851.175,176.44885,
2848.264,167.6325,
2845.353,156.69014,
2842.443,182.01044,
2839.532,158.25382,
2836.622,159.15169,
2833.711,169.99216,
2830.801,183.49632,
2827.890,175.52274,
2824.979,173.44408,
2822.069,165.13647,
2819.158,177,
2816.248,177,
2813.337,192.09269,
2810.427,180.69835,
2807.516,182.73375,
2804.605,180.65626,
2801.695,180.81577,
2798.784,170.22177,
2795.874,165.12927,
2792.963,176.07138,
2790.052,186.99743,
2787.142,185.46065,
2784.231,191.19411,
2781.321,180.74856,
2778.410,177.82995,
2775.500,182.82931,
2772.589,184.96101,
2769.678,186.28323,
2766.768,188.88348,
2763.857,184.36801,
2760.947,183.51576,
2758.036,201.2485,
2755.126,200.85897,
2752.215,199.19095,
2749.304,208.97841,
2746.394,187.81044,
2743.483,208.59997,
2740.573,206.90262,
2737.662,194.34023,
2734.751,190.62634,
2731.841,198.27107,
2728.930,197.22457,
2726.020,210.23495,
2723.109,196.06225,
2720.199,218.04075,
2717.288,216.85768,
2714.377,219.67934,
2711.467,219.42637,
2708.556,218.21263,
2705.646,220.46478,
2702.735,218.83247,
2699.825,225.33639,
2696.914,220.8568,
2694.003,224.54146,
2691.093,231.87485,
2688.182,217.30815,
2685.272,236.12376,
2682.361,218.1179,
2679.450,230.77357,
2676.540,236.83741,
2673.629,229.66367,
2670.719,230.35767,
2667.808,226.19454,
2664.898,235.03891,
2661.987,236.29997,
2659.076,232.38147,
2656.166,236.98274,
2653.255,221.07483,
2650.345,233.89655,
2647.434,227.97199,
2644.524,241.27814,
2641.613,241.34318,
2638.702,256.84219,
2635.792,239.37388,
2632.881,252.61897,
2629.971,250.76507,
2627.060,252.6675,
2624.149,247.37812,
2621.239,248.24852,
2618.328,230.6782,
2615.418,246.99546,
2612.507,245.89724,
2609.597,247.63273,
2606.686,248.8695,
2603.775,259.39682,
2600.865,251.29352,
2597.954,270.19166,
2595.044,271.68733,
2592.133,262.10823,
2589.223,268.80738,
2586.312,275.24125,
2583.401,266.87595,
2580.491,268.11061,
2577.580,261.0066,
2574.670,263.33958,
2571.759,269.45975,
2568.848,267.29829,
2565.938,284.52398,
2563.027,265.75679,
2560.117,256.84108,
2557.206,265.98524,
2554.296,265.746,
2551.385,278.562,
2548.474,294.18551,
2545.564,304.87338,
2542.653,301.06376,
2539.743,284.54313,
2536.832,286.28598,
2533.922,288.28385,
2531.011,307.37488,
2528.100,305.13587,
2525.190,291.30369,
2522.279,307.85931,
2519.369,300.47197,
2516.458,278.88102,
2513.548,300.74502,
2510.637,311.24593,
2507.726,312.81412,
2504.816,307.43743,
2501.905,296.44939,
2498.995,297.55269,
2496.084,317.09405,
2493.173,301.02616,
2490.263,313.75257,
2487.352,319.1252,
2484.442,321.43041,
2481.531,316.84046,
2478.621,316.30333,
2475.710,316.023,
2472.799,319.49327,
2469.889,309.85039,
2466.978,317.48435,
2464.068,330.74605,
2461.157,326.69006,
2458.247,320.83828,
2455.336,320.72406,
2452.425,326.9151,
2449.515,334.49065,
2446.604,330.59683,
2443.694,323.97699,
2440.783,335.47748,
2437.872,333.40111,
2434.962,337.95853,
2432.051,324.90131,
2429.141,340.38809,
2426.230,348.73924,
2423.320,348.09986,
2420.409,354.3782,
2417.498,347.2219,
2414.588,338.73005,
2411.677,342.18332,
2408.767,369.44685,
2405.856,356,
2402.946,349.83914,
2400.035,353.29343,
2397.124,360,
2394.214,367.46119,
2391.303,360.49187,
2388.393,346.22559,
2385.482,329.83717,
2382.571,325.92315,
2379.661,344.83741,
2376.750,341.04917,
2373.840,360.62809,
2370.929,380.80507,
2368.019,368.69826,
2365.108,381.18586,
2362.197,376.43011,
2359.287,380.78162,
2356.376,387.99119,
2353.466,397.07713,
2350.555,381.34516,
2347.645,376.15896,
2344.734,371.15208,
2341.823,388.71809,
2338.913,414.13877,
2336.002,388.11243,
2333.092,398.44813,
2330.181,405.75447,
2327.270,397.49505,
2324.360,402.67216,
2321.449,410.55443,
2318.539,413.40366,
2315.628,400.63069,
2312.718,409.36565,
2309.807,415.54651,
2306.896,423.25196,
2303.986,416.60383,
2301.075,415.02125,
2298.165,433.56756,
2295.254,406.66783,
2292.344,415.62649,
2289.433,430.29727,
2286.522,428.70083,
2283.612,440.14031,
2280.701,445.46188,
2277.791,429.91985,
2274.880,429.92596,
2271.969,429.6502,
2269.059,433.64035,
2266.148,439.43406,
2263.238,432.50193,
2260.327,433.93103,
2257.417,434.42333,
2254.506,447.90032,
2251.595,453.00732,
2248.685,456.57497,
2245.774,444.68158,
2242.864,450.12967,
2239.953,455.64131,
2237.043,465.66215,
2234.132,456.49353,
2231.221,466.92255,
2228.311,471.26031,
2225.400,489.52153,
2222.490,473.92836,
2219.579,478.68381,
2216.669,477.01431,
2213.758,475.30458,
2210.847,470.35769,
2207.937,494.90062,
2205.026,503.22186,
2202.116,513.78662,
2199.205,509.81294,
2196.294,507.18198,
2193.384,534.73604,
2190.473,503.67488,
2187.563,568.90816,
2184.652,550.75306,
2181.742,552.34058,
2178.831,543.80155,
2175.920,558.48635,
2173.010,571.72506,
2170.099,570.26686,
2167.189,591.12916,
2164.278,608.26633,
2161.368,604,
2158.457,599.76373,
2155.546,614.1808,
2152.636,609.0958,
2149.725,641.6107,
2146.815,658.69968,
2143.904,674.79926,
2140.993,668.57677,
2138.083,660.20058,
2135.172,685.37825,
2132.262,678.09419,
2129.351,684.6346,
2126.441,683.04852,
2123.530,679.14591,
2120.619,684.56912,
2117.709,634.57206,
2114.798,615.28835,
2111.888,607.68716,
2108.977,600.37747,
2106.067,581.38271,
2103.156,578,
2100.245,554.01192,
2097.335,572.27749,
2094.424,564.36716,
2091.514,550.99458,
2088.603,560.51144,
2085.692,569.76958,
2082.782,564.82729,
2079.871,578.32205,
2076.961,591.28964,
2074.050,562.14545,
2071.140,565.16091,
2068.229,567.90494,
2065.318,568.78974,
2062.408,567.90922,
2059.497,577.60715,
2056.587,560.13986,
2053.676,577.31512,
2050.766,548.84828,
2047.855,573.08867,
2044.944,542.66506,
2042.034,551.02896,
2039.123,569.44108,
2036.213,573.36664,
2033.302,589.45615,
2030.391,589.39039,
2027.481,584.69506,
2024.570,577.72882,
2021.660,558.12346,
2018.749,605.05024,
2015.839,578.84777,
2012.928,557.87416,
2010.017,543.41477,
2007.107,561.74392,
2004.196,570.75004,
2001.286,605.16957,
1998.375,572.98521,
1995.465,565.37232,
1992.554,569,
1989.643,587.34329,
1986.733,546.60877,
1983.822,529.47637,
1980.912,571.35614,
1978.001,559.62709,
1975.090,549.84274,
1972.180,530.10373,
1969.269,526.43391,
1966.359,535.72986,
1963.448,538.07794,
1960.538,562.96831,
1957.627,556.51702,
1954.716,563.74146,
1951.806,532.80129,
1948.895,528.23483,
1945.985,524.02124,
1943.074,524.63474,
1940.164,517.77889,
1937.253,509.80893,
1934.342,512.64972,
1931.432,547.8959,
1928.521,542.81692,
1925.611,537.32463,
1922.700,534.25138,
1919.790,520.08107,
1916.879,513.34875,
1913.968,530.97787,
1911.058,554.34834,
1908.147,532.59417,
1905.237,537.44114,
1902.326,523.4385,
1899.415,524.3646,
1896.505,465.8613,
1893.594,472.89339,
1890.684,510.19604,
1887.773,525.81872,
1884.863,541.29157,
1881.952,534.14262,
1879.041,525.21755,
1876.131,554.94639,
1873.220,535.84945,
1870.310,523.64575,
1867.399,535.79208,
1864.489,534.57162,
1861.578,525.12079,
1858.667,532.18565,
1855.757,514.9821,
1852.846,543.54356,
1849.936,555.39641,
1847.025,512.71048,
1844.114,528.61424,
1841.204,574.43007,
1838.293,570.98836,
1835.383,563.24451,
1832.472,567.01217,
1829.562,560.75234,
1826.651,566.72688,
1823.740,590.01536,
1820.830,562.8186,
1817.919,557.88626,
1815.009,540.16285,
1812.098,582.7795,
1809.188,604.88368,
1806.277,572.75248,
1803.366,543.21627,
1800.456,556.98923,
1797.545,574.64536,
1794.635,581.51601,
1791.724,586.65046,
1788.813,593.79846,
1785.903,582.66865,
1782.992,565.21909,
1780.082,538.75229,
1777.171,437.98982,
1774.261,442.34085,
1771.350,531.83001,
1768.439,577.27957,
1765.529,612.81947,
1762.618,635.01065,
1759.708,621.39102,
1756.797,610.67424,
1753.887,630.6414,
1750.976,626.74477,
1748.065,632.67434,
1745.155,644.47094,
1742.244,638.39222,
1739.334,622.36,
1736.423,638.90277,
1733.512,652.36587,
1730.602,659.98414,
1727.691,658.92936,
1724.781,688.67649,
1721.870,677.6856,
1718.960,683.68902,
1716.049,687.67795,
1713.138,688.855,
1710.228,702.92475,
1707.317,677.57829,
1704.407,683.88237,
1701.496,703.23096,
1698.586,697.60812,
1695.675,714.77846,
1692.764,675.29096,
1689.854,688.3071,
1686.943,693.83137,
1684.033,732.03139,
1681.122,716.28887,
1678.211,750.66689,
1675.301,786.889,
1672.390,784.96112,
1669.480,772.11231,
1666.569,785.97461,
1663.659,784.26132,
1660.748,800.86768,
1657.837,845.24057,
1654.927,855.36741,
1652.016,830.79813,
1649.106,902.06972,
1646.195,866.43858,
1643.285,924.81771,
1640.374,917,
1637.463,917.95477,
1634.553,971.03445,
1631.642,1040.5538,
1628.732,1091.1837,
1625.821,1122.0222,
1622.911,1155.8084,
1620.000,1230.0551,
1617.089,1282.9453,
1614.179,1391.8697,
1611.268,1459.5091,
1608.358,1532.5351,
1605.447,1627.4579,
1602.536,1631.1362,
1599.626,1655.8382,
1596.715,1702.4725,
1593.805,1623.8271,
1590.894,1629.8521,
1587.984,1632,
1585.073,1523.9463,
1582.162,1545.9094,
1579.252,1471.3516,
1576.341,1447.3926,
1573.431,1413.8899,
1570.520,1400.4137,
1567.610,1387.0782,
1564.699,1358.349,
1561.788,1332.803,
1558.878,1291.8618,
1555.967,1260.144,
1553.057,1244.9828,
1550.146,1275.4145,
1547.235,1243.8706,
1544.325,1231.8834,
1541.414,1267.7418,
1538.504,1238.8406,
1535.593,1215.5289,
1532.683,1226.1903,
1529.772,1210.5314,
1526.861,1187.9185,
1523.951,1171.8454,
1521.040,1176.2317,
1518.130,1185.2025,
1515.219,1218.2002,
1512.309,1194.6486,
1509.398,1155.0968,
1506.487,1189.1025,
1503.577,1179.6738,
1500.666,1201.3358,
1497.756,1205.6019,
1494.845,1224.8399,
1491.934,1220.7165,
1489.024,1134.0922,
1486.113,1180.1424,
1483.203,1158.2431,
1480.292,1135.4842,
1477.382,1125.534,
1474.471,1102.5134,
1471.560,1071.3274,
1468.650,1068.8327,
1465.739,1082.2478,
1462.829,1117.2441,
1459.918,1121.5303,
1457.008,1119.6617,
1454.097,1131.3865,
1451.186,1123.8511,
1448.276,1104.7275,
1445.365,1070.2101,
1442.455,1020.5466,
1439.544,1019.7566,
1436.633,1010.2522,
1433.723,996.5166,
1430.812,961.84189,
1427.902,1009.2559,
1424.991,977.9797,
1422.081,962.32037,
1419.170,979.14527,
1416.259,1009.5421,
1413.349,994.85325,
1410.438,949.51212,
1407.528,961.96838,
1404.617,994.43959,
1401.707,930.21851,
1398.796,880.46499,
1395.885,906.20084,
1392.975,894.1033,
1390.064,856.58862,
1387.154,845.61598,
1384.243,805.34489,
1381.332,804.89736,
1378.422,789.59407,
1375.511,820.50784,
1372.601,907.62761,
1369.690,932.14445,
1366.780,941.33628,
1363.869,1009.8359,
1360.958,1028.3978,
1358.048,1055.8522,
1355.137,1102.2328,
1352.227,1101.6665,
1349.316,1104.3287,
1346.406,1175.9484,
1343.495,1212.7996,
1340.584,1177.3209,
1337.674,1216.0384,
1334.763,1258.2117,
1331.853,1263.7751,
1328.942,1276.4525,
1326.032,1293.4968,
1323.121,1274.7711,
1320.210,1336.9217,
1317.300,1353.1126,
1314.389,1374.4312,
1311.479,1417.4854,
1308.568,1437.4654,
1305.657,1462.486,
1302.747,1504.2788,
1299.836,1546.5136,
1296.926,1642.7009,
1294.015,1636.2656,
1291.105,1621.0308,
1288.194,1705.2642,
1285.283,1722.704,
1282.373,1724.1641,
1279.462,1750.7054,
1276.552,1802.5907,
1273.641,1823.0565,
1270.731,1808.4672,
1267.820,1820.0041,
1264.909,1760.5716,
1261.999,1771.3342,
1259.088,1753.0918,
1256.178,1766.5598,
1253.267,1769.7672,
1250.356,1732.0738,
1247.446,1716.3469,
1244.535,1703.134,
1241.625,1685.1741,
1238.714,1674.7728,
1235.804,1666.4611,
1232.893,1681.6317,
1229.982,1650.0494,
1227.072,1621.9847,
1224.161,1653.6202,
1221.251,1578.104,
1218.340,1550.6478,
1215.430,1555.9548,
1212.519,1551.3976,
1209.608,1542.7719,
1206.698,1549.5746,
1203.787,1553.4573,
1200.877,1520.6746,
1197.966,1563.8342,
1195.055,1603.5429,
1192.145,1652.8266,
1189.234,1707.8739,
1186.324,1752.9113,
1183.413,1771.1168,
1180.503,1798.3295,
1177.592,1832.8581,
1174.681,1761.6062,
1171.771,1752.8654,
1168.860,1790.3752,
1165.950,1702.083,
1163.039,1721.9042,
1160.129,1712.2768,
1157.218,1722.3249,
1154.307,1759.9364,
1151.397,1770.2607,
1148.486,1777.4438,
1145.576,1812.2654,
1142.665,1772.3093,
1139.754,1747.032,
1136.844,1752.5045,
1133.933,1761.1055,
1131.023,1732.8417,
1128.112,1698,
1125.202,1699.2077,
1122.291,1706.7601,
1119.380,1733.1559,
1116.470,1749.0414,
1113.559,1703.8318,
1110.649,1692.6194,
1107.738,1680.6045,
1104.828,1668.1678,
1101.917,1675.2844,
1099.006,1696.0515,
1096.096,1698.9574,
1093.185,1665.5933,
1090.275,1742.3085,
1087.364,1725.3216,
1084.453,1728.1238,
1081.543,1726.7858,
1078.632,1722.9233,
1075.722,1760.1881,
1072.811,1760.0072,
1069.901,1746.035,
1066.990,1756.3166,
1064.079,1765.1246,
1061.169,1779.5983,
1058.258,1772.9075,
1055.348,1758.055,
1052.437,1769.9164,
1049.527,1745.6112,
1046.616,1787.315,
1043.705,1773.5016,
1040.795,1765.446,
1037.884,1783.7238,
1034.974,1796.6688,
1032.063,1786.7154,
1029.153,1790.5579,
1026.242,1803.5323,
1023.331,1796.5005,
1020.421,1822.187,
1017.510,1835.1206,
1014.600,1864.7592,
1011.689,1894.3076,
1008.778,1870.5864,
1005.868,1874.1699,
1002.957,1893.0977,
1000.047,1943.32,
997.136,1985.6677,
994.226,2020.8459,
991.315,2028.3862,
988.404,1986.5692,
985.494,1942.0218,
982.583,1898.3375,
979.673,1917.6076,
976.762,1906.4514,
973.852,1882.2758,
970.941,1874.1493,
968.030,1880.0924,
965.120,1858.1575,
962.209,1895.6694,
959.299,1943.0785,
956.388,1957.7601,
953.477,1959.6992,
950.567,1965.5228,
947.656,1967.5571,
944.746,1971.8048,
941.835,1964.7117,
938.925,2005.1152,
936.014,2010.3077,
933.103,1976.6984,
930.193,1948.3959,
927.282,1957.8296,
924.372,1880.8794,
921.461,1886.4644,
918.551,1905.9424,
915.640,1889.2285,
912.729,1856.757,
909.819,1872.2266,
906.908,1911.8206,
903.998,1907.6371,
901.087,1928.9142,
898.176,1921.4806,
895.266,1929.4703,
892.355,1982.1211,
889.445,1913.3012,
886.534,1955.5785,
883.624,1955.926,
880.713,1968.3314,
877.802,1951.6926,
874.892,1866.7322,
871.981,1755.666,
869.071,1614.4812,
866.160,1629.3277,
863.250,1758.131,
860.339,1878.3306,
857.428,1917.5914,
854.518,1935.1465,
851.607,1871.0771,
848.697,1826.9848,
845.786,1765.293,
842.875,1767.4413,
839.965,1873.0152,
837.054,1969.7071,
834.144,2032.6922,
831.233,2068.3316,
828.323,2065.1628,
825.412,2057.7271,
822.501,2078.1703,
819.591,2101.3095,
816.680,2035.4935,
813.770,2001.4579,
810.859,1990.0975,
807.949,1986.5195,
805.038,1979.6018,
802.127,1976.3093,
799.217,1967.8007,
796.306,1961.5946,
793.396,1964.4504,
790.485,1975.1058,
787.574,1982.0036,
784.664,1955.76,
781.753,1955.0259,
778.843,1978.5636,
775.932,1996.9877,
773.022,1990.7895,
770.111,2008.7763,
767.200,1990.9672,
764.290,2002.9142,
761.379,2012.4552,
758.469,2017.6726,
755.558,2058.0729,
752.648,2060.5167,
749.737,2030.3189,
746.826,2005.1418,
743.916,1988.0194,
741.005,1970.1834,
738.095,1971.8072,
735.184,1936.9621,
732.274,1875.6692,
729.363,1857.2086,
726.452,1913.1859,
723.542,1958.512,
720.631,1975.5262,
717.721,1997.7582,
714.810,2014.4261,
711.899,2023.9505,
708.989,2040.8959,
706.078,2023.3713,
703.168,2000.1762,
700.257,1999.9646,
697.347,2015.9132,
694.436,2011.4108,
691.525,1989.7081,
688.615,2018.3323,
685.704,2028.9344,
682.794,2030.5743,
679.883,2074.2791,
676.973,2058.2517,
674.062,2081.1614,
671.151,2076.7135,
668.241,2060.8152,
665.330,2086.6932,
662.420,2037.9706,
659.509,2029.9048,
656.598,2031.4327,
653.688,2039.1313,
650.777,2062.0549,
647.867,2034.1834,
644.956,2008.8063,
642.046,1972.9533,
639.135,1943.4018,
636.224,1960.3103,
633.314,2022.2375,
630.403,2036.2264,
627.493,2048.0585,
624.582,2069.8829,
621.672,2073.8428,
618.761,2073.2401,
615.850,2088.9786,
612.940,2126.249,
610.029,2170.3695,
607.119,2154.5769,
604.208,2204.831,
601.297,2214.0356,
598.387,2201.7134,
595.476,2201.5942,
592.566,2207.8908,
589.655,2227.7888,
586.745,2226.7168,
583.834,2203.2166,
580.923,2172.2369,
578.013,2211.4736,
575.102,2217.9849,
572.192,2213.9281,
569.281,2210.7346,
566.371,2203.691,
563.460,2198.0617,
560.549,2193.0763,
557.639,2218.7363,
554.728,2295.374,
551.818,2269.6236,
548.907,2267.0471,
545.996,2256.9475,
543.086,2241.523,
540.175,2257.8746,
537.265,2220.6132,
534.354,2206.5017,
531.444,2200.5909,
528.533,2185.4899,
525.622,2206.4405,
522.712,2187.9434,
519.801,2162.6892,
516.891,2149.7561,
513.980,2168.3392,
511.070,2209.4435,
508.159,2205.9422,
505.248,2194.7656,
502.338,2227.7004,
499.427,2251.6271,
496.517,2263.0909,
493.606,2257.2417,
490.695,2239.1768,
487.785,2247.6445,
484.874,2259.9858,
481.964,2253.5417,
479.053,2231.7713,
476.143,2214.1081,
473.232,2232.4239,
470.321,2241.4597,
467.411,2237.4283,
464.500,2220.7867,
461.590,2212.3635,
458.679,2218.8047,
455.769,2227.8904,
452.858,2233.5112,
449.947,2248.0259,
447.037,2241.8986,
444.126,2231.9333,
441.216,2227.6458,
438.305,2242.8844,
435.395,2248.9338,
432.484,2229.7456,
429.573,2197.6925,
426.663,2187.8106,
423.752,1972.1949,
420.842,1776.7023,
417.931,1634.0995,
415.020,1560.5388,
412.110,1890.884,
409.199,2148.9412,
406.289,2272.7975,
403.378,2216.8412,
400.468,2169.9695,
397.557,2173.5094,
394.646,2208.7768,
391.736,2257.6761,
388.825,2278.7945,
385.915,2270.0986,
383.004,2259.2843,
380.094,2266.8427,
377.183,2302.9615,
374.272,2295.631,
371.362,2305.1348,
368.451,2360.6748,
365.541,2322.3975,
362.630,2328.9335,
359.719,2348.3274,
356.809,2359.7767,
353.898,2339.5591,
350.988,2349.1896,
348.077,2359.6767,
345.167,2352.8269,
342.256,2329.6678,
339.345,2344.7887,
336.435,2358.4482,
333.524,2344.3288,
330.614,2354.761,
327.703,2382.6434,
324.793,2408.8357,
321.882,2417.0324,
318.971,2430.4144,
316.061,2439.8831,
313.150,2458.6262,
310.240,2502.411,
307.329,2528.2977,
304.418,2565.8131,
301.508,2600.5754,
298.597,2606.4987,
295.687,2602.9366,
292.776,2632.6668,
289.866,2700.5093,
286.955,2812.0568,
284.044,2869.1125,
281.134,2933.7317,
278.223,3006.449,
275.313,3030.0284,
272.402,3075.6632,
269.492,3098.6629,
266.581,3079.9026,
263.670,3008.5901,
260.760,3065.3127,
257.849,3150.6277,
254.939,3192.4591,
252.028,3193,
249.117,3178.3815,
246.207,3186.5705,
243.296,3285.3954,
240.386,3265.9624,
237.475,3234.6325,
234.565,3208.8497,
231.654,3201.5458,
228.743,3173.5331,
225.833,3127.474,
222.922,3065.1994,
220.012,3026.586,
217.101,2999.7692,
214.191,2968.8265,
211.280,2914.9943,
208.369,2879.3778,
205.459,2842.0412,
202.548,2814.8914,
199.638,2848.9969,
196.727,2807.0216,
193.816,2798.3931,
190.906,2857.1496,
187.995,2718.8609,
185.085,2674.7828,
182.174,2684.8765,
179.264,2706.5595,
176.353,2659.66,
173.442,2671.8814,
170.532,2727.8868,
167.621,2606.7629,
164.711,2542.9915,
161.800,2438.5672,
158.890,2214.7319,
155.979,2079.3824,
153.068,1904.1468,
150.158,1691.4014,
147.247,1464.5285,
144.337,1221.0568,
141.426,966.57762,
138.516,702.04475,
135.605,513.51909,
132.694,362.40853,
129.784,242.46382,
126.873,147.35156,
123.963,101.82277,
121.052,70.668431,
118.141,42.112351,
115.231,38.447148,
112.320,32.340005,
109.410,26.136355,
106.499,26.84851,
103.589,23.078219,
100.678,18.37027,
97.767,14.104644,
94.857,14,
91.946,14.806222,
89.036,15.774204,
86.125,14.355794,
83.215,13.46908,
80.304,12.521135,
77.393,11.104795,
74.483,13.62054,
71.572,13.188239,
68.662,9.5151275,
65.751,4.56997,
62.840,5.4085099,
59.930,8,
57.019,8,
54.109,3.2227132,
51.198,2.1112649,
48.288,6.9830127,
45.377,4.8728785,
42.466,3.1755613,
39.556,2.4604743,
36.645,5.2692352,
33.735,3.4037577,
30.824,-0.76709579,
27.914,-6.3764977,
25.003,-9.4905499,
22.092,-11,
19.182,-10.656757,
16.271,-0.16440507,
13.361,-10.329571,
10.450,-72.186605,
7.539,-317.2953,
4.629,-757.40091,
1.718,-1185.2636,
-1.192,-1430.6585,
-4.103,-1058.5075,
-7.013,-554.7821,
-9.924,2,
