,PLE8F6~1,
Raman shift [1/cm],Intensity,
3014.167,4.5,
3011.256,-0.39997853,
3008.346,37.15841,
3005.435,51.924029,
3002.525,43.81991,
2999.614,35.351963,
2996.704,36.322683,
2993.793,56.64228,
2990.882,47.454177,
2987.972,60.424326,
2985.061,45.94335,
2982.151,54.426057,
2979.240,44.830782,
2976.329,55.49454,
2973.419,51.869191,
2970.508,60.89996,
2967.598,65.5,
2964.687,68.365489,
2961.777,49.756189,
2958.866,61.182009,
2955.955,54.159275,
2953.045,77.848985,
2950.134,67.467924,
2947.224,62.21172,
2944.313,77.511395,
2941.403,83.881385,
2938.492,71.936318,
2935.581,73.387121,
2932.671,78.341213,
2929.760,75.946141,
2926.850,68.5,
2923.939,79.822448,
2921.028,83.829536,
2918.118,79.400505,
2915.207,89.386149,
2912.297,88.521157,
2909.386,70.697081,
2906.476,79.980323,
2903.565,97.5,
2900.654,97.5,
2897.744,75.663439,
2894.833,91.386544,
2891.923,75.227491,
2889.012,86.586704,
2886.102,74.895947,
2883.191,85.489616,
2880.280,60.222483,
2877.370,46.575594,
2874.459,45.795578,
2871.549,50.421151,
2868.638,71.774214,
2865.727,81.103857,
2862.817,85.243308,
2859.906,79.323356,
2856.996,92.504529,
2854.085,96.781522,
2851.175,82.810229,
2848.264,90.995165,
2845.353,91.5,
2842.443,91.5,
2839.532,92.276115,
2836.622,84.230466,
2833.711,91.61145,
2830.801,84.5,
2827.890,87.667842,
2824.979,90.932018,
2822.069,90.579605,
2819.158,96.739891,
2816.248,98.488421,
2813.337,106.25244,
2810.427,101.75757,
2807.516,96.557658,
2804.605,94.930292,
2801.695,101.63158,
2798.784,96.943538,
2795.874,95.069919,
2792.963,94.571383,
2790.052,84.50193,
2787.142,94.144731,
2784.231,86.403736,
2781.321,82.882926,
2778.410,101.42513,
2775.500,84.714488,
2772.589,109.84481,
2769.678,88.107515,
2766.768,93.804864,
2763.857,101.13199,
2760.947,102.48739,
2758.036,93.722889,
2755.126,82.057702,
2752.215,109.9908,
2749.304,95.521591,
2746.394,107.40522,
2743.483,102.40005,
2740.573,105.80758,
2737.662,101.61686,
2734.751,101.59229,
2731.841,109.2033,
2728.930,98.643991,
2726.020,103.93866,
2723.109,92.407334,
2720.199,104.81239,
2717.288,113.97445,
2714.377,116.33738,
2711.467,110.23737,
2708.556,120.28737,
2705.646,110.42956,
2702.735,111.34795,
2699.825,119.14179,
2696.914,105.21408,
2694.003,110.5,
2691.093,106.9284,
2688.182,101.7363,
2685.272,107.37624,
2682.361,112.77074,
2679.450,116.11724,
2676.540,99.703241,
2673.629,112.15469,
2670.719,118.78466,
2667.808,116.64591,
2664.898,115.643,
2661.987,113.16678,
2659.076,109.6444,
2656.166,124.54766,
2653.255,110.68707,
2650.345,111.77223,
2647.434,118.75722,
2644.524,121.88609,
2641.613,122.5,
2638.702,117.57891,
2635.792,112.81306,
2632.881,116.00583,
2629.971,129.3524,
2627.060,123.16563,
2624.149,129.20313,
2621.239,122.74259,
2618.328,114.51729,
2615.418,135.84091,
2612.507,129.39724,
2609.597,121.14271,
2606.686,121.05824,
2603.775,130.38095,
2600.865,128.91295,
2597.954,122.36245,
2595.044,141.15191,
2592.133,131.65911,
2589.223,130.63264,
2586.312,133.5,
2583.401,137.09125,
2580.491,126.98081,
2577.580,145.49835,
2574.670,142.83958,
2571.759,137.94949,
2568.848,120.21262,
2565.938,145.6906,
2563.027,130.32953,
2560.117,134.13552,
2557.206,144.44465,
2554.296,139.52975,
2551.385,142.30998,
2548.474,148.64833,
2545.564,143.7849,
2542.653,144.5,
2539.743,138.0801,
2536.832,145.09253,
2533.922,139.54731,
2531.011,143.32493,
2528.100,149.23172,
2525.190,132.73566,
2522.279,158.89033,
2519.369,145.89626,
2516.458,146.16785,
2513.548,155.5908,
2510.637,155.1311,
2507.726,147.00185,
2504.816,144.87542,
2501.905,137.76098,
2498.995,141.5,
2496.084,138.12716,
2493.173,143.76358,
2490.263,150.51129,
2487.352,154.5,
2484.442,153.93041,
2481.531,161.97863,
2478.621,154.37672,
2475.710,163.523,
2472.799,161.32069,
2469.889,158.58867,
2466.978,168.17014,
2464.068,147.34649,
2461.157,154.61745,
2458.247,163.92648,
2455.336,167.13797,
2452.425,148.88677,
2449.515,155.88669,
2446.604,153.96772,
2443.694,164.31416,
2440.783,172.54842,
2437.872,163.53646,
2434.962,164.76267,
2432.051,169.88897,
2429.141,166.67069,
2426.230,165.36962,
2423.320,174.34288,
2420.409,170.85261,
2417.498,176.07305,
2414.588,180.04754,
2411.677,169.17728,
2408.767,164.54724,
2405.856,178.37618,
2402.946,179.81546,
2400.035,175.90375,
2397.124,184.81552,
2394.214,172.4732,
2391.303,175.57182,
2388.393,177.24651,
2385.482,170.80843,
2382.571,182.66453,
2379.661,183.12791,
2376.750,185.97288,
2373.840,171.24383,
2370.929,188.26175,
2368.019,183.11453,
2365.108,187.42932,
2362.197,190.52737,
2359.287,172.92841,
2356.376,185.47182,
2353.466,188.1216,
2350.555,192.37535,
2347.645,193.29075,
2344.734,204.77655,
2341.823,183.94775,
2338.913,205.88206,
2336.002,188.94972,
2333.092,195.93679,
2330.181,203.04474,
2327.270,188.4901,
2324.360,183.78535,
2321.449,199.46939,
2318.539,194.35014,
2315.628,197.26419,
2312.718,190.01762,
2309.807,210.27036,
2306.896,194.00391,
2303.986,201.59096,
2301.075,201.47875,
2298.165,217.25039,
2295.254,211.73697,
2292.344,189.39208,
2289.433,204.87455,
2286.522,212.93306,
2283.612,220.16073,
2280.701,209.78702,
2277.791,227.73858,
2274.880,212.06795,
2271.969,213.37654,
2269.059,208.32017,
2266.148,220.33639,
2263.238,213.50387,
2260.327,220.2241,
2257.417,218.39778,
2254.506,218.83616,
2251.595,211.07091,
2248.685,220.33843,
2245.774,222.59892,
2242.864,235.42522,
2239.953,208.23098,
2237.043,222.56535,
2234.132,221.139,
2231.221,228.42255,
2228.311,231.89047,
2225.400,212.97847,
2222.490,230.42836,
2219.579,236.55142,
2216.669,235.52385,
2213.758,231.80458,
2210.847,245.39671,
2207.937,235.07005,
2205.026,233.83294,
2202.116,240.56689,
2199.205,232.3873,
2196.294,256.16994,
2193.384,238.10645,
2190.473,256.24531,
2187.563,248.49517,
2184.652,248.10245,
2181.742,255.04589,
2178.831,266.57783,
2175.920,280.40893,
2173.010,292.5754,
2170.099,283.23462,
2167.189,303.62916,
2164.278,321.64673,
2161.368,328.49928,
2158.457,341.80549,
2155.546,352.39329,
2152.636,365.98403,
2149.725,366.66779,
2146.815,369.39989,
2143.904,376.60779,
2140.993,397.82801,
2138.083,415.34797,
2135.172,420.60076,
2132.262,414.13292,
2129.351,406.17235,
2126.441,398.96601,
2123.530,403.16328,
2120.619,374.46326,
2117.709,373.38044,
2114.798,341.84602,
2111.888,324.01248,
2108.977,311.149,
2106.067,305.77513,
2103.156,314.41852,
2100.245,276.50063,
2097.335,279.90837,
2094.424,296.5426,
2091.514,286.70693,
2088.603,275.92396,
2085.692,274.54463,
2082.782,275.32729,
2079.871,274.85706,
2076.961,268.88747,
2074.050,251.51818,
2071.140,267.79914,
2068.229,256.11978,
2065.318,267.69674,
2062.408,257.43948,
2059.497,267.51191,
2056.587,251.63986,
2053.676,236.15045,
2050.766,264.95964,
2047.855,261.24369,
2044.944,254.6282,
2042.034,263.99705,
2039.123,257.32155,
2036.213,265.86664,
2033.302,253.15224,
2030.391,242.41545,
2027.481,257.84128,
2024.570,241.74346,
2021.660,227.15042,
2018.749,253.85416,
2015.839,239.24869,
2012.928,247.97147,
2010.017,238.52606,
2007.107,244.45516,
2004.196,251.40475,
2001.286,239.64489,
1998.375,238.6752,
1995.465,235.78036,
1992.554,248.52341,
1989.643,229.2604,
1986.733,243.21579,
1983.822,221.91063,
1980.912,225.03421,
1978.001,210.88962,
1975.090,214.52289,
1972.180,217.5678,
1969.269,202.7614,
1966.359,210.04091,
1963.448,221.11691,
1960.538,223.55755,
1957.627,221.82508,
1954.716,215.67236,
1951.806,206.39421,
1948.895,220.94943,
1945.985,206.97222,
1943.074,216.57386,
1940.164,212.19244,
1937.253,234.55192,
1934.342,229.82461,
1931.432,208.34543,
1928.521,191.91451,
1925.611,178.4546,
1922.700,209.74032,
1919.790,207.30359,
1916.879,187.82524,
1913.968,200.48279,
1911.058,207.65014,
1908.147,183.35987,
1905.237,193.91175,
1902.326,191.71925,
1899.415,200.87561,
1896.505,191.97586,
1893.594,196.49394,
1890.684,195.59159,
1887.773,188.69814,
1884.863,191.22437,
1881.952,174.45766,
1879.041,176.57788,
1876.131,200.67385,
1873.220,192.42473,
1870.310,208.13674,
1867.399,177.02779,
1864.489,198.53894,
1861.578,197.44521,
1858.667,183.22152,
1855.757,213.90931,
1852.846,203.5,
1849.936,195.64015,
1847.025,176.7944,
1844.114,176.70706,
1841.204,199.6993,
1838.293,217.01414,
1835.383,197.57001,
1832.472,196.80261,
1829.562,194.19557,
1826.651,199.07288,
1823.740,196.94826,
1820.830,213.01985,
1817.919,205.46998,
1815.009,197.3626,
1812.098,230.61021,
1809.188,203.54658,
1806.277,251.37128,
1803.366,185.01572,
1800.456,215.99461,
1797.545,224.5,
1794.635,220.62994,
1791.724,202.42222,
1788.813,233.68869,
1785.903,200.84495,
1782.992,210.10954,
1780.082,210.28233,
1777.171,195.49732,
1774.261,183.67496,
1771.350,188.81075,
1768.439,193.83935,
1765.529,201.68524,
1762.618,217.70249,
1759.708,242.66336,
1756.797,230.00757,
1753.887,206.47522,
1750.976,232.42081,
1748.065,236.74117,
1745.155,224.19683,
1742.244,221.48641,
1739.334,222.5,
1736.423,217.55421,
1733.512,222.0488,
1730.602,265.64093,
1727.691,221.92546,
1724.781,231.2436,
1721.870,207.1141,
1718.960,232.38929,
1716.049,242.8559,
1713.138,259.74492,
1710.228,255.53762,
1707.317,238.57771,
1704.407,249.97596,
1701.496,230.5344,
1698.586,238.66383,
1695.675,196.4574,
1692.764,241.78281,
1689.854,301.90161,
1686.943,237.82707,
1684.033,197.46861,
1681.122,212.22812,
1678.211,255.09075,
1675.301,262.47842,
1672.390,232.69739,
1669.480,298.22725,
1666.569,264.05564,
1663.659,230.46361,
1660.748,288.30718,
1657.837,279.46227,
1654.927,322.19542,
1652.016,309.08692,
1649.106,293.43028,
1646.195,329.73276,
1643.285,299.41146,
1640.374,337.66377,
1637.463,299.25661,
1634.553,340.14533,
1631.642,316.71716,
1628.732,336.34594,
1625.821,310.5229,
1622.911,345.30277,
1620.000,450.16454,
1617.089,424.05722,
1614.179,503.18752,
1611.268,518.97951,
1608.358,529.98495,
1605.447,595.55767,
1602.536,549.1781,
1599.626,597.93617,
1596.715,582.53277,
1593.805,550.98705,
1590.894,589.77217,
1587.984,611.95575,
1585.073,579.61651,
1582.162,550.12319,
1579.252,531.58888,
1576.341,522.09149,
1573.431,533.03079,
1570.520,505.92492,
1567.610,495.00978,
1564.699,498.85018,
1561.788,464.58485,
1558.878,459.05868,
1555.967,461.51801,
1553.057,433.70717,
1550.146,441.23813,
1547.235,440.15151,
1544.325,409.14085,
1541.414,396.74034,
1538.504,415.42788,
1535.593,409.56268,
1532.683,378.31212,
1529.772,370.5187,
1526.861,380.93726,
1523.951,380.06382,
1521.040,349.48231,
1518.130,349.42695,
1515.219,391.90094,
1512.309,365.19822,
1509.398,375.62559,
1506.487,356.65715,
1503.577,377.44625,
1500.666,338.85042,
1497.756,356.66091,
1494.845,345.73958,
1491.934,327.43701,
1489.024,308.18715,
1486.113,310.28165,
1483.203,279.41413,
1480.292,264.46935,
1477.382,269.77423,
1474.471,303.72992,
1471.560,280.84503,
1468.650,288.99821,
1465.739,258.78961,
1462.829,206.06231,
1459.918,223.62187,
1457.008,257.03849,
1454.097,279.3728,
1451.186,279.62766,
1448.276,239.38268,
1445.365,228.07188,
1442.455,218.1941,
1439.544,194.99871,
1436.633,245.53774,
1433.723,200.99246,
1430.812,221.4553,
1427.902,256.53817,
1424.991,174.08284,
1422.081,215.5389,
1419.170,248.87805,
1416.259,121.45972,
1413.349,175.087,
1410.438,199.70088,
1407.528,141.85073,
1404.617,139.26928,
1401.707,181.22756,
1398.796,174.0665,
1395.885,147.80711,
1392.975,129.47821,
1390.064,99.566678,
1387.154,128.73366,
1384.243,118.11858,
1381.332,63.168004,
1378.422,62.528811,
1375.511,101.87361,
1372.601,136.5981,
1369.690,226.07947,
1366.780,236.53982,
1363.869,226.0558,
1360.958,266.73449,
1358.048,265.76753,
1355.137,268.42463,
1352.227,297.85302,
1349.316,317.94361,
1346.406,328.73518,
1343.495,340.72476,
1340.584,361.25009,
1337.674,361.93205,
1334.763,415.11186,
1331.853,404.91232,
1328.942,454.30999,
1326.032,445.81883,
1323.121,486.95787,
1320.210,489.84751,
1317.300,509.47021,
1314.389,506.94404,
1311.479,516.77163,
1308.568,558.09191,
1305.657,560.84755,
1302.747,554.53285,
1299.836,569.44843,
1296.926,590.58546,
1294.015,592.42411,
1291.105,682.31526,
1288.194,668.14148,
1285.283,708.7562,
1282.373,742.05463,
1279.462,758.73514,
1276.552,782.68905,
1273.641,804.01843,
1270.731,797.38507,
1267.820,774.04583,
1264.909,772.12674,
1261.999,798.20041,
1259.088,789.99132,
1256.178,804.05976,
1253.267,820.30952,
1250.356,755.42011,
1247.446,731.30091,
1244.535,735.51786,
1241.625,726.63706,
1238.714,713.07502,
1235.804,694.79619,
1232.893,657.37365,
1229.982,663.62266,
1227.072,667.2439,
1224.161,648.16841,
1221.251,657.15666,
1218.340,625.22253,
1215.430,614.30857,
1212.519,624.21656,
1209.608,615.45123,
1206.698,615.20266,
1203.787,670.2437,
1200.877,626.94874,
1197.966,650.32688,
1195.055,679.6572,
1192.145,679.99194,
1189.234,685.63672,
1186.324,726.04896,
1183.413,748.99238,
1180.503,747.93139,
1177.592,748.46935,
1174.681,700.6952,
1171.771,737.01514,
1168.860,759.34237,
1165.950,709.89747,
1163.039,681.43674,
1160.129,700.45362,
1157.218,721.38442,
1154.307,720.78975,
1151.397,707.98303,
1148.486,686.35301,
1145.576,670.65867,
1142.665,720.38179,
1139.754,695.20937,
1136.844,693.40212,
1133.933,698.43253,
1131.023,714.19078,
1128.112,709.85999,
1125.202,679.81399,
1122.291,695.62264,
1119.380,689.71653,
1116.470,711.77974,
1113.559,701.35477,
1110.649,716.49052,
1107.738,732.394,
1104.828,739.9966,
1101.917,746.16283,
1099.006,742.33531,
1096.096,698.20898,
1093.185,758.79116,
1090.275,735.98481,
1087.364,708.23019,
1084.453,720.43611,
1081.543,724.79159,
1078.632,712.88752,
1075.722,722.31194,
1072.811,722.05847,
1069.901,729.91782,
1066.990,740.19998,
1064.079,741.81949,
1061.169,754.75523,
1058.258,775.24017,
1055.348,785.56042,
1052.437,780.63185,
1049.527,791.3993,
1046.616,788.79281,
1043.705,800.83224,
1040.795,803.22299,
1037.884,812.61475,
1034.974,819.1482,
1032.063,813.97691,
1029.153,815.91545,
1026.242,819.37527,
1023.331,833.66576,
1020.421,826.74058,
1017.510,821.93972,
1014.600,828.26688,
1011.689,844.62676,
1008.778,862.06017,
1005.868,860.00194,
1002.957,915.92497,
1000.047,931.052,
997.136,967.56489,
994.226,969.6388,
991.315,946.76237,
988.404,953.09526,
985.494,935.4041,
982.583,931.12132,
979.673,922.45189,
976.762,918.3258,
973.852,924.57216,
970.941,934.9819,
968.030,940.45379,
965.120,951.37828,
962.209,922.39185,
959.299,923.16599,
956.388,929.41975,
953.477,922.63534,
950.567,920.26406,
947.656,951.82884,
944.746,939.0855,
941.835,945.78832,
938.925,961.31905,
936.014,940.67957,
933.103,923.03355,
930.193,936.10535,
927.282,918.63749,
924.372,921.17431,
921.461,914.8724,
918.551,913.08093,
915.640,900.32674,
912.729,893.77096,
909.819,917.38289,
906.908,863.46769,
903.998,888.33775,
901.087,913.32217,
898.176,919.68244,
895.266,914.5478,
892.355,914.54178,
889.445,925.45225,
886.534,917.15128,
883.624,935.68496,
880.713,948.05178,
877.802,956.75305,
874.892,969.60308,
871.981,973.29659,
869.071,922.33641,
866.160,932.12891,
863.250,947.31464,
860.339,943.83469,
857.428,930.7088,
854.518,948.23521,
851.607,939.08245,
848.697,922.36802,
845.786,901.48791,
842.875,902.83149,
839.965,929.67962,
837.054,930.7698,
834.144,954.80362,
831.233,960.16662,
828.323,952.09228,
825.412,949.93926,
822.501,957.54241,
819.591,924.48644,
816.680,931.51283,
813.770,912.19891,
810.859,893.18263,
807.949,885.77561,
805.038,884.80752,
802.127,870.81435,
799.217,885.15321,
796.306,884.25671,
793.396,894.68337,
790.485,912.81433,
787.574,891.43772,
784.664,889.7975,
781.753,914.99739,
778.843,894.66449,
775.932,886.11685,
773.022,938.80849,
770.111,908.5581,
767.200,898.12556,
764.290,902.43453,
761.379,898.04718,
758.469,891.24287,
755.558,919.89218,
752.648,899.52709,
749.737,875.26353,
746.826,857.50668,
743.916,838.331,
741.005,799.04563,
738.095,706.49168,
735.184,575.36997,
732.274,551.16538,
729.363,629.32295,
726.452,757.141,
723.542,843.74609,
720.631,895.13688,
717.721,909.5,
714.810,893.13079,
711.899,870.45051,
708.989,887.39593,
706.078,897.91694,
703.168,898.67834,
700.257,890.89885,
697.347,884.10842,
694.436,893.17267,
691.525,881.11559,
688.615,895.4806,
685.704,913.27048,
682.794,913.67032,
679.883,882.76152,
676.973,910.80949,
674.062,897.35754,
671.151,888.25332,
668.241,883.11431,
665.330,861.31517,
662.420,899.65429,
659.509,915.7541,
656.598,926.99125,
653.688,929.51889,
650.777,909.77002,
647.867,917.7333,
644.956,889.16165,
642.046,875.47518,
639.135,884.38648,
636.224,891.54775,
633.314,901.07501,
630.403,916.50663,
627.493,912.82554,
624.582,890.38114,
621.672,880.87721,
618.761,915.45721,
615.850,920.99012,
612.940,916.15847,
610.029,917.20979,
607.119,927.47499,
604.208,944.83031,
601.297,931.55929,
598.387,915.22622,
595.476,929.03103,
592.566,977.04219,
589.655,947.27449,
586.745,929.53778,
583.834,926.91248,
580.923,903.30571,
578.013,871.13161,
575.102,849.88106,
572.192,863.36621,
569.281,901.96921,
566.371,887.88197,
563.460,921.06794,
560.549,919.90708,
557.639,906.99132,
554.728,920.44172,
551.818,982.86699,
548.907,985.53056,
545.996,975.00089,
543.086,966.31251,
540.175,951.51824,
537.265,953.39712,
534.354,949.98478,
531.444,962.49814,
528.533,1004.8997,
525.622,982.39724,
522.712,981.14052,
519.801,993.81076,
516.891,1009.561,
513.980,1004.9152,
511.070,1007.3174,
508.159,1014.2308,
505.248,1022.5029,
502.338,1029.72,
499.427,1071.3989,
496.517,1077.4091,
493.606,1052.974,
490.695,1017.2073,
487.785,1051.0781,
484.874,1061.0236,
481.964,1063.5,
479.053,1058.7197,
476.143,1038.7527,
473.232,1074.1896,
470.321,1086.5537,
467.411,1072.3435,
464.500,1036.7715,
461.590,1047.4919,
458.679,1039.4941,
455.769,1028.2946,
452.858,1025.1702,
449.947,1041.2128,
447.037,1065.7366,
444.126,1071.7364,
441.216,1059.8229,
438.305,1067.4422,
435.395,1078.9902,
432.484,1071.9974,
429.573,1054.5,
426.663,1054.5,
423.752,1057.2897,
420.842,1054.3898,
417.931,1057.4723,
415.020,1085.5316,
412.110,1098.9374,
409.199,1108.879,
406.289,1114.254,
403.378,1113.4104,
400.468,1086.9505,
397.557,1105.7499,
394.646,1124.7664,
391.736,1104.3752,
388.825,1038.0029,
385.915,1009.9849,
383.004,1011.3518,
380.094,1034.8052,
377.183,1060.3894,
374.272,1081.0695,
371.362,1102.2128,
368.451,1127.0501,
365.541,1152.5683,
362.630,1160.5925,
359.719,1151.1411,
356.809,1128.6748,
353.898,1164.6171,
350.988,1173.9575,
348.077,1171.7575,
345.167,1167.3486,
342.256,1164.3604,
339.345,1170.4086,
336.435,1172.0585,
333.524,1161.0872,
330.614,1179.7161,
327.703,1173.6917,
324.793,1170.2337,
321.882,1192.4802,
318.971,1184.3023,
316.061,1171.7337,
313.150,1163.5786,
310.240,1170.2576,
307.329,1201.944,
304.418,1198.9976,
301.508,1169.8661,
298.597,1129.8836,
295.687,1089.929,
292.776,1101.6668,
289.866,1150.7516,
286.955,1189.904,
284.044,1236.6125,
281.134,1283.8281,
278.223,1325.6556,
275.313,1340.3927,
272.402,1360.3462,
269.492,1372.8169,
266.581,1376.7056,
263.670,1421.5516,
260.760,1421.9628,
257.849,1414.8627,
254.939,1427.3387,
252.028,1444.8723,
249.117,1461.0934,
246.207,1469.4694,
243.296,1457.7568,
240.386,1437.5632,
237.475,1430.9577,
234.565,1433.6241,
231.654,1415.3646,
228.743,1399.9926,
225.833,1401.2567,
222.922,1421.2238,
220.012,1372.4106,
217.101,1354.5371,
214.191,1353.3742,
211.280,1356.2841,
208.369,1356.5,
205.459,1346.1195,
202.548,1331.3774,
199.638,1336.457,
196.727,1364.5821,
193.816,1364.3315,
190.906,1318.9983,
187.995,1361.7157,
185.085,1363.26,
182.174,1357.3148,
179.264,1389.8392,
176.353,1358.2572,
173.442,1345.026,
170.532,1351.1235,
167.621,1304.9811,
164.711,1279.3608,
161.800,1250.2965,
158.890,1199.9155,
155.979,1192.0223,
153.068,1099.4957,
150.158,950.74298,
147.247,858.12714,
144.337,694.1867,
141.426,532.39995,
138.516,406.94399,
135.605,287.27362,
132.694,202.89952,
129.784,143.21105,
126.873,85.285534,
123.963,59.842317,
121.052,42.417769,
118.141,24.570219,
115.231,23.78943,
112.320,26.889087,
109.410,30.272803,
106.499,23.863406,
103.589,17.45771,
100.678,10.783783,
97.767,3.6744072,
94.857,6.2719562,
91.946,7.0968891,
89.036,6.6128979,
86.125,7.3221032,
83.215,9.6236814,
80.304,11.739433,
77.393,12.447603,
74.483,4.6383805,
71.572,2.3117606,
68.662,5.22293,
65.751,2.3971257,
62.840,0.53659603,
59.930,1.7474344,
57.019,10.208418,
54.109,7.9170349,
51.198,4.2935629,
48.288,1.5056624,
45.377,2.2090405,
42.466,0.85112264,
39.556,-1.7302372,
36.645,-3.1346176,
33.735,1.6924847,
30.824,2.9658084,
27.914,-8.2529955,
25.003,0.46219961,
22.092,4.8854772,
19.182,1.4771171,
16.271,0.777627,
13.361,8.5077016,
10.450,10.605958,
7.539,-41.069379,
4.629,-86.512148,
1.718,-184.28001,
-1.192,-405.27483,
-4.103,-316.82746,
-7.013,-167.92659,
-9.924,0.5,
