,PL77B2~1,
Wavenumbers [1/cm],Intensity,
3014.167,-1.625,
3011.256,1.375,
3008.346,109.25894,
3005.435,114.60822,
3002.525,137.47008,
2999.614,122.84126,
2996.704,137.64923,
2993.793,149.375,
2990.882,153.32918,
2987.972,156.30437,
2985.061,146.8085,
2982.151,157.65904,
2979.240,154.00808,
2976.329,167.39684,
2973.419,176.6207,
2970.508,191.67502,
2967.598,181.08825,
2964.687,174.41984,
2961.777,196.0248,
2958.866,195.37203,
2955.955,207.72233,
2953.045,218.84257,
2950.134,227.80066,
2947.224,212.22906,
2944.313,238.22899,
2941.403,240.45848,
2938.492,248.51321,
2935.581,257.64369,
2932.671,266.13465,
2929.760,270.79039,
2926.850,276.375,
2923.939,267.73481,
2921.028,283.01632,
2918.118,278.39389,
2915.207,259.36855,
2912.297,269.30307,
2909.386,262.01003,
2906.476,269.11939,
2903.565,260.95574,
2900.654,247.14044,
2897.744,269.26185,
2894.833,262.43682,
2891.923,241.04799,
2889.012,238.95304,
2886.102,240.66961,
2883.191,212.39199,
2880.280,196.75776,
2877.370,45.503286,
2874.459,-29.348036,
2871.549,70.481019,
2868.638,175.60794,
2865.727,217.74422,
2862.817,240.77605,
2859.906,251.69124,
2856.996,258.32066,
2854.085,288.86033,
2851.175,270.85091,
2848.264,270.65933,
2845.353,260.76321,
2842.443,277.9757,
2839.532,261.07659,
2836.622,260.89193,
2833.711,269.9009,
2830.801,265.87868,
2827.890,271.6652,
2824.979,272.72094,
2822.069,267.4546,
2819.158,274.375,
2816.248,264.66263,
2813.337,278.01403,
2810.427,268.33092,
2807.516,278.63391,
2804.605,271.80529,
2801.695,264.36182,
2798.784,271.04438,
2795.874,266.93963,
2792.963,269.51777,
2790.052,280.37221,
2787.142,269.83565,
2784.231,267.76322,
2781.321,263.0036,
2778.410,274.0349,
2775.500,274.07741,
2772.589,277.1831,
2769.678,286.15997,
2766.768,293.43326,
2763.857,291.16498,
2760.947,299.90337,
2758.036,307.76356,
2755.126,293.74894,
2752.215,299.07938,
2749.304,288.2473,
2746.394,297.375,
2743.483,301.77498,
2740.573,313.35955,
2737.662,291.71523,
2734.751,296.93324,
2731.841,292.02335,
2728.930,280.21384,
2726.020,302.59954,
2723.109,299.94208,
2720.199,311.06261,
2717.288,304.07574,
2714.377,320.95402,
2711.467,322.03104,
2708.556,300.55605,
2705.646,317.88211,
2702.735,315.21263,
2699.825,314.48407,
2696.914,332.85185,
2694.003,338.47582,
2691.093,334.1608,
2688.182,333.32018,
2685.272,349.02935,
2682.361,311.16321,
2679.450,322.28443,
2676.540,327.17176,
2673.629,315.71582,
2670.719,313.65966,
2667.808,320.08319,
2664.898,325.72519,
2661.987,335.94135,
2659.076,340.83188,
2656.166,348.163,
2653.255,333.33249,
2650.345,355.43126,
2647.434,344.26039,
2644.524,335.07765,
2641.613,346.23232,
2638.702,351.34344,
2635.792,356.28227,
2632.881,345.48814,
2629.971,343.375,
2627.060,367.87469,
2624.149,366.70001,
2621.239,348.09684,
2618.328,337.41739,
2615.418,345.67501,
2612.507,357.8928,
2609.597,351.83408,
2606.686,366.20632,
2603.775,355.61309,
2600.865,363.90064,
2597.954,383.08752,
2595.044,369.11547,
2592.133,364.60442,
2589.223,391.09817,
2586.312,386.61625,
2583.401,371.51735,
2580.491,385.53843,
2577.580,386.35189,
2574.670,372.92847,
2571.759,392.54194,
2568.848,383.50195,
2565.938,403.13699,
2563.027,391.00909,
2560.117,375.12263,
2557.206,384.45618,
2554.296,383.34525,
2551.385,389.76311,
2548.474,410.00474,
2545.564,403.6599,
2542.653,420.30117,
2539.743,410.53519,
2536.832,403.41612,
2533.922,414.48538,
2531.011,420.82505,
2528.100,413.51087,
2525.190,418.65246,
2522.279,421.99982,
2519.369,409.24324,
2516.458,397.375,
2513.548,414.36567,
2510.637,405.28096,
2507.726,427.81736,
2504.816,412.24986,
2501.905,424.36037,
2498.995,418.91247,
2496.084,427.68162,
2493.173,424.50646,
2490.263,440.52079,
2487.352,431.375,
2484.442,434.50775,
2481.531,429.21024,
2478.621,431.19496,
2475.710,476.04529,
2472.799,430.90866,
2469.889,434.52461,
2466.978,455.03471,
2464.068,450.7136,
2461.157,458.02753,
2458.247,454.0809,
2455.336,465.60789,
2452.425,450.76177,
2449.515,465.55378,
2446.604,453.83577,
2443.694,462.97942,
2440.783,463.23311,
2437.872,458.17723,
2434.962,475.17224,
2432.051,467.76397,
2429.141,460.98691,
2426.230,467.59271,
2423.320,476.58939,
2420.409,475.77878,
2417.498,492.14468,
2414.588,476.48537,
2411.677,462.19974,
2408.767,485.38681,
2405.856,491.65832,
2402.946,472.78519,
2400.035,495.64028,
2397.124,483.83488,
2394.214,491.4822,
2391.303,480.15955,
2388.393,494.54481,
2385.482,481.25624,
2382.571,433.66564,
2379.661,459.67716,
2376.750,481.16314,
2373.840,484.59063,
2370.929,503.16924,
2368.019,528.09854,
2365.108,522.28076,
2362.197,520.63795,
2359.287,528.93824,
2356.376,500.43312,
2353.466,528.64904,
2350.555,513.72016,
2347.645,522.74321,
2344.734,520.4349,
2341.823,541.99359,
2338.913,530.64513,
2336.002,520.7912,
2333.092,538.44388,
2330.181,541.62053,
2327.270,531.92505,
2324.360,536.00467,
2321.449,557.11309,
2318.539,562.58909,
2315.628,564.70314,
2312.718,549.89262,
2309.807,561.17006,
2306.896,557.61913,
2303.986,558.85555,
2301.075,558.43885,
2298.165,573.73111,
2295.254,562.71969,
2292.344,562.21312,
2289.433,566.6259,
2286.522,555.64277,
2283.612,577.79594,
2280.701,611.07001,
2277.791,595.0544,
2274.880,586.30502,
2271.969,583.53549,
2269.059,599.3396,
2266.148,584.84078,
2263.238,587.96959,
2260.327,598.71987,
2257.417,601.95167,
2254.506,614.36653,
2251.595,613.68424,
2248.685,620.15375,
2245.774,614.05658,
2242.864,636.20794,
2239.953,620.28533,
2237.043,615.9718,
2234.132,593.91271,
2231.221,627.30027,
2228.311,633.06702,
2225.400,639.90976,
2222.490,650.39111,
2219.579,630.41878,
2216.669,665.844,
2213.758,646.28347,
2210.847,645.27171,
2207.937,658.9271,
2205.026,672.26334,
2202.116,689.73487,
2199.205,698.02488,
2196.294,698.12701,
2193.384,720.53204,
2190.473,710.64143,
2187.563,750.36533,
2184.652,749.5799,
2181.742,757.55696,
2178.831,770.48788,
2175.920,779.87773,
2173.010,784.62557,
2170.099,769.17708,
2167.189,784.64049,
2164.278,818.44033,
2161.368,806.80292,
2158.457,825.0349,
2155.546,837.54136,
2152.636,838.19416,
2149.725,880.48235,
2146.815,883.57521,
2143.904,882.87314,
2140.993,882.33262,
2138.083,892.09234,
2135.172,908.19027,
2132.262,894.69982,
2129.351,907.35796,
2126.441,901.58854,
2123.530,884.64438,
2120.619,902.87065,
2117.709,863.10125,
2114.798,835.55563,
2111.888,800.00068,
2108.977,789.82533,
2106.067,759.76476,
2103.156,753.77418,
2100.245,741.36873,
2097.335,733.54254,
2094.424,750.57175,
2091.514,750.44217,
2088.603,741.00174,
2085.692,733.05533,
2082.782,740.68417,
2079.871,745.375,
2076.961,752.85838,
2074.050,789.51439,
2071.140,733.69681,
2068.229,738.91275,
2065.318,752.96801,
2062.408,750.03386,
2059.497,748.99406,
2056.587,765.30507,
2053.676,755.49252,
2050.766,738.52971,
2047.855,711.94458,
2044.944,730.84295,
2042.034,726.90101,
2039.123,735.57702,
2036.213,741.22383,
2033.302,744.02686,
2030.391,746.56184,
2027.481,739.86279,
2024.570,766.50288,
2021.660,733.74017,
2018.749,770.96935,
2015.839,736.18209,
2012.928,743.21393,
2010.017,754.24471,
2007.107,753.0703,
2004.196,735.32737,
2001.286,744.25131,
1998.375,749.98327,
1995.465,731.28304,
1992.554,728.12793,
1989.643,741.89111,
1986.733,716.41184,
1983.822,704.17116,
1980.912,728.36469,
1978.001,718.90006,
1975.090,722.62384,
1972.180,702.89229,
1969.269,712.56469,
1966.359,720.375,
1963.448,723.29706,
1960.538,727.62104,
1957.627,713.21709,
1954.716,691.94954,
1951.806,711.48079,
1948.895,695.90534,
1945.985,708.62173,
1943.074,698.86607,
1940.164,659.55788,
1937.253,665.33606,
1934.342,656.40067,
1931.432,669.76617,
1928.521,681.27137,
1925.611,661.03108,
1922.700,684.82389,
1919.790,696.82005,
1916.879,687.14224,
1913.968,661.40574,
1911.058,709.87348,
1908.147,659.84361,
1905.237,658.36031,
1902.326,661.36464,
1899.415,640.48597,
1896.505,627.94128,
1893.594,637.64332,
1890.684,647.92401,
1887.773,667.27972,
1884.863,679.09937,
1881.952,711.85467,
1879.041,686.28101,
1876.131,697.80636,
1873.220,673.73771,
1870.310,711.14623,
1867.399,691.74285,
1864.489,668.46542,
1861.578,695.375,
1858.667,691.26724,
1855.757,673.15423,
1852.846,692.60578,
1849.936,685.30492,
1847.025,680.6159,
1844.114,693.59866,
1841.204,740.90297,
1838.293,716.39662,
1835.383,714.30499,
1832.472,726.93326,
1829.562,734.48542,
1826.651,755.83699,
1823.740,739.624,
1820.830,738.0916,
1817.919,716.75808,
1815.009,713.9437,
1812.098,735.91829,
1809.188,769.32842,
1806.277,736.17175,
1803.366,736.04228,
1800.456,718.73816,
1797.545,756.79357,
1794.635,733.56803,
1791.724,754.64676,
1788.813,783.97191,
1785.903,765.22971,
1782.992,731.08289,
1780.082,694.37021,
1777.171,616.36428,
1774.261,596.0854,
1771.350,659.26476,
1768.439,742.95501,
1765.529,798.64816,
1762.618,809.58814,
1759.708,806.62488,
1756.797,805.05682,
1753.887,809.99016,
1750.976,830.96138,
1748.065,836.31509,
1745.155,838.95558,
1742.244,837.75363,
1739.334,811.77971,
1736.423,829.63664,
1733.512,869.75313,
1730.602,851.95036,
1727.691,865.40482,
1724.781,863.72266,
1721.870,880.6894,
1718.960,906.75304,
1716.049,877.81601,
1713.138,896.16988,
1710.228,882.09876,
1707.317,870.52929,
1704.407,909.80287,
1701.496,919.84429,
1698.586,929.61484,
1695.675,914.46795,
1692.764,923.78894,
1689.854,930.11516,
1686.943,963.22833,
1684.033,969.25082,
1681.122,993.95019,
1678.211,961.68907,
1675.301,1057.079,
1672.390,1001.4109,
1669.480,1013.7039,
1666.569,1054.7178,
1663.659,1081.767,
1660.748,1105.5678,
1657.837,1116.556,
1654.927,1169.9842,
1652.016,1195.375,
1649.106,1196.5991,
1646.195,1245.2791,
1643.285,1243.0156,
1640.374,1312.7687,
1637.463,1287.2033,
1634.553,1441.8479,
1631.642,1474.0265,
1628.732,1534.092,
1625.821,1654.3979,
1622.911,1689.1778,
1620.000,1840.4474,
1617.089,1922.7432,
1614.179,2077.9192,
1611.268,2184.4341,
1608.358,2385.6826,
1605.447,2430.261,
1602.536,2470.5824,
1599.626,2464.1757,
1596.715,2486.065,
1593.805,2485.692,
1590.894,2406.9954,
1587.984,2418.8934,
1585.073,2354.3097,
1582.162,2318.1633,
1579.252,2247.9109,
1576.341,2210.1442,
1573.431,2160.5172,
1570.520,2110.9205,
1567.610,2088.9435,
1564.699,2044.7733,
1561.788,1984.305,
1558.878,1981.0786,
1555.967,1901.1673,
1553.057,1867.8576,
1550.146,1815.9933,
1547.235,1772.8814,
1544.325,1761.0231,
1541.414,1772.6568,
1538.504,1772.9885,
1535.593,1754.5059,
1532.683,1753.0502,
1529.772,1772.0373,
1526.861,1782.5238,
1523.951,1767.1387,
1521.040,1767.1433,
1518.130,1780.2952,
1515.219,1782.1758,
1512.309,1750.8975,
1509.398,1745.3084,
1506.487,1750.383,
1503.577,1743.5793,
1500.666,1759.1731,
1497.756,1779.7731,
1494.845,1758.574,
1491.934,1715.4443,
1489.024,1736.6191,
1486.113,1716.9763,
1483.203,1662.9731,
1480.292,1621.586,
1477.382,1607.2925,
1474.471,1560.0996,
1471.560,1537.667,
1468.650,1552.1401,
1465.739,1549.4867,
1462.829,1585.1522,
1459.918,1639.8946,
1457.008,1649.1902,
1454.097,1634.1399,
1451.186,1639.1081,
1448.276,1625.5472,
1445.365,1565.9437,
1442.455,1530.0952,
1439.544,1515.3178,
1436.633,1499.9678,
1433.723,1525.5026,
1430.812,1513.9077,
1427.902,1446.074,
1424.991,1475.4547,
1422.081,1423.1613,
1419.170,1420.1031,
1416.259,1460.0681,
1413.349,1434.6339,
1410.438,1416.3772,
1407.528,1385.0504,
1404.617,1394.0344,
1401.707,1337.7133,
1398.796,1258.2142,
1395.885,1246.0955,
1392.975,1222.6863,
1390.064,1195.097,
1387.154,1241.7573,
1384.243,1193.3047,
1381.332,1162.5843,
1378.422,1191.6597,
1375.511,1255.3608,
1372.601,1279.4143,
1369.690,1308.8061,
1366.780,1319.7113,
1363.869,1364.9636,
1360.958,1396.56,
1358.048,1414.4613,
1355.137,1442.4024,
1352.227,1486.5386,
1349.316,1554.4802,
1346.406,1624.2737,
1343.495,1628.1851,
1340.584,1592.981,
1337.674,1666.2662,
1334.763,1644.9268,
1331.853,1764.5396,
1328.942,1742.6911,
1326.032,1744.2687,
1323.121,1756.4895,
1320.210,1773.6934,
1317.300,1793.3601,
1314.389,1887.6822,
1311.479,1961.3848,
1308.568,1969.257,
1305.657,1999.656,
1302.747,2022.8181,
1299.836,2116.1662,
1296.926,2155.1607,
1294.015,2258.1249,
1291.105,2262.375,
1288.194,2311.8971,
1285.283,2370.1992,
1282.373,2392.1719,
1279.462,2407.5512,
1276.552,2429.0601,
1273.641,2415.9414,
1270.731,2394.9571,
1267.820,2430.872,
1264.909,2382.76,
1261.999,2406.3431,
1259.088,2378.0673,
1256.178,2397.7864,
1253.267,2329.2586,
1250.356,2291.7982,
1247.446,2265.5997,
1244.535,2239.4911,
1241.625,2203.364,
1238.714,2163.4591,
1235.804,2146.2245,
1232.893,2139.7371,
1229.982,2195.8299,
1227.072,2120.689,
1224.161,2120.418,
1221.251,2069.2594,
1218.340,2007.9716,
1215.430,1987.1277,
1212.519,1968.5481,
1209.608,1940.1856,
1206.698,1925.4386,
1203.787,1901.7117,
1200.877,1916.9939,
1197.966,1959.2544,
1195.055,2007.4504,
1192.145,2092.012,
1189.234,2184.2006,
1186.324,2266.7431,
1183.413,2314.2075,
1180.503,2336.1672,
1177.592,2337.8594,
1174.681,2269.1935,
1171.771,2240.3338,
1168.860,2238.5476,
1165.950,2196.4479,
1163.039,2152.8517,
1160.129,2144.8634,
1157.218,2182.5458,
1154.307,2249.1701,
1151.397,2304.2425,
1148.486,2321.2165,
1145.576,2368.6767,
1142.665,2306.5228,
1139.754,2302.1886,
1136.844,2270.8614,
1133.933,2244.4719,
1131.023,2190.0538,
1128.112,2155.4441,
1125.202,2187.7566,
1122.291,2196.7456,
1119.380,2185.8254,
1116.470,2231.7169,
1113.559,2159.2768,
1110.649,2122.6232,
1107.738,2131.4495,
1104.828,2132.892,
1101.917,2106.7948,
1099.006,2089.0038,
1096.096,2102.0738,
1093.185,2113.4878,
1090.275,2131.3697,
1087.364,2112.7329,
1084.453,2141.7475,
1081.543,2163.6106,
1078.632,2148.6143,
1075.722,2146.581,
1072.811,2171.5134,
1069.901,2145.3156,
1066.990,2145.8,
1064.079,2170.8735,
1061.169,2186.7934,
1058.258,2181.4818,
1055.348,2174.6663,
1052.437,2182.6193,
1049.527,2159.2813,
1046.616,2182.7397,
1043.705,2175.3551,
1040.795,2157.0509,
1037.884,2165.0643,
1034.974,2175.7887,
1032.063,2172.8132,
1029.153,2190.8823,
1026.242,2170.1234,
1023.331,2177.7078,
1020.421,2241.417,
1017.510,2285.1833,
1014.600,2319.9444,
1011.689,2334.5513,
1008.778,2303.0928,
1005.868,2336.2514,
1002.957,2322.4858,
1000.047,2401.911,
997.136,2441.7722,
994.226,2458.1902,
991.315,2459.4146,
988.404,2425.7821,
985.494,2379.8598,
982.583,2312.1918,
979.673,2301.6434,
976.762,2298.4395,
973.852,2293.7229,
970.941,2297.1918,
968.030,2312.6235,
965.120,2308.443,
962.209,2324.6413,
959.299,2315.3348,
956.388,2317.0946,
953.477,2342.1043,
950.567,2372.4664,
947.656,2380.826,
944.746,2399.5163,
941.835,2401.1848,
938.925,2398.0847,
936.014,2368.5546,
933.103,2339.2564,
930.193,2330.3811,
927.282,2308.8168,
924.372,2280.0662,
921.461,2298.467,
918.551,2262.2241,
915.640,2227.8253,
912.729,2234.5725,
909.819,2265.0439,
906.908,2285.2621,
903.998,2319.7803,
901.087,2329.0115,
898.176,2307.9012,
895.266,2286.5968,
892.355,2293.2597,
889.445,2303.3309,
886.534,2305.0447,
883.624,2311.4305,
880.713,2316.9268,
877.802,2298.5315,
874.892,2221.3187,
871.981,2048.0151,
869.071,1863.3889,
866.160,1914.8601,
863.250,2073.4658,
860.339,2214.1608,
857.428,2267.6532,
854.518,2257.9678,
851.607,2174.7609,
848.697,2129.4232,
845.786,2110.7043,
842.875,2135.7371,
839.965,2215.8806,
837.054,2333.0448,
834.144,2392.715,
831.233,2423.7069,
828.323,2419.527,
825.412,2403.7652,
822.501,2397.992,
819.591,2384.7696,
816.680,2373.157,
813.770,2337.1704,
810.859,2299.3254,
807.949,2283.1628,
805.038,2293.6958,
802.127,2255.0088,
799.217,2254.3566,
796.306,2244.0236,
793.396,2256.3981,
790.485,2284.3211,
787.574,2263.6624,
784.664,2218.5563,
781.753,2259.3568,
778.843,2298.5676,
775.932,2311.9059,
773.022,2303.7123,
770.111,2286.5431,
767.200,2281.5684,
764.290,2280.9529,
761.379,2285.7075,
758.469,2291.3287,
755.558,2286.7672,
752.648,2266.4021,
749.737,2275.4308,
746.826,2283.3074,
743.916,2270.693,
741.005,2228.222,
738.095,2164.8956,
735.184,2103.7455,
732.274,2054.5024,
729.363,2052.5749,
726.452,2108.6074,
723.542,2165.265,
720.631,2232.5963,
717.721,2233.4711,
714.810,2248.3066,
711.899,2291.0483,
708.989,2272.489,
706.078,2285.9971,
703.168,2274.8017,
700.257,2255.4733,
697.347,2258.7645,
694.436,2320.7203,
691.525,2296.6062,
688.615,2324.7073,
685.704,2315.8832,
682.794,2295.4599,
679.883,2352.2761,
676.973,2372.3104,
674.062,2393.6032,
671.151,2373.5686,
668.241,2334.8985,
665.330,2331.8245,
662.420,2299.0765,
659.509,2286.0257,
656.598,2284.5387,
653.688,2300.2574,
650.777,2341.6738,
647.867,2291.5052,
644.956,2270.4686,
642.046,2216.6962,
639.135,2153.148,
636.224,2167.928,
633.314,2278.2855,
630.403,2299.2805,
627.493,2293.2228,
624.582,2295.083,
621.672,2311.7149,
618.761,2261.4591,
615.850,2298.8208,
612.940,2369.0147,
610.029,2422.6109,
607.119,2436.0346,
604.208,2427.4348,
601.297,2443.8142,
598.387,2468.1012,
595.476,2476.7808,
592.566,2470.4842,
589.655,2464.1919,
586.745,2481.7715,
583.834,2503.7637,
580.923,2487.7683,
578.013,2552.9013,
575.102,2518.7521,
572.192,2479.3031,
569.281,2477.375,
566.371,2477.375,
563.460,2473.8477,
560.549,2493.328,
557.639,2530.4145,
554.728,2571.917,
551.818,2580.5005,
548.907,2573.2338,
545.996,2558.4328,
543.086,2541.6908,
540.175,2529.2325,
537.265,2558.0705,
534.354,2539.7753,
531.444,2511.4896,
528.533,2515.4786,
525.622,2530.9976,
522.712,2518.5994,
519.801,2487.7535,
516.891,2459.3832,
513.980,2484.1606,
511.070,2477.9228,
508.159,2465.7788,
505.248,2472.6486,
502.338,2520.4713,
499.427,2489.598,
496.517,2546.9911,
493.606,2574.83,
490.695,2527.0585,
487.785,2503.195,
484.874,2533.6249,
481.964,2532.8569,
479.053,2505.1911,
476.143,2504.4232,
473.232,2494.3033,
470.321,2494.2676,
467.411,2505.7195,
464.500,2527.278,
461.590,2523.4493,
458.679,2568.5997,
455.769,2598.8135,
452.858,2583.568,
449.947,2595.027,
447.037,2554.295,
444.126,2545.5992,
441.216,2574.5386,
438.305,2552.4426,
435.395,2569.0441,
432.484,2573.5405,
429.573,2555.0799,
426.663,2510.9917,
423.752,2321.1641,
420.842,2142.1875,
417.931,1982.9276,
415.020,1833.5311,
412.110,2170.0383,
409.199,2461.634,
406.289,2631.9313,
403.378,2620.9959,
400.468,2509.1087,
397.557,2511.9362,
394.646,2574.5015,
391.736,2644.4816,
388.825,2616.5751,
385.915,2629.1306,
383.004,2622.8183,
380.094,2564.5229,
377.183,2626.226,
374.272,2683.5408,
371.362,2724.4389,
368.451,2740.0984,
365.541,2719.0834,
362.630,2709.5513,
359.719,2713.1823,
356.809,2727.2002,
353.898,2691.2579,
350.988,2712.8392,
348.077,2730.3723,
345.167,2708.4885,
342.256,2710.7297,
339.345,2720.9408,
336.435,2727.1543,
333.524,2722.4554,
330.614,2756.7326,
327.703,2778.6699,
324.793,2800.9756,
321.882,2834.4435,
318.971,2862.6943,
316.061,2905.5804,
313.150,2962.3154,
310.240,3032.8164,
307.329,3063.9605,
304.418,3105.4679,
301.508,3159.0981,
298.597,3225.7356,
295.687,3235.4384,
292.776,3274.0419,
289.866,3360.4054,
286.955,3526.6186,
284.044,3668.0199,
281.134,3813.3949,
278.223,3957.5243,
275.313,4047.4206,
272.402,4120.9799,
269.492,4173.9997,
266.581,4197.6995,
263.670,4118.3001,
260.760,4236.9409,
257.849,4392.8076,
254.939,4468.3975,
252.028,4411.4674,
249.117,4396.6842,
246.207,4415.2244,
243.296,4453.2903,
240.386,4463.2519,
237.475,4432.9507,
234.565,4368.6768,
231.654,4300.7512,
228.743,4255.8805,
225.833,4194.6532,
222.922,4102.468,
220.012,4018.6842,
217.101,3955.062,
214.191,3894.6447,
211.280,3818.9886,
208.369,3740.7112,
205.459,3680.2222,
202.548,3638.3638,
199.638,3615.1431,
196.727,3617.2896,
193.816,3609.431,
190.906,3574.8801,
187.995,3446.7278,
185.085,3442.0949,
182.174,3474.0343,
179.264,3428.5001,
176.353,3437.4721,
173.442,3450.0883,
170.532,3452.3265,
167.621,3400.4162,
164.711,3326.4603,
161.800,3214.1288,
158.890,3043.5533,
155.979,2825.1685,
153.068,2594.3776,
150.158,2338.5993,
147.247,1999.0078,
144.337,1705.8957,
141.426,1382.4783,
138.516,988.90499,
135.605,721.02042,
132.694,506.4212,
129.784,339.10025,
126.873,219.67357,
123.963,146.43497,
121.052,95.210539,
118.141,59.515439,
115.231,62.927852,
112.320,55.902281,
109.410,44.238645,
106.499,43.52649,
103.589,33.850674,
100.678,25.831757,
97.767,24.409881,
94.857,28.532934,
91.946,26.747002,
89.036,21.487898,
86.125,22.197103,
83.215,20.782239,
80.304,16.980673,
77.393,9.8989738,
74.483,11.340405,
71.572,11.650296,
68.662,10.513535,
65.751,11.926437,
62.840,11.893298,
59.930,10.438569,
57.019,6.9131591,
54.109,5.7778392,
51.198,7.1846557,
48.288,11.341025,
45.377,7.1207569,
42.466,5.375,
39.556,5.1447628,
36.645,3.7403824,
33.735,5.4519939,
30.824,6.7123391,
27.914,4.6088133,
25.003,1.2618126,
22.092,-1.9166182,
19.182,-4.4419371,
16.271,1.153984,
13.361,8.4324957,
10.450,-19.840599,
7.539,-224.447,
4.629,-649.89531,
1.718,-1074.7439,
-1.192,-1322.9273,
-4.103,-999.74602,
-7.013,-537.43984,
-9.924,-3.625,
