,PL88AE~1,
Raman shift [1/cm],Intensity,
3014.167,1.375,
3011.256,-1.625,
3008.346,84.682148,
3005.435,104.41387,
3002.525,107.16751,
2999.614,103.51397,
2996.704,117.18943,
2993.793,116.48963,
2990.882,125.50476,
2987.972,126.375,
2985.061,125.93165,
2982.151,136.82375,
2979.240,134.80655,
2976.329,151.88865,
2973.419,140.00581,
2970.508,143.92497,
2967.598,140.28303,
2964.687,159.80774,
2961.777,162.28099,
2958.866,159.71378,
2955.955,169.82852,
2953.045,181.70608,
2950.134,170.22632,
2947.224,178.51734,
2944.313,180.67842,
2941.403,186.93476,
2938.492,191.28017,
2935.581,182.38611,
2932.671,195.61968,
2929.760,205.47498,
2926.850,182.00207,
2923.939,215.05726,
2921.028,212.76917,
2918.118,194.21884,
2915.207,221.84331,
2912.297,212.40462,
2909.386,212.39689,
2906.476,218.15029,
2903.565,215.68092,
2900.654,227.43364,
2897.744,198.6013,
2894.833,213.90082,
2891.923,197.40059,
2889.012,202.2883,
2886.102,216.99932,
2883.191,182.40993,
2880.280,200.66686,
2877.370,188.66571,
2874.459,168.12985,
2871.549,205.08571,
2868.638,195.37296,
2865.727,215.61726,
2862.817,226.08891,
2859.906,234.40064,
2856.996,245.36141,
2854.085,245.73424,
2851.175,237.42318,
2848.264,237.16417,
2845.353,210.61224,
2842.443,226.16664,
2839.532,232.59889,
2836.622,239.43685,
2833.711,241.69368,
2830.801,227.58382,
2827.890,227.74912,
2824.979,230.43695,
2822.069,241.26128,
2819.158,240.11625,
2816.248,241.67421,
2813.337,228.64328,
2810.427,241.11743,
2807.516,247.15906,
2804.605,241.57933,
2801.695,238.98026,
2798.784,240.07931,
2795.874,228.65468,
2792.963,238.87511,
2790.052,234.3765,
2787.142,239.82231,
2784.231,237.63276,
2781.321,227.75216,
2778.410,239.59961,
2775.500,236.88707,
2772.589,247.83677,
2769.678,249.98252,
2766.768,252.43326,
2763.857,237.95689,
2760.947,252.81511,
2758.036,251.84639,
2755.126,241.6015,
2752.215,261.73851,
2749.304,242.77969,
2746.394,263.0464,
2743.483,255.475,
2740.573,270.56975,
2737.662,273.3543,
2734.751,257.14202,
2731.841,272.32189,
2728.930,249.49785,
2726.020,269.50289,
2723.109,269.07625,
2720.199,267.2188,
2717.288,266.98814,
2714.377,282.0832,
2711.467,279.96511,
2708.556,287.58763,
2705.646,288.14964,
2702.735,270.8879,
2699.825,286.30956,
2696.914,276.42226,
2694.003,287.34736,
2691.093,276.8034,
2688.182,277.72093,
2685.272,282.3309,
2682.361,285.88701,
2679.450,278.6219,
2676.540,278.43597,
2673.629,282.03867,
2670.719,284.01733,
2667.808,278.66681,
2664.898,292.29718,
2661.987,291.4751,
2659.076,284.90087,
2656.166,303.35774,
2653.255,294.18793,
2650.345,302.51112,
2647.434,291.14665,
2644.524,297.83063,
2641.613,299.48939,
2638.702,303.34344,
2635.792,303.375,
2632.881,300.48814,
2629.971,312.33482,
2627.060,304.70875,
2624.149,310.10311,
2621.239,327.88982,
2618.328,306.24784,
2615.418,305.69773,
2612.507,312.8572,
2609.597,306.20135,
2606.686,319.03764,
2603.775,318.01786,
2600.865,312.84936,
2597.954,329.56666,
2595.044,331.39271,
2592.133,320.03735,
2589.223,341.23081,
2586.312,347.56602,
2583.401,322.06844,
2580.491,332.6346,
2577.580,323.41131,
2574.670,344.82153,
2571.759,337.31935,
2568.848,336.49104,
2565.938,339.99393,
2563.027,347.32505,
2560.117,336.55258,
2557.206,355.55212,
2554.296,350.3155,
2551.385,351.32511,
2548.474,359.74526,
2545.564,351.56493,
2542.653,348.62667,
2539.743,360.97974,
2536.832,368.23295,
2533.922,374.07538,
2531.011,352.90021,
2528.100,352.77223,
2525.190,363.90902,
2522.279,369.39014,
2519.369,351.18621,
2516.458,360.37854,
2513.548,361.94776,
2510.637,359.17428,
2507.726,369.18912,
2504.816,371.12585,
2501.905,363.38963,
2498.995,343.44994,
2496.084,360.98824,
2493.173,365.13825,
2490.263,376.9479,
2487.352,373.1246,
2484.442,370.22296,
2481.531,380.00795,
2478.621,380.07167,
2475.710,395.51302,
2472.799,406.71588,
2469.889,390.73789,
2466.978,393.21007,
2464.068,392.375,
2461.157,402.52997,
2458.247,403.11024,
2455.336,403.31043,
2452.425,380.5212,
2449.515,408.1858,
2446.604,397.00856,
2443.694,410.23518,
2440.783,414.9009,
2437.872,405.92197,
2434.962,413.02017,
2432.051,405.05425,
2429.141,427.62782,
2426.230,409.8744,
2423.320,428.97556,
2420.409,411.80436,
2417.498,424.16995,
2414.588,434.36736,
2411.677,441.05228,
2408.767,437.1811,
2405.856,446.2155,
2402.946,441.05954,
2400.035,439.57688,
2397.124,446.4873,
2394.214,443.4822,
2391.303,432.15955,
2388.393,442.06573,
2385.482,457.84626,
2382.571,439.52672,
2379.661,449.84004,
2376.750,455.63856,
2373.840,446.53129,
2370.929,443.38583,
2368.019,461.98953,
2365.108,457.60798,
2362.197,453.97226,
2359.287,464.75328,
2356.376,447.41022,
2353.466,470.87681,
2350.555,459.78055,
2347.645,479.82269,
2344.734,489.1953,
2341.823,479.59058,
2338.913,483.17796,
2336.002,476.16201,
2333.092,475.858,
2330.181,478.20105,
2327.270,486.15498,
2324.360,479.89624,
2321.449,476.51447,
2318.539,483.75725,
2315.628,487.44175,
2312.718,473.70979,
2309.807,507.46222,
2306.896,488.9337,
2303.986,505.7191,
2301.075,500.84308,
2298.165,510.35592,
2295.254,500.63352,
2292.344,506.58663,
2289.433,506.74182,
2286.522,513.32145,
2283.612,532.07656,
2280.701,517.14186,
2277.791,521.77575,
2274.880,532.44498,
2271.969,535.21451,
2269.059,533.375,
2266.148,537.02275,
2263.238,529.37887,
2260.327,522.51268,
2257.417,512.55721,
2254.506,551.261,
2251.595,545.50949,
2248.685,542.80003,
2245.774,540.27608,
2242.864,522.31016,
2239.953,522.51291,
2237.043,543.90891,
2234.132,559.81142,
2231.221,563.87636,
2228.311,559.80671,
2225.400,571.74089,
2222.490,582.70395,
2219.579,577.42642,
2216.669,578.38931,
2213.758,568.19983,
2210.847,580.49589,
2207.937,593.00854,
2205.026,610.59774,
2202.116,597.16162,
2199.205,603.91218,
2196.294,619.92897,
2193.384,598.95496,
2190.473,622.55224,
2187.563,641.31216,
2184.652,629.27867,
2181.742,644.12621,
2178.831,674.41005,
2175.920,674.63183,
2173.010,674.90051,
2170.099,693.83979,
2167.189,721.6692,
2164.278,767.80415,
2161.368,811.08787,
2158.457,834.86785,
2155.546,846.99523,
2152.636,868.64626,
2149.725,893.01257,
2146.815,919.60751,
2143.904,981.67611,
2140.993,985.30621,
2138.083,999.31719,
2135.172,1008.9548,
2132.262,1015.022,
2129.351,1013.0473,
2126.441,974.03509,
2123.530,946.0944,
2120.619,920.27413,
2117.709,902.56381,
2114.798,855.67097,
2111.888,818.1005,
2108.977,788.9379,
2106.067,757.14042,
2103.156,729.25896,
2100.245,719.35367,
2097.335,685.01374,
2094.424,684.52915,
2091.514,683.86687,
2088.603,677.02013,
2085.692,681.41963,
2082.782,683.61594,
2079.871,689.48235,
2076.961,701.60007,
2074.050,663.29621,
2071.140,679.92684,
2068.229,667.47657,
2065.318,660.88176,
2062.408,663.98847,
2059.497,655.77381,
2056.587,654.66571,
2053.676,652.74177,
2050.766,654.22104,
2047.855,655.42873,
2044.944,689.37981,
2042.034,667.3691,
2039.123,641.77567,
2036.213,661.64172,
2033.302,657.17967,
2030.391,640.01905,
2027.481,641.1189,
2024.570,677.6169,
2021.660,647.68104,
2018.749,674.34926,
2015.839,649.98917,
2012.928,661.98406,
2010.017,663.80388,
2007.107,657.21238,
2004.196,661.44644,
2001.286,649.26902,
1998.375,630.32874,
1995.465,640.53393,
1992.554,668.91596,
1989.643,650.16997,
1986.733,643.10746,
1983.822,640.91414,
1980.912,652.73114,
1978.001,623.75717,
1975.090,611.28342,
1972.180,641.58246,
1969.269,630.28016,
1966.359,625.07769,
1963.448,632.41067,
1960.538,650.79368,
1957.627,643.6753,
1954.716,634.60481,
1951.806,623.16341,
1948.895,649.85082,
1945.985,602.86847,
1943.074,616.44886,
1940.164,623.09653,
1937.253,650.79245,
1934.342,642.8365,
1931.432,635.48856,
1928.521,611.29555,
1925.611,595.05037,
1922.700,618.70096,
1919.790,609.01102,
1916.879,629.63126,
1913.968,633.37254,
1911.058,619.64827,
1908.147,604.99102,
1905.237,574.38969,
1902.326,578.76905,
1899.415,615.3433,
1896.505,622.89914,
1893.594,621.56095,
1890.684,599.43392,
1887.773,589.26286,
1884.863,606.68252,
1881.952,623.74492,
1879.041,597.11539,
1876.131,606.92009,
1873.220,616.60511,
1870.310,647.07898,
1867.399,570.65449,
1864.489,618.80338,
1861.578,627.22681,
1858.667,609.45582,
1855.757,629.16856,
1852.846,637.12884,
1849.936,636.04968,
1847.025,631.19738,
1844.114,642.81267,
1841.204,644.70717,
1838.293,638.86918,
1835.383,645.1075,
1832.472,636.10717,
1829.562,636.04063,
1826.651,656.78566,
1823.740,655.63935,
1820.830,654.68998,
1817.919,621.98556,
1815.009,652.04929,
1812.098,659.27264,
1809.188,654.68509,
1806.277,670.99876,
1803.366,631.19018,
1800.456,678.27586,
1797.545,660.02036,
1794.635,669.85805,
1791.724,691.55949,
1788.813,683.57654,
1785.903,684.1541,
1782.992,678.42272,
1780.082,695.25354,
1777.171,679.70637,
1774.261,672.375,
1771.350,673.958,
1768.439,679.35414,
1765.529,687.46668,
1762.618,700.58814,
1759.708,713.462,
1756.797,727.5947,
1753.887,736.375,
1750.976,729.29909,
1748.065,726.21832,
1745.155,720.98795,
1742.244,738.56337,
1739.334,726.77971,
1736.423,703.65726,
1733.512,746.39953,
1730.602,795.0437,
1727.691,762.38601,
1724.781,721.84482,
1721.870,703.10827,
1718.960,713.53071,
1716.049,759.16271,
1713.138,771.64998,
1710.228,768.89381,
1707.317,750.68357,
1704.407,769.03814,
1701.496,730.35535,
1698.586,775.34617,
1695.675,755.04658,
1692.764,800.71109,
1689.854,812.94193,
1686.943,781.48795,
1684.033,767.69787,
1681.122,833.23651,
1678.211,831.40355,
1675.301,843.338,
1672.390,844.52454,
1669.480,894.24665,
1666.569,878.26074,
1663.659,869.40766,
1660.748,872.68616,
1657.837,940.44662,
1654.927,986.85211,
1652.016,924.03107,
1649.106,950.61981,
1646.195,961.07032,
1643.285,988.85091,
1640.374,966.20775,
1637.463,959.88822,
1634.553,1042.6853,
1631.642,1063.3533,
1628.732,1061.8194,
1625.821,1136.3999,
1622.911,1174.1609,
1620.000,1261.2663,
1617.089,1291.778,
1614.179,1379.8369,
1611.268,1449.7725,
1608.358,1523.8633,
1605.447,1641.4616,
1602.536,1629.7373,
1599.626,1683.571,
1596.715,1656.609,
1593.805,1653.375,
1590.894,1666.5851,
1587.984,1628.5348,
1585.073,1639.3913,
1582.162,1622.3377,
1579.252,1583.1881,
1576.341,1574.5739,
1573.431,1549.3134,
1570.520,1532.4381,
1567.610,1502.5511,
1564.699,1467.999,
1561.788,1460.4877,
1558.878,1436.1128,
1555.967,1443.5343,
1553.057,1372.3586,
1550.146,1343.5822,
1547.235,1375.0364,
1544.325,1311.3316,
1541.414,1283.7784,
1538.504,1337.0651,
1535.593,1321.9349,
1532.683,1284.0502,
1529.772,1260.3442,
1526.861,1222.5703,
1523.951,1217.2751,
1521.040,1197.3573,
1518.130,1182.0342,
1515.219,1185.7363,
1512.309,1154.2489,
1509.398,1193.5823,
1506.487,1184.2805,
1503.577,1182.6438,
1500.666,1150.9419,
1497.756,1160.7052,
1494.845,1129.6957,
1491.934,1161.1608,
1489.024,1095.7113,
1486.113,1090.5934,
1483.203,1109.0265,
1480.292,1057.9188,
1477.382,1051.608,
1474.471,1065.4204,
1471.560,1052.6847,
1468.650,1039.5423,
1465.739,1035.094,
1462.829,994.38823,
1459.918,996.10453,
1457.008,1029.0213,
1454.097,1032.3669,
1451.186,1004.9978,
1448.276,981.90954,
1445.365,998.44767,
1442.455,995.88254,
1439.544,972.03358,
1436.633,1037.092,
1433.723,970.26245,
1430.812,942.18771,
1427.902,952.7809,
1424.991,969.84062,
1422.081,973.12743,
1419.170,967.32658,
1416.259,914.53096,
1413.349,958.26284,
1410.438,946.98425,
1407.528,870.64457,
1404.617,870.01557,
1401.707,903.38399,
1398.796,901.46244,
1395.885,891.61517,
1392.975,890.54155,
1390.064,875.9571,
1387.154,853.375,
1384.243,835.95797,
1381.332,757.02295,
1378.422,799.44703,
1375.511,897.80903,
1372.601,968.49278,
1369.690,1062.6689,
1366.780,1062.3263,
1363.869,1070.7251,
1360.958,1105.7449,
1358.048,1124.9349,
1355.137,1156.2876,
1352.227,1189.6953,
1349.316,1245.4233,
1346.406,1316.8205,
1343.495,1327.8176,
1340.584,1375.5894,
1337.674,1374.8791,
1334.763,1438.61,
1331.853,1471.0631,
1328.942,1484.8275,
1326.032,1453.7502,
1323.121,1496.0196,
1320.210,1502.7203,
1317.300,1533.9694,
1314.389,1552.6943,
1311.479,1564.2875,
1308.568,1601.0243,
1305.657,1622.8464,
1302.747,1619.8122,
1299.836,1644.4316,
1296.926,1724.1869,
1294.015,1741.654,
1291.105,1824.2654,
1288.194,1871.3184,
1285.283,1910.4471,
1282.373,1928.0703,
1279.462,1954.9824,
1276.552,2028.265,
1273.641,2077.848,
1270.731,2055.0228,
1267.820,2055.6072,
1264.909,2082.1555,
1261.999,2100.9103,
1259.088,2060.777,
1256.178,2056.6621,
1253.267,2064.047,
1250.356,1997.9724,
1247.446,1953.0537,
1244.535,1915.1385,
1241.625,1874.0713,
1238.714,1860.4886,
1235.804,1841.1616,
1232.893,1743.2564,
1229.982,1716.0002,
1227.072,1763.9817,
1224.161,1716.9448,
1221.251,1682.0617,
1218.340,1663.6578,
1215.430,1624.2418,
1212.519,1617.2019,
1209.608,1639.1856,
1206.698,1630.3111,
1203.787,1629.6313,
1200.877,1673.8178,
1197.966,1664.8262,
1195.055,1704.4777,
1192.145,1763.2177,
1189.234,1788.8093,
1186.324,1813.5588,
1183.413,1829.0501,
1180.503,1827.7123,
1177.592,1821.4052,
1174.681,1799.5154,
1171.771,1807.0247,
1168.860,1791.8422,
1165.950,1754.8983,
1163.039,1752.6606,
1160.129,1758.9141,
1157.218,1758.4906,
1154.307,1752.0358,
1151.397,1739.858,
1148.486,1718.5277,
1145.576,1704.1867,
1142.665,1745.9186,
1139.754,1681.0302,
1136.844,1679.3811,
1133.933,1683.6155,
1131.023,1675.7657,
1128.112,1649.4492,
1125.202,1623.1044,
1122.291,1650.7591,
1119.380,1674.86,
1116.470,1724.2816,
1113.559,1703.3113,
1110.649,1673.1102,
1107.738,1687.0943,
1104.828,1696.0598,
1101.917,1685.9552,
1099.006,1710.5811,
1096.096,1731.02,
1093.185,1741.5561,
1090.275,1726.9989,
1087.364,1702.1052,
1084.453,1706.4366,
1081.543,1718.6897,
1078.632,1723.1955,
1075.722,1728.8108,
1072.811,1726.8714,
1069.901,1733.8575,
1066.990,1751.35,
1064.079,1764.2217,
1061.169,1775.0026,
1058.258,1776.9871,
1055.348,1786.485,
1052.437,1825.6226,
1049.527,1852.9121,
1046.616,1866.8133,
1043.705,1866.0627,
1040.795,1859.6285,
1037.884,1879.6389,
1034.974,1905.3544,
1032.063,1899.1677,
1029.153,1864.7252,
1026.242,1875.9696,
1023.331,1904.7065,
1020.421,1920.8315,
1017.510,1919.212,
1014.600,1921.1419,
1011.689,1935.5063,
1008.778,1962.5963,
1005.868,2045.6993,
1002.957,2081.8342,
1000.047,2133.967,
997.136,2197.1864,
994.226,2230.2673,
991.315,2221.6324,
988.404,2188.5123,
985.494,2131.8955,
982.583,2110.4816,
979.673,2119.813,
976.762,2133.1815,
973.852,2140.259,
970.941,2140.7822,
968.030,2137.2709,
965.120,2125.3141,
962.209,2110.8209,
959.299,2106.9585,
956.388,2138.8529,
953.477,2161.4978,
950.567,2158.9435,
947.656,2161.1468,
944.746,2144.1557,
941.835,2179.8166,
938.925,2160.0788,
936.014,2149.4216,
933.103,2150.9033,
930.193,2139.9828,
927.282,2113.5043,
924.372,2097.4377,
921.461,2085.8018,
918.551,2053.9093,
915.640,2047.8231,
912.729,2063.8864,
909.819,2048.8148,
906.908,2006.6935,
903.998,2029.0313,
901.087,2055.7432,
898.176,2077.3961,
895.266,2093.4534,
892.355,2109.4009,
889.445,2136.2575,
886.534,2148.0632,
883.624,2174.597,
880.713,2193.0096,
877.802,2204.9333,
874.892,2204.8957,
871.981,2157.9804,
869.071,2141.2722,
866.160,2164.5935,
863.250,2180.0444,
860.339,2189.8185,
857.428,2192.9574,
854.518,2157.1584,
851.607,2149.6697,
848.697,2160.0679,
845.786,2135.7939,
842.875,2115.0164,
839.965,2128.4527,
837.054,2133.5704,
834.144,2150.9742,
831.233,2149.7087,
828.323,2142.4293,
825.412,2136.7311,
822.501,2131.3536,
819.591,2109.0408,
816.680,2103.5673,
813.770,2076.0619,
810.859,2040.9716,
807.949,2011.0359,
805.038,1997.1626,
802.127,2020.2102,
799.217,1981.3785,
796.306,1987.24,
793.396,1987.1916,
790.485,1982.959,
787.574,2054.9738,
784.664,2018.0688,
781.753,2035.5304,
778.843,2033.1626,
775.932,2035.35,
773.022,2071.473,
770.111,2059.2094,
767.200,2031.7291,
764.290,2021.6414,
761.379,2029.0401,
758.469,2044.0491,
755.558,2048.9649,
752.648,2001.7178,
749.737,1994.3334,
746.826,1968.8004,
743.916,1932.2321,
741.005,1902.2524,
738.095,1777.2234,
735.184,1592.9059,
732.274,1545.3591,
729.363,1639.0269,
726.452,1807.2319,
723.542,1911.6436,
720.631,1954.8374,
717.721,1983.5604,
714.810,2011.2215,
711.899,2032.5532,
708.989,2020.4493,
706.078,2012.362,
703.168,1981.2284,
700.257,1975.1647,
697.347,1998.8092,
694.436,2017.3057,
691.525,1977.9193,
688.615,1966.2304,
685.704,1982.9378,
682.794,1999.1836,
679.883,1972.2308,
676.973,1969.0253,
674.062,2001.5553,
671.151,2024.7583,
668.241,2019.6538,
665.330,1985.6775,
662.420,1992.0674,
659.509,2028.2962,
656.598,2028.0358,
653.688,2001.605,
650.777,2003.0771,
647.867,2023.7816,
644.956,1994.3217,
642.046,1987.8859,
639.135,2013.4056,
636.224,2032.3273,
633.314,2022.8,
630.403,2025.1047,
627.493,2040.6654,
624.582,2056.3139,
621.672,2038.098,
618.761,2063.9729,
615.850,2085.5987,
612.940,2082.0305,
610.029,2060.162,
607.119,2094.9057,
604.208,2131.0356,
601.297,2124.9328,
598.387,2095.6295,
595.476,2073.9748,
592.566,2101.5222,
589.655,2100.544,
586.745,2087.3937,
583.834,2067.1287,
580.923,2041.0433,
578.013,1986.1119,
575.102,1969.6542,
572.192,2008.7481,
569.281,2079.969,
566.371,2072.1428,
563.460,2071.375,
560.549,2078.6842,
557.639,2091.4777,
554.728,2105.917,
551.818,2114.5005,
548.907,2140.7515,
545.996,2152.0983,
543.086,2143.8651,
540.175,2136.8573,
537.265,2126.9594,
534.354,2144.446,
531.444,2162.8671,
528.533,2157.4786,
525.622,2172.9976,
522.712,2195.7911,
519.801,2204.9381,
516.891,2198.5925,
513.980,2194.721,
511.070,2201.4185,
508.159,2224.4328,
505.248,2255.388,
502.338,2284.2953,
499.427,2349.901,
496.517,2374.7285,
493.606,2397.1996,
490.695,2427.1655,
487.785,2404.0717,
484.874,2415.8844,
481.964,2417.7305,
479.053,2397.8951,
476.143,2354.1212,
473.232,2350.6556,
470.321,2371.2978,
467.411,2374.887,
464.500,2321.0538,
461.590,2347.8547,
458.679,2377.3868,
455.769,2386.5532,
452.858,2366.2615,
449.947,2355.5665,
447.037,2364.2967,
444.126,2368.0477,
441.216,2368.0634,
438.305,2400.8265,
435.395,2407.3419,
432.484,2426.2953,
429.573,2447.2925,
426.663,2429.8092,
423.752,2394.8989,
420.842,2384.9419,
417.931,2411.4909,
415.020,2485.81,
412.110,2476.6692,
409.199,2502.2038,
406.289,2525.0117,
403.378,2499.2188,
400.468,2453.1031,
397.557,2464.0825,
394.646,2482.4494,
391.736,2464.5641,
388.825,2407.9968,
385.915,2385.5209,
383.004,2390.9401,
380.094,2421.4826,
377.183,2501.9976,
374.272,2543.3723,
371.362,2572.3254,
368.451,2603.6485,
365.541,2608.1518,
362.630,2617.0224,
359.719,2613.3121,
356.809,2592.5013,
353.898,2644.1684,
350.988,2662.7149,
348.077,2657.6627,
345.167,2635.0127,
342.256,2608.1182,
339.345,2619.5066,
336.435,2630.5456,
333.524,2616.338,
330.614,2646.8894,
327.703,2652.7812,
324.793,2653.7575,
321.882,2666.4147,
318.971,2682.7704,
316.061,2663.471,
313.150,2651.4631,
310.240,2696.7321,
307.329,2710.5238,
304.418,2686.194,
301.508,2653.3442,
298.597,2660.7484,
295.687,2634.9626,
292.776,2631.5417,
289.866,2676.1359,
286.955,2826.8359,
284.044,2876.8375,
281.134,2928.5523,
278.223,2990.5306,
275.313,3005.2677,
272.402,3119.9084,
269.492,3201.3256,
266.581,3205.1092,
263.670,3229.3701,
260.760,3264.0613,
257.849,3300.1533,
254.939,3330.9764,
252.028,3321.965,
249.117,3303.7565,
246.207,3283.9127,
243.296,3274.3962,
240.386,3254.4382,
237.475,3236.6913,
234.565,3221.2691,
231.654,3201.5487,
228.743,3188.1691,
225.833,3178.0211,
222.922,3169.9673,
220.012,3161.2247,
217.101,3129.4228,
214.191,3093.6924,
211.280,3074.7784,
208.369,3070.6837,
205.459,3071.3713,
202.548,3065.6006,
199.638,3014.8052,
196.727,3064.3015,
193.816,3105.6658,
190.906,3099.6036,
187.995,3106.1198,
185.085,3096.0808,
182.174,3089.2309,
179.264,3114.5277,
176.353,3114.8119,
173.442,3112.6499,
170.532,3103.3103,
167.621,3034.0967,
164.711,3019.5795,
161.800,2958.0016,
158.890,2766.5541,
155.979,2648.5058,
153.068,2442.9864,
150.158,2165.1268,
147.247,1881.5356,
144.337,1535.6519,
141.426,1198.6835,
138.516,904.75805,
135.605,635.8966,
132.694,427.62606,
129.784,273.16639,
126.873,169.47256,
123.963,118.21428,
121.052,84.043431,
118.141,55.487351,
115.231,48.269296,
112.320,41.562277,
109.410,35.965934,
106.499,33.829469,
103.589,30.573728,
100.678,26.473648,
97.767,21.497085,
94.857,18.603044,
91.946,15.762557,
89.036,13.826592,
86.125,16.663413,
83.215,16.313159,
80.304,17.529894,
77.393,23.903424,
74.483,12.582571,
71.572,7.0997042,
68.662,8.236465,
65.751,6.8235628,
62.840,8.3018079,
59.930,9.6258552,
57.019,6.8055273,
54.109,5.1806783,
51.198,5.8830464,
48.288,9.3806624,
45.377,10.084041,
42.466,7.901684,
39.556,3.56917,
36.645,-1.3461616,
33.735,0.4904908,
30.824,2.4914521,
27.914,-0.31324887,
25.003,4.9787373,
22.092,4.8230499,
19.182,-2.46482,
16.271,2.431611,
13.361,-12.061861,
10.450,-74.64819,
7.539,-307.18721,
4.629,-551.43669,
1.718,-768.7404,
-1.192,-915.8379,
-4.103,-647.19733,
-7.013,-321.47069,
-9.924,-0.625,
