,PLA763~1,
Wavenumbers [1/cm],Intensity,
3014.167,-0.125,
3011.256,-0.07509663,
3008.346,17.461459,
3005.435,6.3378992,
3002.525,18.422539,
2999.614,17.538645,
2996.704,23.556443,
2993.793,7.246544,
2990.882,15.523825,
2987.972,31.779146,
2985.061,17.751854,
2982.151,15.06827,
2979.240,18.608844,
2976.329,27.896841,
2973.419,37.029044,
2970.508,30.108327,
2967.598,18.875,
2964.687,21.262907,
2961.777,30.216945,
2958.866,38.542162,
2955.955,43.18694,
2953.045,29.342569,
2950.134,36.481415,
2947.224,34.444376,
2944.313,49.830128,
2941.403,45.744069,
2938.492,42.438682,
2935.581,46.622223,
2932.671,46.677599,
2929.760,57.736535,
2926.850,54.927256,
2923.939,53.234812,
2921.028,55.416192,
2918.118,52.614293,
2915.207,50.995304,
2912.297,57.858075,
2909.386,60.896891,
2906.476,45.689638,
2903.565,49.875,
2900.654,51.710184,
2897.744,55.038439,
2894.833,64.163729,
2891.923,67.794904,
2889.012,62.661129,
2886.102,79.666893,
2883.191,77.875944,
2880.280,172.65493,
2877.370,191.26463,
2874.459,171.59183,
2871.549,101.04549,
2868.638,73.512107,
2865.727,74.371184,
2862.817,60.417782,
2859.906,55.875,
2856.996,63.83877,
2854.085,78.036776,
2851.175,62.350908,
2848.264,49.316005,
2845.353,44.543578,
2842.443,68.086837,
2839.532,52.442197,
2836.622,56.633463,
2833.711,61.926807,
2830.801,76.363975,
2827.890,63.352256,
2824.979,57.084978,
2822.069,61.000093,
2819.158,68.834566,
2816.248,50.427107,
2813.337,71.720131,
2810.427,56.786844,
2807.516,58.033281,
2804.605,66.918274,
2801.695,65.256559,
2798.784,50.466385,
2795.874,52.869716,
2792.963,47.58904,
2790.052,64.870067,
2787.142,55.690924,
2784.231,59.230604,
2781.321,64.869236,
2778.410,51.119922,
2775.500,57.470171,
2772.589,56.798544,
2769.678,66.195808,
2766.768,59.135181,
2763.857,76.031067,
2760.947,61.378152,
2758.036,68.652111,
2755.126,71.451919,
2752.215,58.470474,
2749.304,52.896591,
2746.394,67.356838,
2743.483,71.225007,
2740.573,72.536516,
2737.662,63.428255,
2734.751,56.850803,
2731.841,76.065485,
2728.930,65.040128,
2726.020,78.425926,
2723.109,66.895751,
2720.199,71.228141,
2717.288,78.663329,
2714.377,88.61664,
2711.467,68.891482,
2708.556,69.566368,
2705.646,66.269346,
2702.735,78.215211,
2699.825,81.940443,
2696.914,82.922733,
2694.003,83.64573,
2691.093,80.838909,
2688.182,83.094261,
2685.272,89.122514,
2682.361,66.510371,
2679.450,74.907875,
2676.540,72.915648,
2673.629,76.86602,
2670.719,80.232671,
2667.808,86.534551,
2664.898,89.797181,
2661.987,75.374834,
2659.076,74.98491,
2656.166,86.212714,
2653.255,79.650513,
2650.345,89.011117,
2647.434,73.161083,
2644.524,87.647186,
2641.613,91.617929,
2638.702,99.764533,
2635.792,87.405412,
2632.881,89.25603,
2629.971,85.002511,
2627.060,76.708437,
2624.149,86.44061,
2621.239,88.354249,
2618.328,81.298872,
2615.418,89.215907,
2612.507,86.495551,
2609.597,69.61951,
2606.686,92.48544,
2603.775,82.232138,
2600.865,85.871628,
2597.954,101.875,
2595.044,100.55348,
2592.133,88.702933,
2589.223,99.815015,
2586.312,106.19159,
2583.401,96.141401,
2580.491,100.94227,
2577.580,96.865098,
2574.670,87.000679,
2571.759,94.491427,
2568.848,105.58217,
2565.938,111.63699,
2563.027,101.70453,
2560.117,83.267477,
2557.206,100.70894,
2554.296,99.218249,
2551.385,103.94103,
2548.474,110.68987,
2545.564,101.22321,
2542.653,115.03272,
2539.743,112.4551,
2536.832,104.36472,
2533.922,112.59115,
2531.011,100.37453,
2528.100,105.27915,
2525.190,107.94303,
2522.279,117.93704,
2519.369,98.271263,
2516.458,103.54639,
2513.548,112.9204,
2510.637,125.2439,
2507.726,124.62963,
2504.816,107.49958,
2501.905,113.80244,
2498.995,115.23331,
2496.084,118.42202,
2493.173,104.58526,
2490.263,117.81853,
2487.352,107.29233,
2484.442,120.86214,
2481.531,124.02932,
2478.621,110.96502,
2475.710,119.93634,
2472.799,124.42212,
2469.889,107.57305,
2466.978,110.978,
2464.068,134.98618,
2461.157,115.53241,
2458.247,131.30148,
2455.336,123.9611,
2452.425,109.17688,
2449.515,108.10162,
2446.604,119.34272,
2443.694,116.31659,
2440.783,121.4009,
2437.872,120.38551,
2434.962,127.57086,
2432.051,117.18995,
2429.141,122.73973,
2426.230,123.74462,
2423.320,122.54609,
2420.409,129.68924,
2417.498,127.44805,
2414.588,113.43783,
2411.677,115.12601,
2408.767,123.13976,
2405.856,139.53922,
2402.946,137.44605,
2400.035,126.27875,
2397.124,120.00868,
2394.214,141.41659,
2391.303,147.12365,
2388.393,126.70519,
2385.482,118.00719,
2382.571,142.24249,
2379.661,123.29371,
2376.750,122.55721,
2373.840,135.14997,
2370.929,135.88583,
2368.019,139.52587,
2365.108,132.68914,
2362.197,137.44489,
2359.287,140.27834,
2356.376,152.85211,
2353.466,138.46574,
2350.555,140.875,
2347.645,137.32269,
2344.734,131.72292,
2341.823,138.74233,
2338.913,141.98693,
2336.002,141.95391,
2333.092,140.42687,
2330.181,140.66526,
2327.270,132.48006,
2324.360,159.06841,
2321.449,150.6437,
2318.539,144.89641,
2315.628,152.84942,
2312.718,145.27588,
2309.807,147.73837,
2306.896,144.36326,
2303.986,141.18021,
2301.075,142.875,
2298.165,155.64447,
2295.254,146.15506,
2292.344,157.13639,
2289.433,150.77454,
2286.522,147.4641,
2283.612,166.80484,
2280.701,169.33688,
2277.791,168.79298,
2274.880,143.30299,
2271.969,145.26183,
2269.059,154.81234,
2266.148,146.55447,
2263.238,148.07191,
2260.327,160.21961,
2257.417,145.70333,
2254.506,168.04308,
2251.595,157.59504,
2248.685,157.29421,
2245.774,158.875,
2242.864,169.48598,
2239.953,163.64742,
2237.043,159.36822,
2234.132,154.97629,
2231.221,166.53397,
2228.311,170.00516,
2225.400,162.10016,
2222.490,169.68933,
2219.579,173.66166,
2216.669,168.44416,
2213.758,161.70246,
2210.847,160.23269,
2207.937,184.77562,
2205.026,177.98608,
2202.116,178.875,
2199.205,180.93735,
2196.294,186.12299,
2193.384,172.95448,
2190.473,180.6027,
2187.563,210.83633,
2184.652,200.76643,
2181.742,182.96518,
2178.831,180.30695,
2175.920,194.29212,
2173.010,204.02579,
2170.099,199.20932,
2167.189,215.77454,
2164.278,201.72827,
2161.368,203.16044,
2158.457,214.38215,
2155.546,228.04136,
2152.636,209.88038,
2149.725,222.34478,
2146.815,212.37553,
2143.904,220.37314,
2140.993,219.36702,
2138.083,231.23974,
2135.172,243.27844,
2132.262,231.71743,
2129.351,257.1442,
2126.441,231.00109,
2123.530,220.16682,
2120.619,242.15956,
2117.709,218.61131,
2114.798,220.98273,
2111.888,218.18784,
2108.977,210.875,
2106.067,195.70744,
2103.156,193.51451,
2100.245,194.87625,
2097.335,200.00588,
2094.424,215.69452,
2091.514,186.79699,
2088.603,173.02709,
2085.692,176.9679,
2082.782,189.65005,
2079.871,188.76765,
2076.961,213.1314,
2074.050,202.29318,
2071.140,190.07047,
2068.229,184.78646,
2065.318,194.50577,
2062.408,198.62464,
2059.497,195.7024,
2056.587,187.14273,
2053.676,183.14147,
2050.766,191.25915,
2047.855,188.59021,
2044.944,180.20512,
2042.034,187.69001,
2039.123,190.67635,
2036.213,193.26162,
2033.302,197.26604,
2030.391,190.62134,
2027.481,193.75291,
2024.570,193.81799,
2021.660,182.52542,
2018.749,204.64706,
2015.839,196.58825,
2012.928,181.1854,
2010.017,174.32994,
2007.107,177.85446,
2004.196,190.24403,
2001.286,206.62761,
1998.375,193.73621,
1995.465,177.94196,
1992.554,154.96342,
1989.643,160.56393,
1986.733,176.69781,
1983.822,159.96584,
1980.912,177.35954,
1978.001,153.75626,
1975.090,155.88263,
1972.180,144.18618,
1969.269,151.85782,
1966.359,142.82066,
1963.448,152.79046,
1960.538,163.30953,
1957.627,148.71709,
1954.716,135.21972,
1951.806,155.88144,
1948.895,135.9823,
1945.985,133.55147,
1943.074,139.74229,
1940.164,123.14433,
1937.253,114.51883,
1934.342,106.99478,
1931.432,130.11159,
1928.521,131.67984,
1925.611,138.24503,
1922.700,145.04075,
1919.790,146.73626,
1916.879,115.24648,
1913.968,97.893444,
1911.058,121.01614,
1908.147,108.47646,
1905.237,103.88969,
1902.326,105.89572,
1899.415,125.34572,
1896.505,100.82672,
1893.594,85.78657,
1890.684,77.776981,
1887.773,79.495573,
1884.863,115.40347,
1881.952,127.59756,
1879.041,127.14447,
1876.131,109.95867,
1873.220,115.46353,
1870.310,127.08574,
1867.399,109.17888,
1864.489,109.95289,
1861.578,113.08919,
1858.667,122.52771,
1855.757,106.08502,
1852.846,95.126281,
1849.936,87.410546,
1847.025,70.69738,
1844.114,95.992715,
1841.204,127.6792,
1838.293,124.88332,
1835.383,112.77051,
1832.472,135.93413,
1829.562,125.21249,
1826.651,133.85854,
1823.740,150.97079,
1820.830,124.32357,
1817.919,120.76126,
1815.009,97.044216,
1812.098,109.93011,
1809.188,152.20824,
1806.277,99.136516,
1803.366,109.64209,
1800.456,97.578672,
1797.545,128.07352,
1794.635,141.81003,
1791.724,157.68079,
1788.813,170.67346,
1785.903,161.4196,
1782.992,164.57997,
1780.082,198.71566,
1777.171,137.52648,
1774.261,94.015265,
1771.350,122.81125,
1768.439,142.0892,
1765.529,152.23795,
1762.618,161.40253,
1759.708,136.53765,
1756.797,143.51894,
1753.887,163.82252,
1750.976,140.44045,
1748.065,125.27285,
1745.155,161.39084,
1742.244,170.97013,
1739.334,128.95501,
1736.423,148.90859,
1733.512,158.05385,
1730.602,152.88293,
1727.691,146.50138,
1724.781,185.77698,
1721.870,153.4176,
1718.960,164.25304,
1716.049,120.21447,
1713.138,161.31975,
1710.228,155.95025,
1707.317,145.02929,
1704.407,171.72531,
1701.496,151.17476,
1698.586,177.51852,
1695.675,197.65346,
1692.764,145.85858,
1689.854,141.91831,
1686.943,155.40284,
1684.033,169.52729,
1681.122,203.29726,
1678.211,191.98921,
1675.301,218.79175,
1672.390,151.77032,
1669.480,117.44456,
1666.569,188.30666,
1663.659,221.64635,
1660.748,207.52793,
1657.837,190.35613,
1654.927,211.61728,
1652.016,201.50678,
1649.106,226.4833,
1646.195,210.61126,
1643.285,200.7181,
1640.374,236.18511,
1637.463,204.27132,
1634.553,226.77645,
1631.642,287.14645,
1628.732,311.59058,
1625.821,263.88808,
1622.911,283.7623,
1620.000,350.03089,
1617.089,370.47699,
1614.179,435.01373,
1611.268,442.65193,
1608.358,471.47031,
1605.447,518.13251,
1602.536,497.57782,
1599.626,515.19359,
1596.715,559.53226,
1593.805,497.69444,
1590.894,484.59098,
1587.984,490.80374,
1585.073,448.48334,
1582.162,465.08669,
1579.252,443.68936,
1576.341,440.27819,
1573.431,428.34421,
1570.520,405.76557,
1567.610,412.54186,
1564.699,403.82446,
1561.788,408.02984,
1558.878,383.88171,
1555.967,359.6437,
1553.057,347.49575,
1550.146,324.20959,
1547.235,304.20076,
1544.325,320.36521,
1541.414,329.85426,
1538.504,346.48231,
1535.593,354.72831,
1532.683,321.58044,
1529.772,312.67478,
1526.861,316.39117,
1523.951,314.62919,
1521.040,327.66332,
1518.130,296.0415,
1515.219,317.1946,
1512.309,325.92003,
1509.398,308.2971,
1506.487,300.68593,
1503.577,319.01477,
1500.666,369.81641,
1497.756,306.63781,
1494.845,315.11458,
1491.934,296.69232,
1489.024,240.86773,
1486.113,315.83389,
1483.203,249.93342,
1480.292,237.48095,
1477.382,303.15135,
1474.471,259.78682,
1471.560,228.81301,
1468.650,230.70774,
1465.739,238.35843,
1462.829,264.15088,
1459.918,266.06273,
1457.008,241.67483,
1454.097,245.05053,
1451.186,257.63709,
1448.276,223.04715,
1445.365,186.91212,
1442.455,196.76869,
1439.544,178.77237,
1436.633,180.47679,
1433.723,169.01471,
1430.812,137.60866,
1427.902,172.0554,
1424.991,179.6375,
1422.081,156.93807,
1419.170,149.69064,
1416.259,169.12658,
1413.349,142.15488,
1410.438,138.8728,
1407.528,153.46235,
1404.617,166.33341,
1401.707,131.6594,
1398.796,75.633797,
1395.885,76.264968,
1392.975,92.457566,
1390.064,72.413224,
1387.154,104.40768,
1384.243,103.73723,
1381.332,106.65768,
1378.422,96.150425,
1375.511,82.09871,
1372.601,84.639711,
1369.690,108.02001,
1366.780,86.529875,
1363.869,142.35202,
1360.958,151.35024,
1358.048,138.53519,
1355.137,175.87836,
1352.227,183.13626,
1349.316,186.36907,
1346.406,246.875,
1343.495,233.17287,
1340.584,202.94565,
1337.674,252.26699,
1334.763,241.0274,
1331.853,297.5885,
1328.942,331.89571,
1326.032,330.98128,
1323.121,330.61596,
1320.210,362.8392,
1317.300,380.6457,
1314.389,394.20857,
1311.479,414.6128,
1308.568,438.80588,
1305.657,450.35574,
1302.747,442.50935,
1299.836,525.54082,
1296.926,510.45597,
1294.015,544.47095,
1291.105,515.93658,
1288.194,570.18324,
1285.283,556.95088,
1282.373,582.57799,
1279.462,597.28689,
1276.552,601.16638,
1273.641,617.18949,
1270.731,642.92875,
1267.820,675.98091,
1264.909,645.875,
1261.999,644.04417,
1259.088,593.87751,
1256.178,635.41073,
1253.267,594.54169,
1250.356,562.2664,
1247.446,566.783,
1244.535,565.46878,
1241.625,546.80095,
1238.714,541.72496,
1235.804,557.74878,
1232.893,560.12616,
1229.982,555.2123,
1227.072,565.17074,
1224.161,567.55601,
1221.251,543.3062,
1218.340,536.81844,
1215.430,547.78464,
1212.519,548.17809,
1209.608,536.74875,
1206.698,533.38565,
1203.787,536.58857,
1200.877,547.32374,
1197.966,570.70188,
1195.055,573.5815,
1192.145,583.64246,
1189.234,600.49964,
1186.324,624.78571,
1183.413,649.474,
1180.503,661.86323,
1177.592,663.59225,
1174.681,673.21405,
1171.771,654.875,
1168.860,654.875,
1165.950,633.10518,
1163.039,630.66861,
1160.129,615.94891,
1157.218,615.45119,
1154.307,642.08704,
1151.397,670.22111,
1148.486,674.92686,
1145.576,663.02695,
1142.665,643.49287,
1139.754,660.58846,
1136.844,652.26955,
1133.933,662.71067,
1131.023,644.60506,
1128.112,624.0161,
1125.202,650.22281,
1122.291,663.74966,
1119.380,662.66713,
1116.470,641.48645,
1113.559,652.02023,
1110.649,649.32654,
1107.738,659.27045,
1104.828,663.80131,
1101.917,651.50804,
1099.006,648.15329,
1096.096,658.49873,
1093.185,652.35271,
1090.275,693.14778,
1087.364,689.83867,
1084.453,687.24979,
1081.543,664.45818,
1078.632,645.66435,
1075.722,678.13173,
1072.811,687.68884,
1069.901,685.06906,
1066.990,642.03344,
1064.079,682.91354,
1061.169,687.54446,
1058.258,681.19168,
1055.348,695.63875,
1052.437,696.43124,
1049.527,678.5729,
1046.616,670.75344,
1043.705,707.64249,
1040.795,726.53705,
1037.884,709.12828,
1034.974,697.55799,
1032.063,712.44428,
1029.153,707.56341,
1026.242,704.96854,
1023.331,680.70988,
1020.421,712.82138,
1017.510,736.15859,
1014.600,747.79602,
1011.689,751.02881,
1008.778,746.49878,
1005.868,790.72056,
1002.957,773.51347,
1000.047,785.43501,
997.136,803.79617,
994.226,817.78262,
991.315,811.69679,
988.404,783.55074,
985.494,781.62566,
982.583,770.49043,
979.673,733.75596,
976.762,737.90096,
973.852,748.10696,
970.941,741.72567,
968.030,734.42995,
965.120,748.86426,
962.209,746.30663,
959.299,764.99773,
956.388,791.35382,
953.477,782.85746,
950.567,763.46903,
947.656,799.98102,
944.746,785.53857,
941.835,803.50071,
938.925,833.53896,
936.014,817.53709,
933.103,799.82092,
930.193,808.48886,
927.282,761.72928,
924.372,740.58912,
921.461,759.23061,
918.551,774.42713,
915.640,767.12669,
912.729,755.24213,
909.819,768.20693,
906.908,755.57055,
903.998,769.98692,
901.087,770.69247,
898.176,776.98732,
895.266,785.5576,
892.355,783.14734,
889.445,773.9154,
886.534,797.25141,
883.624,799.18367,
880.713,814.20639,
877.802,822.92717,
874.892,807.30115,
871.981,793.01444,
869.071,671.87957,
866.160,653.63484,
863.250,686.85137,
860.339,727.33018,
857.428,754.3795,
854.518,780.98434,
851.607,750.19778,
848.697,769.63642,
845.786,732.61115,
842.875,708.14881,
839.965,752.16158,
837.054,781.4053,
834.144,828.64418,
831.233,832.54205,
828.323,808.11384,
825.412,807.12455,
822.501,851.27924,
819.591,847.97364,
816.680,814.2211,
813.770,803.36899,
810.859,791.9477,
807.949,783.45794,
805.038,794.36837,
802.127,806.71528,
799.217,787.74944,
796.306,775.76685,
793.396,781.21861,
790.485,790.82107,
787.574,772.77799,
784.664,796.56125,
781.753,814.96566,
778.843,823.34525,
775.932,833.20819,
773.022,845.78872,
770.111,806.54496,
767.200,814.53337,
764.290,827.12105,
761.379,821.66511,
758.469,810.82714,
755.558,840.97225,
752.648,844.23067,
749.737,851.40289,
746.826,847.41546,
743.916,844.18027,
741.005,863.3773,
738.095,912.08991,
735.184,895.70815,
732.274,834.81116,
729.363,772.07217,
726.452,745.4065,
723.542,770.4977,
720.631,778.75585,
717.721,791.75907,
714.810,818.14761,
711.899,839.78587,
708.989,805.08809,
706.078,828.91409,
703.168,826.37391,
700.257,807.6727,
697.347,793.6571,
694.436,810.78771,
691.525,807.57249,
688.615,828.88689,
685.704,826.33403,
682.794,815.47064,
679.883,847.27148,
676.973,856.08655,
674.062,857.875,
671.151,837.71182,
668.241,819.26069,
665.330,841.21109,
662.420,806.0669,
659.509,790.6209,
656.598,819.19674,
653.688,861.95483,
650.777,858.30795,
647.867,841.58506,
644.956,834.77925,
642.046,818.36406,
639.135,796.82695,
636.224,792.98641,
633.314,815.21668,
630.403,814.37168,
627.493,809.875,
624.582,810.58129,
621.672,813.74926,
618.761,830.59366,
615.850,857.91451,
612.940,884.07183,
610.029,899.48043,
607.119,897.11154,
604.208,896.16499,
601.297,900.36166,
598.387,902.58194,
595.476,895.76081,
592.566,883.95479,
589.655,900.01592,
586.745,927.23374,
583.834,936.48037,
580.923,889.00769,
578.013,910.98024,
575.102,897.373,
572.192,887.16241,
569.281,893.1878,
566.371,883.79632,
563.460,930.14137,
560.549,930.38385,
557.639,924.10886,
554.728,960.55924,
551.818,923.88439,
548.907,911.60911,
545.996,913.54047,
543.086,917.18422,
540.175,900.05401,
537.265,877.14662,
534.354,900.48151,
531.444,918.49942,
528.533,886.02711,
525.622,916.28905,
522.712,902.85214,
519.801,885.29244,
516.891,878.81403,
513.980,883.45981,
511.070,914.86628,
508.159,895.87805,
505.248,867.38442,
502.338,886.85241,
499.427,886.08058,
496.517,882.48106,
493.606,901.74697,
490.695,941.66547,
487.785,918.57175,
484.874,909.70521,
481.964,901.47638,
479.053,896.0813,
476.143,905.29685,
473.232,908.75261,
470.321,904.52266,
467.411,890.77067,
464.500,867.70891,
461.590,900.63574,
458.679,902.17088,
455.769,907.53238,
452.858,933.51128,
449.947,939.62273,
447.037,909.32345,
444.126,900.7053,
441.216,922.0656,
438.305,928.92298,
435.395,929.21936,
432.484,906.78714,
429.573,881.73257,
426.663,906.81721,
423.752,945.83821,
420.842,937.21396,
417.931,868.44421,
415.020,729.66468,
412.110,759.99243,
409.199,848.18054,
406.289,927.12098,
403.378,927.88525,
400.468,930.90922,
397.557,903.08262,
394.646,882.06995,
391.736,900.78245,
388.825,960.36672,
385.915,974.14964,
383.004,966.87739,
380.094,955.37783,
377.183,926.03125,
374.272,922.21724,
371.362,938.23675,
368.451,966.3249,
365.541,940.80668,
362.630,943.16109,
359.719,945.54758,
356.809,931.56104,
353.898,909.84589,
350.988,929.91436,
348.077,948.97091,
345.167,941.34522,
342.256,930.88626,
339.345,936.90935,
336.435,946.81815,
333.524,951.64012,
330.614,944.18856,
327.703,965.49164,
324.793,984.26592,
321.882,973.94531,
318.971,1002.9396,
316.061,998.22558,
313.150,985.64642,
310.240,994.55181,
307.329,1052.7606,
304.418,1085.45,
301.508,1095.8904,
298.597,1092.1883,
295.687,1114.2239,
292.776,1114.0416,
289.866,1104.6355,
286.955,1131.9684,
284.044,1146.6275,
281.134,1182.498,
278.223,1232.0128,
275.313,1226.1179,
272.402,1248.692,
269.492,1271.8952,
266.581,1282.0373,
263.670,1242.3375,
260.760,1263.2628,
257.849,1300.8304,
254.939,1323.5808,
252.028,1337.6281,
249.117,1319.5768,
246.207,1302.1032,
243.296,1341.6332,
240.386,1308.6545,
237.475,1295.7904,
234.565,1298.7076,
231.654,1246.8503,
228.743,1251.9853,
225.833,1244.3616,
222.922,1196.6475,
220.012,1127.4347,
217.101,1121.5593,
214.191,1127.2913,
211.280,1088.7358,
208.369,1117.4972,
205.459,1088.5582,
202.548,1033.2817,
199.638,1099.3158,
196.727,1065.0491,
193.816,1037.4006,
190.906,1052.8942,
187.995,996.42029,
185.085,990.58782,
182.174,1002.9367,
179.264,992.09526,
176.353,954.99138,
173.442,956.99103,
170.532,988.23035,
167.621,922.62158,
164.711,930.62782,
161.800,915.78149,
158.890,804.22371,
155.979,741.3592,
153.068,679.35761,
150.158,614.41596,
147.247,541.18483,
144.337,469.66871,
141.426,374.75152,
138.516,241.40975,
135.605,183.23961,
132.694,140.3795,
129.784,103.56164,
126.873,50.642031,
123.963,31.908018,
121.052,22.19224,
118.141,12.911514,
115.231,12.875,
112.320,10.333184,
109.410,7.2840658,
106.499,9.4205315,
103.589,2.0314373,
100.678,-3.8533783,
97.767,-3.1424407,
94.857,3.8048905,
91.946,7.2781109,
89.036,7.3105105,
86.125,3.7644841,
83.215,4.9986814,
80.304,3.5229424,
77.393,-6.3914367,
74.483,0.081484536,
71.572,4.5997042,
68.662,5.8057325,
65.751,5.0992814,
62.840,5.838404,
59.930,6.3131414,
57.019,4.1978954,
54.109,2.0835175,
51.198,2.0814371,
48.288,4.8353629,
45.377,-0.08828356,
42.466,2.4094127,
39.556,8.5296443,
36.645,6.4230736,
33.735,2.2402607,
30.824,-1.7876609,
27.914,-3.8911867,
25.003,-9.7287373,
22.092,-12.156286,
19.182,-9.7817571,
16.271,0.71059493,
13.361,33.9556,
10.450,61.976214,
7.539,-7.1570072,
4.629,-268.31406,
1.718,-591.05978,
-1.192,-900.59195,
-4.103,-737.77106,
-7.013,-423.19147,
-9.924,-2.125,
