,PLC2BA~1,
Wavenumbers [1/cm],Intensity,
3014.167,-3.125,
3011.256,1.3249893,
3008.346,36.038246,
3005.435,23.991609,
3002.525,35.422539,
2999.614,27.776309,
2996.704,41.370874,
2993.793,28.998848,
2990.882,29.875,
2987.972,39.82455,
2985.061,33.421803,
2982.151,30.829616,
2979.240,33.723852,
2976.329,36.86954,
2973.419,42.659853,
2970.508,37.191644,
2967.598,36.205923,
2964.687,30.993885,
2961.777,47.122937,
2958.866,59.545131,
2955.955,45.009968,
2953.045,57.241892,
2950.134,58.268585,
2947.224,48.700596,
2944.313,71.032407,
2941.403,61.267792,
2938.492,56.885845,
2935.581,61.170707,
2932.671,57.797772,
2929.760,66.528838,
2926.850,65.665977,
2923.939,52.155377,
2921.028,64.745728,
2918.118,68.694899,
2915.207,57.279932,
2912.297,76.760755,
2909.386,62.473541,
2906.476,51.394677,
2903.565,59.084629,
2900.654,59.263272,
2897.744,61.711561,
2894.833,45.988456,
2891.923,47.551302,
2889.012,30.036851,
2886.102,50.103374,
2883.191,17.908041,
2880.280,3.3582426,
2877.370,-155.69434,
2874.459,-246.55866,
2871.549,-141.11115,
2868.638,-19.844653,
2865.727,-0.19812341,
2862.817,45.833533,
2859.906,48.128557,
2856.996,58.372736,
2854.085,77.360327,
2851.175,64.447275,
2848.264,67.590667,
2845.353,55.284774,
2842.443,74.673607,
2839.532,65.785509,
2836.622,60.751304,
2833.711,59.393067,
2830.801,68.875,
2827.890,73.60402,
2824.979,71.591009,
2822.069,86.863628,
2819.158,80.934294,
2816.248,69.139474,
2813.337,81.060373,
2810.427,69.264805,
2807.516,69.349844,
2804.605,73.262018,
2801.695,75.967116,
2798.784,61.353461,
2795.874,64.009554,
2792.963,60.946168,
2790.052,87.867922,
2787.142,74.559308,
2784.231,72.101724,
2781.321,65.063581,
2778.410,72.854686,
2775.500,78.343276,
2772.589,78.759557,
2769.678,85.301585,
2766.768,76.018665,
2763.857,79.876929,
2760.947,85.811958,
2758.036,82.652111,
2755.126,87.16346,
2752.215,85.193247,
2749.304,84.641193,
2746.394,77.298382,
2743.483,84.924975,
2740.573,91.649344,
2737.662,74.545117,
2734.751,79.107976,
2731.841,85.334709,
2728.930,83.345279,
2726.020,88.538194,
2723.109,81.442084,
2720.199,95.209467,
2717.288,86.769165,
2714.377,97.841561,
2711.467,89.481593,
2708.556,88.396263,
2705.646,98.170799,
2702.735,97.047685,
2699.825,93.093142,
2696.914,96.637291,
2694.003,105.36118,
2691.093,105.00015,
2688.182,105.82018,
2685.272,95.715683,
2682.361,84.416483,
2679.450,86.862589,
2676.540,85.915648,
2673.629,88.538673,
2670.719,98.867612,
2667.808,100.06954,
2664.898,100.03064,
2661.987,105.07487,
2659.076,99.002156,
2656.166,97.584943,
2653.255,102.80017,
2650.345,111.14723,
2647.434,103.13222,
2644.524,105.875,
2641.613,99.703409,
2638.702,105.73297,
2635.792,105.9069,
2632.881,109.53557,
2629.971,102.78767,
2627.060,94.541875,
2624.149,105.27811,
2621.239,101.83943,
2618.328,90.061842,
2615.418,109.24317,
2612.507,106.90657,
2609.597,99.435878,
2606.686,112.57582,
2603.775,112.99007,
2600.865,106.8136,
2597.954,112.01874,
2595.044,113.55348,
2592.133,104.76029,
2589.223,116.03186,
2586.312,111.67903,
2583.401,104.07937,
2580.491,118.57207,
2577.580,114.85024,
2574.670,99.598263,
2571.759,114.28937,
2568.848,113.70366,
2565.938,117.35116,
2563.027,118.94775,
2560.117,101.80021,
2557.206,118.38053,
2554.296,110.59125,
2551.385,123.69305,
2548.474,148.87538,
2545.564,130.7297,
2542.653,137.79111,
2539.743,120.99823,
2536.832,115.40584,
2533.922,118.95385,
2531.011,129.64951,
2528.100,129.41502,
2525.190,134.05819,
2522.279,136.79635,
2519.369,113.66753,
2516.458,110.31905,
2513.548,128.48383,
2510.637,139.12093,
2507.726,143.81181,
2504.816,134.06102,
2501.905,132.17927,
2498.995,125.60685,
2496.084,147.96905,
2493.173,120.29553,
2490.263,130.0095,
2487.352,136.875,
2484.442,134.31184,
2481.531,129.45477,
2478.621,141.62385,
2475.710,145.88267,
2472.799,145.64183,
2469.889,135.57305,
2466.978,143.30785,
2464.068,139.29825,
2461.157,133.64498,
2458.247,144.55156,
2455.336,146.3016,
2452.425,135.63443,
2449.515,154.26169,
2446.604,146.70221,
2443.694,135.64226,
2440.783,153.73649,
2437.872,136.94793,
2434.962,136.24828,
2432.051,150.81985,
2429.141,154.6576,
2426.230,146.875,
2423.320,140.17458,
2420.409,155.98401,
2417.498,155.86658,
2414.588,142.34275,
2411.677,137.12601,
2408.767,148.1752,
2405.856,171.19399,
2402.946,160.96973,
2400.035,148.17781,
2397.124,149.77339,
2394.214,163.68739,
2391.303,161.26186,
2388.393,150.60757,
2385.482,127.97655,
2382.571,116.50751,
2379.661,129.50291,
2376.750,145.0818,
2373.840,155.30626,
2370.929,164.7667,
2368.019,152.99506,
2365.108,163.85144,
2362.197,162.0969,
2359.287,162.06832,
2356.376,168.86443,
2353.466,173.29968,
2350.555,165.68996,
2347.645,158.54653,
2344.734,155.66302,
2341.823,178.49359,
2338.913,166.05261,
2336.002,168.35824,
2333.092,165.80612,
2330.181,168.66526,
2327.270,168.98501,
2324.360,190.45522,
2321.449,173.58248,
2318.539,178.02486,
2315.628,184.17756,
2312.718,171.50935,
2309.807,163.19766,
2306.896,186.56043,
2303.986,172.31665,
2301.075,174.15164,
2298.165,197.20249,
2295.254,167.69364,
2292.344,182.87079,
2289.433,188.46181,
2286.522,183.79005,
2283.612,189.90432,
2280.701,208.3772,
2277.791,190.5544,
2274.880,183.94498,
2271.969,185.16718,
2269.059,186.46084,
2266.148,185.03861,
2263.238,181.97539,
2260.327,197.70243,
2257.417,187.09389,
2254.506,201.44764,
2251.595,197.875,
2248.685,191.24618,
2245.774,194.2815,
2242.864,191.17174,
2239.953,206.23369,
2237.043,189.97858,
2234.132,194.33729,
2231.221,197.19022,
2228.311,201.83375,
2225.400,217.84685,
2222.490,216.13231,
2219.579,214.58452,
2216.669,221.85592,
2213.758,211.52466,
2210.847,199.84478,
2207.937,219.97921,
2205.026,225.54118,
2202.116,231.7954,
2199.205,215.99971,
2196.294,216.81701,
2193.384,224.24302,
2190.473,218.57922,
2187.563,253.94267,
2184.652,264.86276,
2181.742,240.78321,
2178.831,237.06572,
2175.920,246.29758,
2173.010,253.20096,
2170.099,260.4747,
2167.189,269.83912,
2164.278,264.875,
2161.368,266.87476,
2158.457,266.79148,
2155.546,277.81349,
2152.636,275.84845,
2149.725,299.66692,
2146.815,302.00848,
2143.904,289.57389,
2140.993,285.47819,
2138.083,284.88714,
2135.172,306.74905,
2132.262,310.60916,
2129.351,312.93712,
2126.441,305.27303,
2123.530,301.94234,
2120.619,302.37065,
2117.709,266.82025,
2114.798,258.04801,
2111.888,260.1495,
2108.977,268.96771,
2106.067,243.60691,
2103.156,262.27005,
2100.245,247.875,
2097.335,247.39333,
2094.424,241.48151,
2091.514,234.59006,
2088.603,234.9257,
2085.692,219.68921,
2082.782,219.77052,
2079.871,234.55411,
2076.961,243.42295,
2074.050,278.42045,
2071.140,247.78321,
2068.229,241.22916,
2065.318,249.813,
2062.408,240.93552,
2059.497,242.88691,
2056.587,246.875,
2053.676,266.4738,
2050.766,260.72179,
2047.855,233.78956,
2044.944,230.34295,
2042.034,224.74202,
2039.123,227.05682,
2036.213,241.33721,
2033.302,251.54869,
2030.391,247.77374,
2027.481,241.10669,
2024.570,259.57453,
2021.660,227.12191,
2018.749,264.68505,
2015.839,259.60597,
2012.928,256.26594,
2010.017,252.17359,
2007.107,245.24507,
2004.196,230.33928,
2001.286,252.44033,
1998.375,244.21554,
1995.465,226.79554,
1992.554,210.85159,
1989.643,226.25285,
1986.733,236.59079,
1983.822,217.40159,
1980.912,231.81502,
1978.001,207.875,
1975.090,210.26584,
1972.180,207.11703,
1969.269,186.85484,
1966.359,189.19948,
1963.448,211.94634,
1960.538,225.17859,
1957.627,202.80068,
1954.716,183.36336,
1951.806,204.32854,
1948.895,193.10983,
1945.985,188.2835,
1943.074,189.875,
1940.164,183.11523,
1937.253,172.5967,
1934.342,172.35361,
1931.432,192.3892,
1928.521,206.92681,
1925.611,192.18034,
1922.700,195.5808,
1919.790,197.875,
1916.879,173.68849,
1913.968,166.88115,
1911.058,209.82694,
1908.147,180.6093,
1905.237,177.28675,
1902.326,166.91945,
1899.415,139.14449,
1896.505,100.17615,
1893.594,115.5885,
1890.684,149.07104,
1887.773,164.69372,
1884.863,183.35564,
1881.952,197.54742,
1879.041,186.50168,
1876.131,194.09068,
1873.220,183.79973,
1870.310,184.65975,
1867.399,195.69907,
1864.489,168.90141,
1861.578,146.64959,
1858.667,162.26124,
1855.757,150.68288,
1852.846,155.69547,
1849.936,188.10824,
1847.025,166.46381,
1844.114,175.94563,
1841.204,208.75961,
1838.293,211.89995,
1835.383,159.16654,
1832.472,181.24891,
1829.562,192.32291,
1826.651,183.34522,
1823.740,177.13935,
1820.830,161.52843,
1817.919,208.36634,
1815.009,191.61928,
1812.098,195.85137,
1809.188,215.63465,
1806.277,190.47256,
1803.366,177.59218,
1800.456,162.57867,
1797.545,191.04525,
1794.635,186.10005,
1791.724,208.37014,
1788.813,208.87243,
1785.903,188.44679,
1782.992,151.36234,
1780.082,131.65254,
1777.171,31.524336,
1774.261,-4.2894184,
1771.350,72.390261,
1768.439,146.49673,
1765.529,196.42131,
1762.618,215.88565,
1759.708,204.82039,
1756.797,205.1553,
1753.887,229.13156,
1750.976,232.64398,
1748.065,229.57393,
1745.155,243.48134,
1742.244,225.06526,
1739.334,190.33383,
1736.423,207.01702,
1733.512,205.50505,
1730.602,215.83534,
1727.691,225.48096,
1724.781,244.96626,
1721.870,222.51294,
1718.960,231.49741,
1716.049,215.57858,
1713.138,214.43999,
1710.228,250.55718,
1707.317,216.95386,
1704.407,220.85897,
1701.496,251.95608,
1698.586,247.48312,
1695.675,259.97492,
1692.764,255.19467,
1689.854,224.26081,
1686.943,245.09931,
1684.033,269.27893,
1681.122,276.75605,
1678.211,258.05583,
1675.301,273.82567,
1672.390,270.80621,
1669.480,248.29214,
1666.569,300.25588,
1663.659,329.41769,
1660.748,302.16423,
1657.837,317.22492,
1654.927,332.03155,
1652.016,297.77407,
1649.106,334.63391,
1646.195,364.65921,
1643.285,356.3763,
1640.374,376.85062,
1637.463,330.08198,
1634.553,396.31834,
1631.642,426.30932,
1628.732,465.66168,
1625.821,429.88743,
1622.911,448.76793,
1620.000,501.20727,
1617.089,587.14365,
1614.179,599.56479,
1611.268,624.90837,
1608.358,664.95525,
1605.447,718.73256,
1602.536,708.82858,
1599.626,763.99091,
1596.715,720.77214,
1593.805,718.558,
1590.894,715.35232,
1587.984,709.67845,
1585.073,665.48334,
1582.162,664.55409,
1579.252,647.05407,
1576.341,627.6548,
1573.431,637.18896,
1570.520,604.1849,
1567.610,590.63967,
1564.699,542.74806,
1561.788,534.02984,
1558.878,562.45447,
1555.967,507.80853,
1553.057,477.70255,
1550.146,483.56226,
1547.235,458.71998,
1544.325,481.15883,
1541.414,497.21334,
1538.504,485.41641,
1535.593,475.67597,
1532.683,465.71258,
1529.772,459.68138,
1526.861,445.25404,
1523.951,446.21125,
1521.040,458.24528,
1518.130,482.99767,
1515.219,526.5554,
1512.309,509.40652,
1509.398,493.71919,
1506.487,472.52079,
1503.577,462.16891,
1500.666,463.76308,
1497.756,465.39226,
1494.845,493.07347,
1491.934,425.82146,
1489.024,409.45908,
1486.113,414.43829,
1483.203,418.42767,
1480.292,414.63244,
1477.382,451.86266,
1474.471,389.50876,
1471.560,379.48566,
1468.650,355.1775,
1465.739,346.99892,
1462.829,363.6018,
1459.918,394.42215,
1457.008,416.95199,
1454.097,411.24536,
1451.186,404.69705,
1448.276,398.4852,
1445.365,359.72966,
1442.455,334.79475,
1439.544,346.3046,
1436.633,337.02992,
1433.723,316.00868,
1430.812,297.64818,
1427.902,319.35636,
1424.991,297.55782,
1422.081,273.0206,
1419.170,294.20463,
1416.259,306.78569,
1413.349,299.05687,
1410.438,306.37169,
1407.528,284.48159,
1404.617,301.57993,
1401.707,280.94982,
1398.796,216.4415,
1395.885,207.13108,
1392.975,220.6452,
1390.064,214.06526,
1387.154,256.93053,
1384.243,230.70255,
1381.332,220.91111,
1378.422,150.71059,
1375.511,186.30827,
1372.601,241.24765,
1369.690,235.58833,
1366.780,244.96349,
1363.869,273.3017,
1360.958,287.49651,
1358.048,289.28169,
1355.137,318.31331,
1352.227,348.99267,
1349.316,381.48186,
1346.406,414.97633,
1343.495,386.89937,
1340.584,372.66024,
1337.674,408.05583,
1334.763,444.39227,
1331.853,484.2632,
1328.942,478.75929,
1326.032,498.26552,
1323.121,491.01957,
1320.210,504.85486,
1317.300,513.28477,
1314.389,541.13944,
1311.479,582.72926,
1308.568,583.55625,
1305.657,560.1466,
1302.747,597.82612,
1299.836,657.29765,
1296.926,688.61863,
1294.015,683.10268,
1291.105,696.08313,
1288.194,736.21467,
1285.283,769.5031,
1282.373,755.46102,
1279.462,769.32545,
1276.552,814.63888,
1273.641,826.07035,
1270.731,803.34515,
1267.820,798.3577,
1264.909,765.39144,
1261.999,762.04144,
1259.088,766.60204,
1256.178,791.71224,
1253.267,778.2295,
1250.356,761.36168,
1247.446,739.44664,
1244.535,720.44198,
1241.625,710.45278,
1238.714,702.20457,
1235.804,705.20015,
1232.893,747.63309,
1229.982,712.07089,
1227.072,747.37806,
1224.161,732.22442,
1221.251,709.51776,
1218.340,680.20158,
1215.430,678.33517,
1212.519,668.76462,
1209.608,650.41876,
1206.698,653.8111,
1203.787,648.14636,
1200.877,665.54067,
1197.966,660.14572,
1195.055,699.12444,
1192.145,739.68545,
1189.234,799.53443,
1186.324,829.14804,
1183.413,813.76838,
1180.503,799.9809,
1177.592,810.20817,
1174.681,785.38185,
1171.771,788.68955,
1168.860,780.65175,
1165.950,784.71274,
1163.039,780.28778,
1160.129,772.5663,
1157.218,779.93193,
1154.307,797.44038,
1151.397,806.875,
1148.486,809.12285,
1145.576,822.14483,
1142.665,828.36022,
1139.754,827.24774,
1136.844,817.07076,
1133.933,809.94247,
1131.023,771.52362,
1128.112,749.80083,
1125.202,785.80736,
1122.291,794.13107,
1119.380,809.90098,
1116.470,812.54857,
1113.559,732.4571,
1110.649,746.2012,
1107.738,773.37645,
1104.828,790.27749,
1101.917,795.40714,
1099.006,775.32855,
1096.096,786.55248,
1093.185,781.28446,
1090.275,793.01405,
1087.364,797.24725,
1084.453,801.24979,
1081.543,805.62788,
1078.632,812.88931,
1075.722,823.49888,
1072.811,822.55757,
1069.901,832.16344,
1066.990,809.43339,
1064.079,827.69299,
1061.169,812.36454,
1058.258,806.54397,
1055.348,828.46292,
1052.437,823.64344,
1049.527,793.15052,
1046.616,826.16604,
1043.705,837.58265,
1040.795,841.79051,
1037.884,831.74877,
1034.974,823.85438,
1032.063,824.34439,
1029.153,813.19859,
1026.242,840.8772,
1023.331,839.37516,
1020.421,865.36486,
1017.510,879.1161,
1014.600,893.13997,
1011.689,892.77079,
1008.778,852.80722,
1005.868,869.79778,
1002.957,861.19424,
1000.047,884.62701,
997.136,932.6385,
994.226,956.75197,
991.315,951.65718,
988.404,939.95783,
985.494,893.4914,
982.583,876.36028,
979.673,875.33829,
976.762,870.00398,
973.852,873.38917,
970.941,877.24377,
968.030,866.12937,
965.120,878.95734,
962.209,898.56581,
959.299,891.95951,
956.388,895.7145,
953.477,909.68452,
950.567,920.09073,
947.656,921.99719,
944.746,953.43076,
941.835,948.39649,
938.925,955.42965,
936.014,933.57204,
933.103,912.11213,
930.193,915.68011,
927.282,896.90437,
924.372,860.54328,
921.461,897.84982,
918.551,889.63766,
915.640,883.92354,
912.729,898.06993,
909.819,894.54054,
906.908,884.43144,
903.998,924.43858,
901.087,920.87186,
898.176,908.58024,
895.266,912.44477,
892.355,925.69203,
889.445,897.99621,
886.534,939.61859,
883.624,921.63455,
880.713,923.67532,
877.802,909.73628,
874.892,835.1811,
871.981,735.2845,
869.071,583.23936,
866.160,618.28141,
863.250,741.80411,
860.339,851.42738,
857.428,891.10976,
854.518,885.87704,
851.607,816.81529,
848.697,768.42069,
845.786,744.60947,
842.875,757.44971,
839.965,812.91437,
837.054,900.32157,
834.144,940.10168,
831.233,961.87399,
828.323,956.01613,
825.412,960.90492,
822.501,994.25787,
819.591,968.63949,
816.680,952.65061,
813.770,938.85096,
810.859,929.26507,
807.949,929.28478,
805.038,935.89711,
802.127,894.74074,
799.217,931.87151,
796.306,926.00999,
793.396,925.66905,
790.485,932.02857,
787.574,870.6187,
784.664,916.54499,
781.753,911.45532,
778.843,919.57747,
775.932,934.875,
773.022,936.39657,
770.111,946.20751,
767.200,929.36481,
764.290,941.21134,
761.379,949.54246,
758.469,946.014,
755.558,957.85069,
752.648,957.03608,
749.737,941.86085,
746.826,922.68569,
743.916,910.9919,
741.005,917.72661,
738.095,951.82544,
735.184,917.97684,
732.274,840.29321,
729.363,799.00537,
726.452,834.28357,
723.542,864.23112,
720.631,919.39273,
717.721,923.84524,
714.810,949.13614,
711.899,991.3304,
708.989,933.2318,
706.078,978.54927,
703.168,958.90673,
700.257,950.83959,
697.347,965.91868,
694.436,959.0714,
691.525,966.30564,
688.615,939.574,
685.704,922.875,
682.794,928.96004,
679.883,950.56904,
676.973,988.23346,
674.062,1007.9986,
671.151,997.78013,
668.241,976.82799,
665.330,978.24891,
662.420,943.90344,
659.509,940.68459,
656.598,956.29025,
653.688,968.35398,
650.777,950.76608,
647.867,977.0449,
644.956,951.29835,
642.046,894.14657,
639.135,843.59992,
636.224,854.14158,
633.314,907.33545,
630.403,925.01347,
627.493,955.52836,
624.582,989.63386,
621.672,943.6982,
618.761,969.23282,
615.850,996.0576,
612.940,1013.9488,
610.029,1018.2967,
607.119,1008.8212,
604.208,1024.2053,
601.297,1046.329,
598.387,1047.5434,
595.476,1013.3606,
592.566,1029.1019,
589.655,1061.6779,
586.745,1059.6483,
583.834,1035.2162,
580.923,1032.7802,
578.013,1017.0855,
575.102,1003.124,
572.192,1017.6694,
569.281,1052.2352,
566.371,1026.4086,
563.460,1023.1695,
560.549,1039.4425,
557.639,1068.1547,
554.728,1097.5447,
551.818,1076.4761,
548.907,1051.155,
545.996,1055.3705,
543.086,1075.4934,
540.175,1041.233,
537.265,1027.2865,
534.354,1045.9528,
531.444,1071.9402,
528.533,1079.8198,
525.622,1079.0439,
522.712,1043.6833,
519.801,1020.875,
516.891,1020.875,
513.980,1020.875,
511.070,1051.8663,
508.159,1059.1442,
505.248,1048.6188,
502.338,1035.988,
499.427,1039.8471,
496.517,1057.279,
493.606,1068.529,
490.695,1065.4471,
487.785,1062.3679,
484.874,1066.3986,
481.964,1037.3139,
479.053,999.67775,
476.143,1028.0924,
473.232,1037.7884,
470.321,1053.526,
467.411,1068.3946,
464.500,1071.7502,
461.590,1027.3373,
458.679,1054.4962,
455.769,1072.6971,
452.858,1046.5676,
449.947,1091.6395,
447.037,1072.3573,
444.126,1066.4447,
441.216,1087.3458,
438.305,1084.2981,
435.395,1087.1532,
432.484,1088.875,
429.573,1073.9648,
426.663,1010.113,
423.752,833.30992,
420.842,621.8692,
417.931,453.91922,
415.020,436.47698,
412.110,683.89186,
409.199,860.93847,
406.289,951.36696,
403.378,952.78791,
400.468,927.0841,
397.557,928.12969,
394.646,964.07891,
391.736,1038.7442,
388.825,1065.8965,
385.915,1069.6175,
383.004,1057.3087,
380.094,1037.2954,
377.183,1065.137,
374.272,1077.76,
371.362,1085.9956,
368.451,1096.1485,
365.541,1100.6518,
362.630,1111.1611,
359.719,1118.579,
356.809,1115.972,
353.898,1084.5225,
350.988,1082.3848,
348.077,1097.4585,
345.167,1119.5505,
342.256,1093.4032,
339.345,1089.595,
336.435,1092.875,
333.524,1092.6871,
330.614,1086.7259,
327.703,1117.7329,
324.793,1153.2575,
321.882,1165.7975,
318.971,1133.8294,
316.061,1122.875,
313.150,1138.3488,
310.240,1188.0705,
307.329,1210.5995,
304.418,1249.4239,
301.508,1283.9058,
298.597,1276.5016,
295.687,1243.3675,
292.776,1247.0418,
289.866,1283.0607,
286.955,1326.6455,
284.044,1384.1074,
281.134,1430.538,
278.223,1463.5096,
275.313,1495.1944,
272.402,1522.2066,
269.492,1519.7649,
266.581,1480.3526,
263.670,1445.0639,
260.760,1480.8447,
257.849,1547.2546,
254.939,1616.9734,
252.028,1604.8458,
249.117,1590.2816,
246.207,1584.5573,
243.296,1606.5184,
240.386,1621.9348,
237.475,1603.9028,
234.565,1570.0868,
231.654,1609.5276,
228.743,1608.0937,
225.833,1583.4959,
222.922,1541.0552,
220.012,1480.5851,
217.101,1446.1535,
214.191,1434.8091,
211.280,1447.9034,
208.369,1433.4003,
205.459,1392.7372,
202.548,1356.2873,
199.638,1433.9318,
196.727,1395.1345,
193.816,1378.0537,
190.906,1428.1673,
187.995,1322.4598,
185.085,1319.4478,
182.174,1346.6891,
179.264,1309.1052,
176.353,1309.3605,
173.442,1331.4531,
170.532,1356.8022,
167.621,1278.9369,
164.711,1258.4006,
161.800,1206.0356,
158.890,1051.2942,
155.979,1014.4324,
153.068,957.28547,
150.158,871.2549,
147.247,744.17735,
144.337,619.96104,
141.426,486.70466,
138.516,337.59128,
135.605,254.46162,
132.694,182.73163,
129.784,120.84038,
126.873,69.35103,
123.963,49.769878,
121.052,35.226191,
118.141,15.950837,
115.231,13.032719,
112.320,13.145908,
109.410,14.738645,
106.499,14.02649,
103.589,13.314746,
100.678,10.702026,
97.767,5.0145258,
94.857,0.71706571,
91.946,4.1154413,
89.036,10.858919,
86.125,4.4760714,
83.215,4.9986814,
80.304,3.7623751,
77.393,-5.4438341,
74.483,1.0814845,
71.572,3.4255915,
68.662,0.736465,
65.751,-0.67643715,
62.840,3.2103179,
59.930,5.8148518,
57.019,-1.94105,
54.109,-0.13919576,
51.198,0.97017217,
48.288,-1.1419873,
45.377,-3.2521215,
42.466,-2.4761226,
39.556,0.33547431,
36.645,3.1442352,
33.735,1.2787577,
30.824,-0.46233908,
27.914,1.6411867,
25.003,0.62972505,
22.092,2.781141,
19.182,8.71482,
16.271,3.818389,
13.361,34.327264,
10.450,64.09166,
7.539,-21.80113,
4.629,-287.31406,
1.718,-629.94476,
-1.192,-1004.3114,
-4.103,-823.64127,
-7.013,-471.21392,
-9.924,-2.125,
