,PL1990~1,
Raman shift [1/cm],Intensity,
3014.167,1.25,
3011.256,-0.75,
3008.346,108.03297,
3005.435,123.90371,
3002.525,119.28747,
2999.614,143.67598,
2996.704,133.9397,
2993.793,136.60311,
2990.882,144.77676,
2987.972,133.44171,
2985.061,157.06279,
2982.151,159.50548,
2979.240,157.04847,
2976.329,175.76911,
2973.419,163.28055,
2970.508,171.01667,
2967.598,196.29418,
2964.687,186.80163,
2961.777,183.66012,
2958.866,188.22921,
2955.955,199.55533,
2953.045,202.14932,
2950.134,209.98472,
2947.224,213.73397,
2944.313,228.00285,
2941.403,228.72628,
2938.492,242.83537,
2935.581,234.45985,
2932.671,245.49035,
2929.760,237.09229,
2926.850,241.51842,
2923.939,241.3668,
2921.028,249.93821,
2918.118,244.95151,
2915.207,263.72476,
2912.297,264.26693,
2909.386,266.43978,
2906.476,267.89325,
2903.565,256.08852,
2900.654,262.92037,
2897.744,264.33801,
2894.833,272.89945,
2891.923,265.5192,
2889.012,257.20954,
2886.102,244.1892,
2883.191,263.2264,
2880.280,229.7189,
2877.370,239.16274,
2874.459,211.30043,
2871.549,246.6581,
2868.638,259.25,
2865.727,277.71927,
2862.817,266.89305,
2859.906,269.33832,
2856.996,266.23189,
2854.085,266.72899,
2851.175,281.27113,
2848.264,276.8825,
2845.353,279.20687,
2842.443,273.25696,
2839.532,255.60828,
2836.622,254.55339,
2833.711,257.30181,
2830.801,261.84706,
2827.890,259.16608,
2824.979,266.52193,
2822.069,258.98844,
2819.158,239.67049,
2816.248,250.47974,
2813.337,270.27073,
2810.427,271.08058,
2807.516,266.61687,
2804.605,264.65865,
2801.695,257.76314,
2798.784,271.62369,
2795.874,259.08903,
2792.963,278.17862,
2790.052,263.25343,
2787.142,261.69731,
2784.231,257.37888,
2781.321,272.92993,
2778.410,259.88958,
2775.500,260.05966,
2772.589,257.78823,
2769.678,256.57081,
2766.768,270.61312,
2763.857,278.35404,
2760.947,262.71533,
2758.036,272.4985,
2755.126,278.48291,
2752.215,284.80445,
2749.304,277.3777,
2746.394,270.21368,
2743.483,281.8,
2740.573,272.49111,
2737.662,274.48372,
2734.751,290.62366,
2731.841,278.51922,
2728.930,291.69914,
2726.020,294.36227,
2723.109,269.53909,
2720.199,285.44695,
2717.288,272.53102,
2714.377,290.27886,
2711.467,300.10274,
2708.556,297.154,
2705.646,297.79927,
2702.735,279.9459,
2699.825,304.33726,
2696.914,287.29726,
2694.003,301.09391,
2691.093,296.8216,
2688.182,307.35963,
2685.272,296.80761,
2682.361,306.40284,
2679.450,300.63276,
2676.540,310.82319,
2673.629,295.89122,
2670.719,316.88494,
2667.808,300.36862,
2664.898,302.31518,
2661.987,295.05013,
2659.076,308.97844,
2656.166,302.60497,
2653.255,313.39456,
2650.345,320.89791,
2647.434,314.27887,
2644.524,324.86391,
2641.613,316.70694,
2638.702,316.20266,
2635.792,306.56008,
2632.881,326.98211,
2629.971,321.27009,
2627.060,316.24813,
2624.149,317.46877,
2621.239,323.04299,
2618.328,321.20761,
2615.418,320.58182,
2612.507,336.76378,
2609.597,330.81088,
2606.686,323.3283,
2603.775,322.77382,
2600.865,336.77902,
2597.954,334.48957,
2595.044,338.58924,
2592.133,343.36471,
2589.223,342.7921,
2586.312,349.10426,
2583.401,351.45437,
2580.491,347.07212,
2577.580,343.24835,
2574.670,344.4639,
2571.759,351.90154,
2568.848,354.07321,
2565.938,355.77384,
2563.027,351.98181,
2560.117,357.69861,
2557.206,364.77029,
2554.296,353.85412,
2551.385,366.86996,
2548.474,355.62026,
2545.564,387.14206,
2542.653,354.17617,
2539.743,363.17606,
2536.832,372.27056,
2533.922,365.23423,
2531.011,363.42507,
2528.100,359.11759,
2525.190,366.73688,
2522.279,368.43759,
2519.369,377.9855,
2516.458,379.01912,
2513.548,374.10448,
2510.637,382.63517,
2507.726,373.25,
2504.816,373.81257,
2501.905,363.69939,
2498.995,371.5041,
2496.084,387.57054,
2493.173,375.93411,
2490.263,382.8229,
2487.352,399.70747,
2484.442,391.52193,
2481.531,405.93613,
2478.621,386.21674,
2475.710,390.23466,
2472.799,389.7298,
2469.889,388.43281,
2466.978,397.4045,
2464.068,417.61513,
2461.157,388.71491,
2458.247,401.11762,
2455.336,392.97406,
2452.425,395.59906,
2449.515,404.63669,
2446.604,400.25,
2443.694,396.18009,
2440.783,403.7759,
2437.872,401.19809,
2434.962,420.99655,
2432.051,407.71299,
2429.141,422.77336,
2426.230,430.11962,
2423.320,438.19274,
2420.409,436.06424,
2417.498,414.67695,
2414.588,436.04456,
2411.677,442.42929,
2408.767,445.22638,
2405.856,442.06427,
2402.946,421.29111,
2400.035,425.53405,
2397.124,437.59759,
2394.214,444.3572,
2391.303,445.36043,
2388.393,442.0523,
2385.482,440.16188,
2382.571,441.05985,
2379.661,450.62209,
2376.750,459.93221,
2373.840,462.32814,
2370.929,451.3583,
2368.019,445.79186,
2365.108,449.48298,
2362.197,463.76515,
2359.287,469.86337,
2356.376,462.26057,
2353.466,466.58213,
2350.555,477.13974,
2347.645,469.21026,
2344.734,463.3698,
2341.823,475.01783,
2338.913,464.18432,
2336.002,471.85754,
2333.092,493.81321,
2330.181,501.79474,
2327.270,501.41502,
2324.360,482.224,
2321.449,501.32479,
2318.539,476.80352,
2315.628,497.3835,
2312.718,495.53414,
2309.807,497.41133,
2306.896,511.23435,
2303.986,506.12014,
2301.075,504.1649,
2298.165,506.24046,
2295.254,523.88377,
2292.344,495.14208,
2289.433,509.61682,
2286.522,512.60272,
2283.612,517.60078,
2280.701,530.03922,
2277.791,493.97135,
2274.880,518.31187,
2271.969,540.76852,
2269.059,524.07832,
2266.148,517.43865,
2263.238,529.04536,
2260.327,546.87077,
2257.417,552.87778,
2254.506,555.364,
2251.595,551.41011,
2248.685,529.14811,
2245.774,516.33808,
2242.864,558.96321,
2239.953,567.20176,
2237.043,560.63964,
2234.132,556.84483,
2231.221,558.93478,
2228.311,556.03093,
2225.400,569.33444,
2222.490,573.73537,
2219.579,576.48906,
2216.669,580.19754,
2213.758,587.98856,
2210.847,604.78902,
2207.937,625.5578,
2205.026,633.24941,
2202.116,644.26806,
2199.205,630.25,
2196.294,629.688,
2193.384,657.67004,
2190.473,687.26761,
2187.563,661.63185,
2184.652,741.75612,
2181.742,744.93116,
2178.831,744.12165,
2175.920,776.15347,
2173.010,799.85091,
2170.099,831.1136,
2167.189,847.21412,
2164.278,847.67915,
2161.368,889.53447,
2158.457,941.9385,
2155.546,984.97693,
2152.636,1009.0638,
2149.725,1038.0554,
2146.815,1054.8162,
2143.904,1063.2648,
2140.993,1100.1812,
2138.083,1094.861,
2135.172,1096.1157,
2132.262,1109.1206,
2129.351,1124.6191,
2126.441,1076.3566,
2123.530,1035.5766,
2120.619,972.67217,
2117.709,934.95612,
2114.798,881.76142,
2111.888,841.67604,
2108.977,790.64071,
2106.067,743.91489,
2103.156,750.08703,
2100.245,699.25063,
2097.335,698.44372,
2094.424,681.42041,
2091.514,668.89247,
2088.603,667.77535,
2085.692,670.79645,
2082.782,669.71589,
2079.871,648.53472,
2076.961,658.28133,
2074.050,657.32879,
2071.140,638.92819,
2068.229,644.05337,
2065.318,660.719,
2062.408,645.93912,
2059.497,633.25,
2056.587,649.56369,
2053.676,643.18413,
2050.766,634.71188,
2047.855,622.27848,
2044.944,623.51602,
2042.034,627.61997,
2039.123,642.05135,
2036.213,644.63662,
2033.302,633.96735,
2030.391,614.99634,
2027.481,625.56687,
2024.570,648.42103,
2021.660,667.2448,
2018.749,633.47794,
2015.839,642.74738,
2012.928,662.95134,
2010.017,654.27606,
2007.107,654.34346,
2004.196,634.72611,
2001.286,619.89663,
1998.375,630.5128,
1995.465,639.54286,
1992.554,618.46196,
1989.643,616.21544,
1986.733,642.36052,
1983.822,593.78914,
1980.912,610.38871,
1978.001,618.63962,
1975.090,623.86679,
1972.180,612.42288,
1969.269,643.48001,
1966.359,640.11446,
1963.448,621.78897,
1960.538,622.06151,
1957.627,616.90015,
1954.716,622.07764,
1951.806,603.14421,
1948.895,625.73372,
1945.985,650.99509,
1943.074,608.57833,
1940.164,621.53845,
1937.253,623.69341,
1934.342,612.61739,
1931.432,588.59069,
1928.521,602.38126,
1925.611,606.04228,
1922.700,592.96133,
1919.790,605.75271,
1916.879,596.15674,
1913.968,581.26721,
1911.058,555.48725,
1908.147,600.85146,
1905.237,599.83825,
1902.326,609.94184,
1899.415,602.20729,
1896.505,581.69598,
1893.594,614.06405,
1890.684,610.37426,
1887.773,596.36214,
1884.863,612.10877,
1881.952,597.83774,
1879.041,612.21418,
1876.131,603.96242,
1873.220,580.20125,
1870.310,606.02573,
1867.399,569.87375,
1864.489,605.8731,
1861.578,617.23383,
1858.667,583.5314,
1855.757,611.26074,
1852.846,598.49616,
1849.936,602.90064,
1847.025,608.72447,
1844.114,594.87119,
1841.204,615.13461,
1838.293,619.77245,
1835.383,627.56348,
1832.472,631.61,
1829.562,633.10964,
1826.651,600.95847,
1823.740,618.92056,
1820.830,658.48645,
1817.919,625.53118,
1815.009,623.09987,
1812.098,641.30511,
1809.188,648.87789,
1806.277,616.00248,
1803.366,658.15018,
1800.456,651.42564,
1797.545,639.37046,
1794.635,655.73493,
1791.724,629.37616,
1788.813,651.05103,
1785.903,665.97473,
1782.992,681.17988,
1780.082,632.7106,
1777.171,660.24678,
1774.261,662.12028,
1771.350,689.81175,
1768.439,680.3543,
1765.529,674.34356,
1762.618,688.83437,
1759.708,686.76087,
1756.797,678.64394,
1753.887,679.7121,
1750.976,655.58771,
1748.065,663.74308,
1745.155,691.83058,
1742.244,680.03445,
1739.334,708.22411,
1736.423,712.53226,
1733.512,713.7988,
1730.602,725.97422,
1727.691,720.03807,
1724.781,727.4755,
1721.870,719.78803,
1718.960,721.36116,
1716.049,741.54642,
1713.138,734.13505,
1710.228,741.82327,
1707.317,743.25,
1704.407,748.64038,
1701.496,762.01167,
1698.586,785.42563,
1695.675,803.15705,
1692.764,768.27457,
1689.854,829.39177,
1686.943,801.32922,
1684.033,842.18204,
1681.122,796.06564,
1678.211,848.73606,
1675.301,869.18833,
1672.390,854.44141,
1669.480,918.43451,
1666.569,941.25,
1663.659,942.26261,
1660.748,1001.9388,
1657.837,935.68739,
1654.927,955.9763,
1652.016,987.41636,
1649.106,1035.8168,
1646.195,1097.243,
1643.285,1056.4779,
1640.374,1066.689,
1637.463,1088.1327,
1634.553,1136.8263,
1631.642,1176.1295,
1628.732,1256.3567,
1625.821,1274.3108,
1622.911,1366.7259,
1620.000,1411.6831,
1617.089,1531.8221,
1614.179,1622.6837,
1611.268,1698.4245,
1608.358,1787.9891,
1605.447,1864.8506,
1602.536,1871.1138,
1599.626,1860.2108,
1596.715,1910.0757,
1593.805,1882.1597,
1590.894,1831.5745,
1587.984,1842.5718,
1585.073,1805.2616,
1582.162,1804.9291,
1579.252,1784.1559,
1576.341,1759.2234,
1573.431,1718.224,
1570.520,1760.2276,
1567.610,1751.6614,
1564.699,1728.7494,
1561.788,1711.9825,
1558.878,1628.7322,
1555.967,1603.4813,
1553.057,1555.0264,
1550.146,1527.9373,
1547.235,1507.2273,
1544.325,1492.3811,
1541.414,1455.446,
1538.504,1466.9232,
1535.593,1458.5847,
1532.683,1400.2779,
1529.772,1389.8001,
1526.861,1380.8244,
1523.951,1373.5046,
1521.040,1362.658,
1518.130,1332.7213,
1515.219,1306.1301,
1512.309,1300.0293,
1509.398,1290.4648,
1506.487,1292.6987,
1503.577,1298.9561,
1500.666,1291.2061,
1497.756,1246.2249,
1494.845,1281.7297,
1491.934,1269.1335,
1489.024,1233.5212,
1486.113,1194.2342,
1483.203,1170.8221,
1480.292,1161.4619,
1477.382,1153.784,
1474.471,1092.3944,
1471.560,1097.4713,
1468.650,1111.0329,
1465.739,1092.7543,
1462.829,1096.1704,
1459.918,1113.4324,
1457.008,1121.7885,
1454.097,1119.6284,
1451.186,1113.8341,
1448.276,1107.7155,
1445.365,1095.3566,
1442.455,1099.9095,
1439.544,1117.2572,
1436.633,1086.0663,
1433.723,1113.639,
1430.812,1079.5507,
1427.902,1058.1373,
1424.991,1053.3984,
1422.081,1014.716,
1419.170,1017.2984,
1416.259,1036.0714,
1413.349,973.03355,
1410.438,978.54141,
1407.528,1008.9185,
1404.617,1007.5074,
1401.707,977.52244,
1398.796,969.10661,
1395.885,1012.6676,
1392.975,1052.2915,
1390.064,1024.1199,
1387.154,959.55714,
1384.243,892.04195,
1381.332,865.56996,
1378.422,898.57796,
1375.511,1021.2963,
1372.601,1094.2109,
1369.690,1145.6828,
1366.780,1188.0995,
1363.869,1179.0881,
1360.958,1199.3189,
1358.048,1213.8433,
1355.137,1247.3681,
1352.227,1273.1323,
1349.316,1304.7999,
1346.406,1373.4259,
1343.495,1408.2117,
1340.584,1438.9287,
1337.674,1444.7589,
1334.763,1590.3303,
1331.853,1802.6662,
1328.942,1725.8614,
1326.032,1573.332,
1323.121,1569.4066,
1320.210,1617.2075,
1317.300,1598.4751,
1314.389,1594.8616,
1311.479,1604.0171,
1308.568,1603.336,
1305.657,1631.3738,
1302.747,1643.3486,
1299.836,1684.0412,
1296.926,1723.3348,
1294.015,1832.7343,
1291.105,1794.984,
1288.194,1870.7218,
1285.283,1938.5062,
1282.373,1997.117,
1279.462,2040.5633,
1276.552,2030.7696,
1273.641,2028.7205,
1270.731,2059.3724,
1267.820,2025.6125,
1264.909,2037.5352,
1261.999,2005.5801,
1259.088,2069.4286,
1256.178,2007.3029,
1253.267,1981.6733,
1250.356,1915.6199,
1247.446,1887.4235,
1244.535,1869.4197,
1241.625,1822.7982,
1238.714,1781.9386,
1235.804,1763.5559,
1232.893,1703.9942,
1229.982,1728.8701,
1227.072,1688.1311,
1224.161,1671.8019,
1221.251,1568.7413,
1218.340,1521.9416,
1215.430,1510.2952,
1212.519,1508.5138,
1209.608,1520.8181,
1206.698,1541.0586,
1203.787,1551.5867,
1200.877,1565.4201,
1197.966,1584.3025,
1195.055,1604.8747,
1192.145,1669.8602,
1189.234,1722.6896,
1186.324,1733.1584,
1183.413,1749.7729,
1180.503,1786.0069,
1177.592,1794.9771,
1174.681,1773.363,
1171.771,1765.9725,
1168.860,1710.6009,
1165.950,1672.1921,
1163.039,1652.3772,
1160.129,1647.25,
1157.218,1641.4812,
1154.307,1611.1334,
1151.397,1573.1175,
1148.486,1582.4489,
1145.576,1587.5539,
1142.665,1548.4857,
1139.754,1557.4544,
1136.844,1507.7273,
1133.933,1485.8365,
1131.023,1495.6919,
1128.112,1498.394,
1125.202,1478.2114,
1122.291,1466.3942,
1119.380,1515.9642,
1116.470,1486.8407,
1113.559,1514.18,
1110.649,1511.4628,
1107.738,1520.7887,
1104.828,1518.0221,
1101.917,1513.8898,
1099.006,1553.8687,
1096.096,1534.3251,
1093.185,1551.8851,
1090.275,1605.0433,
1087.364,1560.3018,
1084.453,1533.1251,
1081.543,1537.5087,
1078.632,1545.5036,
1075.722,1549.5664,
1072.811,1555.8085,
1069.901,1563.6678,
1066.990,1529.4917,
1064.079,1545.7485,
1061.169,1591.4927,
1058.258,1614.5917,
1055.348,1626.1815,
1052.437,1662.0345,
1049.527,1625.8206,
1046.616,1640.5907,
1043.705,1647.6454,
1040.795,1660.1046,
1037.884,1665.2385,
1034.974,1657.174,
1032.063,1649.5422,
1029.153,1662.8346,
1026.242,1659.3747,
1023.331,1680.9153,
1020.421,1678.9761,
1017.510,1695.8597,
1014.600,1727.3213,
1011.689,1765.2139,
1008.778,1798.3593,
1005.868,1759.1535,
1002.957,1859.8149,
1000.047,1937.13,
997.136,1972.5838,
994.226,2007.1265,
991.315,2010.9357,
988.404,1939.2784,
985.494,1902.9431,
982.583,1889.2382,
979.673,1858.7158,
976.762,1823.5917,
973.852,1812.4381,
970.941,1838.0328,
968.030,1871.984,
965.120,1825.2035,
962.209,1814.1204,
959.299,1853.3285,
956.388,1864.0904,
953.477,1857.1949,
950.567,1868.8897,
947.656,1907.9104,
944.746,1890.0697,
941.835,1873.8635,
938.925,1880.1208,
936.014,1891.8257,
933.103,1882.0077,
930.193,1842.6617,
927.282,1805.4874,
924.372,1828.3188,
921.461,1836.4048,
918.551,1792.3563,
915.640,1768.5988,
912.729,1778.2981,
909.819,1764.0225,
906.908,1716.8467,
903.998,1734.9295,
901.087,1770.8023,
898.176,1796.3623,
895.266,1798.2672,
892.355,1788.59,
889.445,1817.1251,
886.534,1859.8285,
883.624,1874.3055,
880.713,1885.9261,
877.802,1885.2178,
874.892,1860.8961,
871.981,1828.5656,
869.071,1841.9323,
866.160,1835.2805,
863.250,1866.3716,
860.339,1891.8065,
857.428,1868.7715,
854.518,1820.7314,
851.607,1837.3728,
848.697,1824.4302,
845.786,1816.2121,
842.875,1825.0374,
839.965,1834.4488,
837.054,1794.5663,
834.144,1822.7439,
831.233,1816.9175,
828.323,1800.864,
825.412,1792.1818,
822.501,1804.7396,
819.591,1851.8443,
816.680,1770.7178,
813.770,1741.479,
810.859,1724.0665,
807.949,1723.5818,
805.038,1753.9823,
802.127,1693.894,
799.217,1716.5749,
796.306,1726.8176,
793.396,1711.288,
790.485,1686.0394,
787.574,1685.9039,
784.664,1703.1262,
781.753,1729.0635,
778.843,1730.9384,
775.932,1719.0895,
773.022,1717.2931,
770.111,1736.915,
767.200,1736.7274,
764.290,1714.8685,
761.379,1692.5543,
758.469,1696.4801,
755.558,1749.5692,
752.648,1726.7603,
749.737,1677.8603,
746.826,1650.054,
743.916,1610.9053,
741.005,1509.1362,
738.095,1393.0378,
735.184,1236.9531,
732.274,1206.019,
729.363,1283.7193,
726.452,1418.7314,
723.542,1570.8973,
720.631,1614.4188,
717.721,1659.0479,
714.810,1697.1931,
711.899,1708.6559,
708.989,1667.5027,
706.078,1691.2891,
703.168,1675.39,
700.257,1655.8866,
697.347,1650.8584,
694.436,1659.4862,
691.525,1631.3531,
688.615,1609.5272,
685.704,1619.2445,
682.794,1633.2501,
679.883,1597.7546,
676.973,1608.9738,
674.062,1611.8881,
671.151,1619.2633,
668.241,1635.6357,
665.330,1659.2122,
662.420,1658.4135,
659.509,1639.837,
656.598,1646.9927,
653.688,1671.8603,
650.777,1676.98,
647.867,1669.0167,
644.956,1695.1118,
642.046,1682.3989,
639.135,1639.6212,
636.224,1637.3495,
633.314,1657.1979,
630.403,1657.5203,
627.493,1651.9456,
624.582,1665.3774,
621.672,1742.2009,
618.761,1714.8524,
615.850,1704.148,
612.940,1719.9852,
610.029,1752.1185,
607.119,1751.3288,
604.208,1731.3696,
601.297,1743.6892,
598.387,1762.8168,
595.476,1758.9529,
592.566,1755.8046,
589.655,1750.7148,
586.745,1749.1179,
583.834,1729.3895,
580.923,1655.3543,
578.013,1672.6184,
575.102,1662.3367,
572.192,1653.751,
569.281,1664.7176,
566.371,1700.7183,
563.460,1764.9203,
560.549,1781.479,
557.639,1767.6844,
554.728,1755.4471,
551.818,1758.5683,
548.907,1769.61,
545.996,1773.5285,
543.086,1770.5921,
540.175,1776.8213,
537.265,1809.1183,
534.354,1809.2094,
531.444,1801.1512,
528.533,1811.3052,
525.622,1812.0811,
522.712,1806.7892,
519.801,1829.9816,
516.891,1876.3801,
513.980,1891.866,
511.070,1902.4065,
508.159,1919.6219,
505.248,1942.0112,
502.338,1965.5663,
499.427,1976.3719,
496.517,2014.3207,
493.606,2034.8567,
490.695,2019.4684,
487.785,1999.4538,
484.874,2040.1932,
481.964,2065.9111,
479.053,2059.9764,
476.143,2025.4181,
473.232,2023.25,
470.321,2011.5722,
467.411,1998.4902,
464.500,1996.25,
461.590,1996.25,
458.679,2014.4097,
455.769,2009.0859,
452.858,1968.8291,
449.947,2003.206,
447.037,2008.4297,
444.126,1998.3773,
441.216,1986.8218,
438.305,2007.3939,
435.395,2010.25,
432.484,1986.9119,
429.573,1962.2376,
426.663,1996.4439,
423.752,1971.3532,
420.842,1948.2895,
417.931,1952.703,
415.020,2014.13,
412.110,2003.081,
409.199,2026.6118,
406.289,2061.1696,
403.378,2076.2987,
400.468,2090.6626,
397.557,2072.6274,
394.646,2042.6309,
391.736,2018.0669,
388.825,1981.1096,
385.915,1955.3486,
383.004,1942.8211,
380.094,1948.6647,
377.183,2035.1995,
374.272,2129.2687,
371.362,2187.0727,
368.451,2182.8367,
365.541,2159.5701,
362.630,2206.2353,
359.719,2238.4113,
356.809,2212.0624,
353.898,2242.0143,
350.988,2254.5899,
348.077,2241.6967,
345.167,2201.7419,
342.256,2211.4538,
339.345,2247.1988,
336.435,2282.357,
333.524,2297.7333,
330.614,2281.3398,
327.703,2277.7902,
324.793,2276.4143,
321.882,2268.3059,
318.971,2291.3526,
316.061,2305.5981,
313.150,2313.8667,
310.240,2319.0615,
307.329,2378.5649,
304.418,2418.6643,
301.508,2424.4653,
298.597,2372.6362,
295.687,2362.1548,
292.776,2413.8336,
289.866,2512.6694,
286.955,2619.0459,
284.044,2747.4674,
281.134,2863.6091,
278.223,2962.9382,
275.313,3056.5188,
272.402,3160.481,
269.492,3279.5509,
266.581,3400.7832,
263.670,3338.2929,
260.760,3389.727,
257.849,3475.3199,
254.939,3538.4338,
252.028,3604.396,
249.117,3583.5673,
246.207,3528.8712,
243.296,3527.4071,
240.386,3548.1457,
237.475,3545.8035,
234.565,3507.225,
231.654,3399.1282,
228.743,3326.7683,
225.833,3269.2122,
222.922,3219.8571,
220.012,3189.9863,
217.101,3136.5763,
214.191,3081.1962,
211.280,3047.7329,
208.369,3003.5356,
205.459,2983.25,
202.548,2980.9937,
199.638,2967.932,
196.727,3000.9754,
193.816,3045.0103,
190.906,3083.6597,
187.995,3009.8092,
185.085,3016.877,
182.174,3048.157,
179.264,3029.3651,
176.353,3050.318,
173.442,3060.7121,
170.532,3055.746,
167.621,3051.4201,
164.711,3012.9347,
161.800,2943.3684,
158.890,2838.2881,
155.979,2651.8014,
153.068,2450.8004,
150.158,2225.2152,
147.247,1919.3675,
144.337,1583.5831,
141.426,1242.3419,
138.516,906.11988,
135.605,656.59398,
132.694,452.68672,
129.784,294.85319,
126.873,200.45606,
123.963,132.87904,
121.052,87.751323,
118.141,66.334263,
115.231,51.328023,
112.320,44.826364,
109.410,44.659066,
106.499,46.795531,
103.589,36.605165,
100.678,25.262161,
97.767,17.441848,
94.857,17.25,
91.946,15.637557,
89.036,14.717673,
86.125,23.937341,
83.215,22.002637,
80.304,18.489433,
77.393,19.197603,
74.483,12.69865,
71.572,10.699408,
68.662,12.903663,
65.751,9.3714071,
62.840,11.621914,
59.930,14.126283,
57.019,9.8957909,
54.109,8.0556783,
51.198,9.0596557,
48.288,13.25,
45.377,13.25,
42.466,15.723316,
39.556,18.098814,
36.645,11.076912,
33.735,13.923236,
30.824,17.145565,
27.914,13.639689,
25.003,12.627363,
22.092,13.864523,
19.182,17.913603,
16.271,38.198817,
13.361,189.12425,
10.450,471.42606,
7.539,972.11817,
4.629,1259.7291,
1.718,1263.5649,
-1.192,795.08381,
-4.103,430.19992,
-7.013,163.02083,
-9.924,2.25,
