,PL4EEC~1,
Wavenumbers [1/cm],Intensity,
3014.167,-0.625,
3011.256,1.8249893,
3008.346,29.345984,
3005.435,13.45274,
3002.525,36.395134,
2999.614,37.850327,
2996.704,30.51624,
2993.793,34.879608,
2990.882,40.41312,
2987.972,46.319505,
2985.061,41.138554,
2982.151,45.732981,
2979.240,34.756165,
2976.329,43.36954,
2973.419,55.606067,
2970.508,54.47494,
2967.598,42.944879,
2964.687,37.240489,
2961.777,38.563016,
2958.866,62.713777,
2955.955,61.445789,
2953.045,66.493584,
2950.134,66.427448,
2947.224,49.001314,
2944.313,70.82443,
2941.403,63.553377,
2938.492,70.375,
2935.581,78.122223,
2932.671,65.297772,
2929.760,72.959605,
2926.850,71.165977,
2923.939,69.295565,
2921.028,82.016324,
2918.118,93.953082,
2915.207,78.963615,
2912.297,81.366537,
2909.386,81.214404,
2906.476,74.801996,
2903.565,67.842405,
2900.654,76.43364,
2897.744,75.136128,
2894.833,58.849181,
2891.923,60.753199,
2889.012,62.415463,
2886.102,63.354733,
2883.191,48.387272,
2880.280,86.336724,
2877.370,-9.520039,
2874.459,-179.70025,
2871.549,-83.782167,
2868.638,22.471856,
2865.727,39.274958,
2862.817,58.560827,
2859.906,46.768155,
2856.996,72.343299,
2854.085,75.853985,
2851.175,65.877963,
2848.264,71.100337,
2845.353,55.935743,
2842.443,74.986141,
2839.532,89.434555,
2836.622,76.285155,
2833.711,85.582227,
2830.801,67.79264,
2827.890,69.523626,
2824.979,84.658991,
2822.069,83.295395,
2819.158,77.895217,
2816.248,89.340262,
2813.337,92.972575,
2810.427,73.066454,
2807.516,82.058437,
2804.605,82.579327,
2801.695,82.809209,
2798.784,62.001308,
2795.874,75.665244,
2792.963,72.017872,
2790.052,92.37071,
2787.142,81.546193,
2784.231,82.892098,
2781.321,70.43786,
2778.410,72.619922,
2775.500,80.501894,
2772.589,72.491961,
2769.678,97.303323,
2766.768,87.823529,
2763.857,96.479045,
2760.947,80.840327,
2758.036,84.693528,
2755.126,87.276712,
2752.215,89.524928,
2749.304,86.991903,
2746.394,89.010073,
2743.483,94.674986,
2740.573,93.826312,
2737.662,86.704883,
2734.751,78.792559,
2731.841,93.105776,
2728.930,67.764699,
2726.020,89.155671,
2723.109,78.962835,
2720.199,98.122032,
2717.288,88.426105,
2714.377,85.441878,
2711.467,91.981593,
2708.556,90.896263,
2705.646,87.994709,
2702.735,105.02963,
2699.825,88.973164,
2696.914,103.80412,
2694.003,105.88882,
2691.093,108.03565,
2688.182,107.90241,
2685.272,109.54286,
2682.361,92.710153,
2679.450,90.881206,
2676.540,84.456296,
2673.629,83.397449,
2670.719,93.929542,
2667.808,96.81272,
2664.898,108.99854,
2661.987,101.64171,
2659.076,113.84913,
2656.166,92.794886,
2653.255,97.449829,
2650.345,100.8632,
2647.434,93.717955,
2644.524,100.46374,
2641.613,106.06073,
2638.702,118.18563,
2635.792,103.93731,
2632.881,111.72608,
2629.971,112.88505,
2627.060,103.70688,
2624.149,108.94376,
2621.239,111.89575,
2618.328,90.926034,
2615.418,104.03864,
2612.507,112.20106,
2609.597,108.20135,
2606.686,119.4011,
2603.775,113.93452,
2600.865,115.43303,
2597.954,116.09371,
2595.044,122.11547,
2592.133,95.591462,
2589.223,111.66449,
2586.312,122.54585,
2583.401,114.39687,
2580.491,122.24995,
2577.580,118.33539,
2574.670,101.01669,
2571.759,116.72346,
2568.848,109.61254,
2565.938,122.27977,
2563.027,114.42277,
2560.117,107.45912,
2557.206,111.27906,
2554.296,128.03175,
2551.385,124.62298,
2548.474,134.3382,
2545.564,119.03977,
2542.653,134.54278,
2539.743,138.49823,
2536.832,111.76191,
2533.922,133.28038,
2531.011,132.59956,
2528.100,131.44812,
2525.190,130.23361,
2522.279,130.70329,
2519.369,134.96005,
2516.458,116.03223,
2513.548,132.88371,
2510.637,137.375,
2507.726,138.93634,
2504.816,132.8113,
2501.905,122.94024,
2498.995,132.61388,
2496.084,139.1346,
2493.173,132.11142,
2490.263,146.10498,
2487.352,145.95767,
2484.442,134.09663,
2481.531,128.375,
2478.621,136.05275,
2475.710,148.34433,
2472.799,140.18222,
2469.889,132.22265,
2466.978,133.76679,
2464.068,139.07873,
2461.157,141.22003,
2458.247,138.93385,
2455.336,139.07754,
2452.425,145.39859,
2449.515,156.25234,
2446.604,147.97183,
2443.694,136.11925,
2440.783,145.47185,
2437.872,142.92197,
2434.962,150.54552,
2432.051,139.17761,
2429.141,154.49256,
2426.230,148.96172,
2423.320,140.68925,
2420.409,147.29157,
2417.498,164.94805,
2414.588,149.30285,
2411.677,132.84116,
2408.767,145.375,
2405.856,154.7559,
2402.946,158.5296,
2400.035,150.87969,
2397.124,154.05948,
2394.214,166.4018,
2391.303,157.94411,
2388.393,148.64243,
2385.482,157.89032,
2382.571,133.2489,
2379.661,130.39802,
2376.750,150.63856,
2373.840,160.3562,
2370.929,155.46164,
2368.019,145.34972,
2365.108,164.44568,
2362.197,160.75037,
2359.287,153.99672,
2356.376,183.31865,
2353.466,182.81511,
2350.555,168.42486,
2347.645,161.1909,
2344.734,163.52708,
2341.823,176.176,
2338.913,176.24364,
2336.002,173.7912,
2333.092,171.73158,
2330.181,168.67421,
2327.270,169.48501,
2324.360,158.87024,
2321.449,176.20492,
2318.539,175.07838,
2315.628,185.07244,
2312.718,175.65914,
2309.807,182.375,
2306.896,180.35935,
2303.986,174.81007,
2301.075,178.4601,
2298.165,177.98072,
2295.254,151.93512,
2292.344,180.53267,
2289.433,174.65681,
2286.522,179.3436,
2283.612,197.7551,
2280.701,203.56781,
2277.791,190.33493,
2274.880,188.94701,
2271.969,187.375,
2269.059,196.31234,
2266.148,178.57033,
2263.238,176.57191,
2260.327,176.75423,
2257.417,174.06833,
2254.506,197.22972,
2251.595,195.24051,
2248.685,203.84225,
2245.774,203.9685,
2242.864,189.31016,
2239.953,190.65082,
2237.043,200.71285,
2234.132,197.76724,
2231.221,199.48098,
2228.311,198.89562,
2225.400,205.14984,
2222.490,199.60306,
2219.579,209.7169,
2216.669,202.41316,
2213.758,195.67958,
2210.847,198.79313,
2207.937,212.80495,
2205.026,214.48666,
2202.116,202.52149,
2199.205,219.21194,
2196.294,223.06902,
2193.384,220.92751,
2190.473,224.09096,
2187.563,268.346,
2184.652,258.91092,
2181.742,234.35165,
2178.831,231.6085,
2175.920,246.28939,
2173.010,248.375,
2170.099,260.50695,
2167.189,255.36782,
2164.278,254.08153,
2161.368,247.51844,
2158.457,245.54205,
2155.546,270.02598,
2152.636,259.56122,
2149.725,259.69714,
2146.815,278.77436,
2143.904,261.68354,
2140.993,280.27979,
2138.083,271.91604,
2135.172,283.75325,
2132.262,292.74208,
2129.351,296.17159,
2126.441,294.84101,
2123.530,271.74539,
2120.619,300.52195,
2117.709,267.937,
2114.798,252.53278,
2111.888,256.66288,
2108.977,254.73262,
2106.067,235.62367,
2103.156,237.17335,
2100.245,212.39257,
2097.335,242.54254,
2094.424,249.51907,
2091.514,230.31325,
2088.603,240.20452,
2085.692,237.51252,
2082.782,243.20229,
2079.871,247.66088,
2076.961,248.375,
2074.050,257.25985,
2071.140,237.94951,
2068.229,245.66017,
2065.318,233.05425,
2062.408,228.51117,
2059.497,245.22623,
2056.587,250.31706,
2053.676,235.5756,
2050.766,255.52746,
2047.855,225.48892,
2044.944,231.10416,
2042.034,245.21897,
2039.123,250.29419,
2036.213,237.51053,
2033.302,257.46156,
2030.391,255.54514,
2027.481,261.71628,
2024.570,251.5183,
2021.660,218.26714,
2018.749,251.91911,
2015.839,240.50951,
2012.928,246.43205,
2010.017,251.36305,
2007.107,236.84231,
2004.196,241.64878,
2001.286,246.87674,
1998.375,253.59153,
1995.465,241.3625,
1992.554,255.0278,
1989.643,259.30587,
1986.733,234.26798,
1983.822,235.05521,
1980.912,246.36469,
1978.001,228.12082,
1975.090,234.14142,
1972.180,228.54923,
1969.269,223.09344,
1966.359,225.94246,
1963.448,231.60222,
1960.538,251.60519,
1957.627,236.65053,
1954.716,221.74845,
1951.806,223.5176,
1948.895,240.14633,
1945.985,211.72794,
1943.074,237.85105,
1940.164,224.61523,
1937.253,207.64032,
1934.342,209.44345,
1931.432,238.73462,
1928.521,247.23165,
1925.611,243.375,
1922.700,225.17197,
1919.790,225.54257,
1916.879,208.70024,
1913.968,230.34672,
1911.058,270.46808,
1908.147,230.83633,
1905.237,236.80145,
1902.326,221.05648,
1899.415,210.48597,
1896.505,192.06772,
1893.594,203.09153,
1890.684,209.40124,
1887.773,208.65915,
1884.863,231.13126,
1881.952,259.29979,
1879.041,245.68029,
1876.131,225.34494,
1873.220,218.01658,
1870.310,253.57673,
1867.399,241.6149,
1864.489,215.20535,
1861.578,260.375,
1858.667,254.94689,
1855.757,224.17214,
1852.846,224.35962,
1849.936,220.81643,
1847.025,225.96625,
1844.114,227.66446,
1841.204,255.78759,
1838.293,256.38498,
1835.383,253.1075,
1832.472,263.08457,
1829.562,252.40494,
1826.651,246.79389,
1823.740,276.76586,
1820.830,251.10696,
1817.919,250.14752,
1815.009,241.24396,
1812.098,248.35137,
1809.188,285.01833,
1806.277,226.74718,
1803.366,221.558,
1800.456,233.47414,
1797.545,251.72964,
1794.635,247.43903,
1791.724,258.40417,
1788.813,248.38143,
1785.903,261.34016,
1782.992,237.30197,
1780.082,216.90178,
1777.171,139.02166,
1774.261,90.290523,
1771.350,179.69902,
1768.439,257.5892,
1765.529,267.73795,
1762.618,272.07127,
1759.708,260.42914,
1756.797,270.49621,
1753.887,308.78608,
1750.976,313.65772,
1748.065,294.39958,
1745.155,300.34263,
1742.244,283.55167,
1739.334,280.64559,
1736.423,324.23476,
1733.512,304.72043,
1730.602,296.61112,
1727.691,275.34518,
1724.781,293.54545,
1721.870,310.83697,
1718.960,306.79714,
1716.049,295.3073,
1713.138,301.06996,
1710.228,308.46708,
1707.317,309.375,
1704.407,321.95256,
1701.496,332.49048,
1698.586,331.52703,
1695.675,330.43929,
1692.764,338.8955,
1689.854,307.80412,
1686.943,348.89107,
1684.033,331.84689,
1681.122,364.79726,
1678.211,349.52728,
1675.301,361.338,
1672.390,306.47669,
1669.480,340.57555,
1666.569,365.6797,
1663.659,389.326,
1660.748,386.60638,
1657.837,398.28752,
1654.927,394.79672,
1652.016,412.03481,
1649.106,398.30156,
1646.195,396.38201,
1643.285,438.4004,
1640.374,480.89069,
1637.463,411.93345,
1634.553,443.24689,
1631.642,501.75503,
1628.732,536.34537,
1625.821,531.38023,
1622.911,539.32992,
1620.000,607.50569,
1617.089,649.53918,
1614.179,690.21876,
1611.268,737.59046,
1608.358,727.93688,
1605.447,799.97559,
1602.536,819.28519,
1599.626,867.29158,
1596.715,824.17974,
1593.805,791.65071,
1590.894,789.25567,
1587.984,790.24109,
1585.073,760.59641,
1582.162,733.66796,
1579.252,732.6482,
1576.341,724.5633,
1573.431,709.06104,
1570.520,698.49561,
1567.610,674.02171,
1564.699,659.1247,
1561.788,662.00875,
1558.878,639.79553,
1555.967,623.08968,
1553.057,608.25443,
1550.146,606.29135,
1547.235,592.25553,
1544.325,585.46479,
1541.414,582.35426,
1538.504,575.34739,
1535.593,572.42734,
1532.683,569.45621,
1529.772,563.20008,
1526.861,552.75404,
1523.951,554.82941,
1521.040,561.5513,
1518.130,570.93973,
1515.219,626.45425,
1512.309,638.00558,
1509.398,594.58983,
1506.487,591.75315,
1503.577,575.81586,
1500.666,576.1365,
1497.756,562.723,
1494.845,613.85417,
1491.934,577.28996,
1489.024,551.30265,
1486.113,575.40982,
1483.203,537.40745,
1480.292,511.16221,
1477.382,565.56887,
1474.471,548.67984,
1471.560,508.17136,
1468.650,474.51024,
1465.739,488.07314,
1462.829,525.84451,
1459.918,534.64013,
1457.008,542.59057,
1454.097,537.88868,
1451.186,535.08873,
1448.276,553.25768,
1445.365,535.51718,
1442.455,510.15586,
1439.544,474.24607,
1436.633,497.18931,
1433.723,454.2202,
1430.812,519.53311,
1427.902,471.2848,
1424.991,467.49375,
1422.081,471.96239,
1419.170,481.0156,
1416.259,505.05677,
1413.349,502.06735,
1410.438,476.28227,
1407.528,458.6501,
1404.617,467.29182,
1401.707,464.71631,
1398.796,433.60582,
1395.885,410.78839,
1392.975,412.43754,
1390.064,423.20428,
1387.154,430.82267,
1384.243,388.2719,
1381.332,394.60837,
1378.422,372.27839,
1375.511,370.40483,
1372.601,384.19856,
1369.690,453.09557,
1366.780,442.99005,
1363.869,475.15181,
1360.958,492.67608,
1358.048,484.2887,
1355.137,521.00678,
1352.227,545.73439,
1349.316,543.53933,
1346.406,572.8033,
1343.495,566.18853,
1340.584,522.08853,
1337.674,571.8038,
1334.763,576.04542,
1331.853,593.66281,
1328.942,557.01751,
1326.032,610.28407,
1323.121,570.76653,
1320.210,595.65985,
1317.300,609.11175,
1314.389,621.36146,
1311.479,633.56921,
1308.568,636.71397,
1305.657,645.78915,
1302.747,638.10203,
1299.836,690.76327,
1296.926,735.60588,
1294.015,719.05805,
1291.105,702.52525,
1288.194,745.90335,
1285.283,757.375,
1282.373,745.35161,
1279.462,769.11951,
1276.552,807.38293,
1273.641,812.88484,
1270.731,798.55112,
1267.820,787.041,
1264.909,736.24352,
1261.999,763.94226,
1259.088,752.08468,
1256.178,802.76238,
1253.267,768.41205,
1250.356,743.86168,
1247.446,733.68118,
1244.535,705.59828,
1241.625,698.13791,
1238.714,717.52504,
1235.804,703.24878,
1232.893,708.24711,
1229.982,720.36309,
1227.072,690.48779,
1224.161,696.78004,
1221.251,690.92991,
1218.340,646.91503,
1215.430,644.74481,
1212.519,642.81186,
1209.608,619.66625,
1206.698,619.14098,
1203.787,619.66143,
1200.877,611.48942,
1197.966,629.4726,
1195.055,666.21144,
1192.145,675.38037,
1189.234,723.08805,
1186.324,772.3773,
1183.413,776.03488,
1180.503,761.4456,
1177.592,769.42542,
1174.681,752.70035,
1171.771,727.25137,
1168.860,721.89283,
1165.950,715.73097,
1163.039,722.75583,
1160.129,689.80398,
1157.218,700.4302,
1154.307,750.87678,
1151.397,759.16581,
1148.486,734.56812,
1145.576,773.91019,
1142.665,740.1695,
1139.754,763.41112,
1136.844,767.97439,
1133.933,750.36632,
1131.023,718.07488,
1128.112,695.73209,
1125.202,703.37981,
1122.291,724.74831,
1119.380,720.28839,
1116.470,711.4631,
1113.559,681.76479,
1110.649,683.19768,
1107.738,690.51827,
1104.828,685.30131,
1101.917,678.03783,
1099.006,687.88007,
1096.096,703.08492,
1093.185,682.01286,
1090.275,703.84384,
1087.364,697.02479,
1084.453,707.124,
1081.543,704.03727,
1078.632,689.07592,
1075.722,698.81082,
1072.811,696.80937,
1069.901,702.92219,
1066.990,726.81661,
1064.079,739.86065,
1061.169,714.65534,
1058.258,702.38562,
1055.348,717.66896,
1052.437,711.15951,
1049.527,675.14703,
1046.616,695.1301,
1043.705,708.16571,
1040.795,715.84453,
1037.884,712.81189,
1034.974,698.43686,
1032.063,692.67468,
1029.153,724.24452,
1026.242,739.81374,
1023.331,712.04348,
1020.421,739.83587,
1017.510,743.72976,
1014.600,740.45016,
1011.689,744.23923,
1008.778,736.22839,
1005.868,735.39044,
1002.957,737.11115,
1000.047,754.11901,
997.136,792.09059,
994.226,812.14427,
991.315,808.15718,
988.404,797.75487,
985.494,758.5668,
982.583,767.13236,
979.673,751.54713,
976.762,734.22006,
973.852,733.44716,
970.941,739.11481,
968.030,732.27675,
965.120,737.4824,
962.209,763.05866,
959.299,761.00076,
956.388,753.33532,
953.477,744.8537,
950.567,751.96903,
947.656,789.59513,
944.746,783.64823,
941.835,778.51612,
938.925,784.61355,
936.014,784.83422,
933.103,775.0193,
930.193,761.77695,
927.282,754.0918,
924.372,730.41481,
921.461,742.10301,
918.551,739.82287,
915.640,722.05163,
912.729,715.03583,
909.819,739.81813,
906.908,728.02418,
903.998,724.98891,
901.087,718.64644,
898.176,736.84878,
895.266,767.35778,
892.355,771.85199,
889.445,715.6211,
886.534,747.935,
883.624,753.70217,
880.713,756.43714,
877.802,756.59587,
874.892,723.43031,
871.981,595.6464,
869.071,437.75337,
866.160,494.55008,
863.250,604.71499,
860.339,683.26207,
857.428,714.60128,
854.518,747.68998,
851.607,689.44512,
848.697,623.66181,
845.786,559.97151,
842.875,581.00185,
839.965,694.9966,
837.054,734.54246,
834.144,749.46001,
831.233,763.0409,
828.323,767.88043,
825.412,769.9507,
822.501,779.84319,
819.591,804.63517,
816.680,797.36217,
813.770,769.68839,
810.859,754.82624,
807.949,749.31156,
805.038,734.47014,
802.127,743.52454,
799.217,722.01327,
796.306,713.80743,
793.396,719.99339,
790.485,733.11255,
787.574,742.59656,
784.664,722.09375,
781.753,735.1496,
778.843,745.33533,
775.932,758.17729,
773.022,775.02074,
770.111,727.6012,
767.200,733.51075,
764.290,735.21924,
761.379,741.46462,
758.469,746.93406,
755.558,727.73652,
752.648,773.35432,
749.737,738.63812,
746.826,709.31413,
743.916,705.44647,
741.005,707.32247,
738.095,653.7386,
735.184,583.73469,
732.274,537.865,
729.363,537.53144,
726.452,581.8533,
723.542,628.79811,
720.631,693.30266,
717.721,703.20947,
714.810,716.93168,
711.899,748.30569,
708.989,739.42951,
706.078,743.38151,
703.168,729.19448,
700.257,731.33959,
697.347,750.11395,
694.436,756.22225,
691.525,750.59561,
688.615,731.76549,
685.704,730.00887,
682.794,747.226,
679.883,767.31213,
676.973,788.14777,
674.062,781.5276,
671.151,750.82852,
668.241,727.71369,
665.330,752.82454,
662.420,720.07654,
659.509,724.16883,
656.598,739.8955,
653.688,751.91491,
650.777,750.96905,
647.867,768.48827,
644.956,751.3239,
642.046,701.89036,
639.135,655.19601,
636.224,673.62566,
633.314,723.64379,
630.403,735.78379,
627.493,746.12909,
624.582,754.89957,
621.672,716.88385,
618.761,747.29245,
615.850,758.47698,
612.940,771.32871,
610.029,792.13912,
607.119,778.7154,
604.208,810.74562,
601.297,829.36018,
598.387,820.61666,
595.476,784.2209,
592.566,761.39592,
589.655,798.19208,
586.745,831.65818,
583.834,838.90914,
580.923,812.26601,
578.013,794.21712,
575.102,783.06553,
572.192,780.87599,
569.281,789.73359,
566.371,813.99493,
563.460,799.44376,
560.549,806.99336,
557.639,830.70046,
554.728,851.89686,
551.818,828.48738,
548.907,803.26437,
545.996,809.0369,
543.086,829.31582,
540.175,787.26895,
537.265,812.62189,
534.354,809.82935,
531.444,801.11219,
528.533,815.47192,
525.622,844.95792,
522.712,836.81292,
519.801,810.95415,
516.891,785.31403,
513.980,789.95981,
511.070,783.33153,
508.159,809.02898,
505.248,834.86703,
502.338,818.62351,
499.427,827.11366,
496.517,838.99115,
493.606,832.91533,
490.695,812.90105,
487.785,859.85828,
484.874,849.92695,
481.964,820.85692,
479.053,795.5813,
476.143,804.79685,
473.232,813.28844,
470.321,805.18374,
467.411,796.16086,
464.500,804.72408,
461.590,818.5074,
458.679,841.08502,
455.769,848.81346,
452.858,834.2043,
449.947,851.77472,
447.037,825.03697,
444.126,813.87803,
441.216,828.375,
438.305,828.375,
435.395,834.27573,
432.484,840.29227,
429.573,835.14489,
426.663,795.61758,
423.752,637.54797,
420.842,449.8099,
417.931,304.22031,
415.020,296.63673,
412.110,575.11961,
409.199,754.63653,
406.289,816.1886,
403.378,757.29816,
400.468,734.61833,
397.557,759.25227,
394.646,795.3006,
391.736,811.25428,
388.825,807.48312,
385.915,779.76532,
383.004,764.9413,
380.094,787.02761,
377.183,799.81971,
374.272,816.40173,
371.362,847.68359,
368.451,895.64554,
365.541,883.63697,
362.630,876.00508,
359.719,869.41532,
356.809,860.20016,
353.898,824.25785,
350.988,862.11383,
348.077,894.82437,
345.167,874.78566,
342.256,843.40879,
339.345,859.35233,
336.435,877.7663,
333.524,867.74082,
330.614,847.62162,
327.703,874.74634,
324.793,914.36653,
321.882,937.32813,
318.971,917.99862,
316.061,916.25814,
313.150,932.22974,
310.240,967.10918,
307.329,971.23355,
304.418,976.47858,
301.508,989.84272,
298.597,1021.6806,
295.687,970.19577,
292.776,949.7917,
289.866,978.08184,
286.955,1076.3323,
284.044,1128.9575,
281.134,1186.5523,
278.223,1246.5906,
275.313,1248.0643,
272.402,1289.6191,
269.492,1298.7796,
266.581,1251.9051,
263.670,1217.3516,
260.760,1291.4787,
257.849,1387.622,
254.939,1442.6632,
252.028,1401.392,
249.117,1383.0909,
246.207,1390.2244,
243.296,1428.2903,
240.386,1416.7032,
237.475,1404.5331,
234.565,1395.6142,
231.654,1378.085,
228.743,1322.5919,
225.833,1270.9596,
222.922,1237.8609,
220.012,1183.9479,
217.101,1183.5501,
214.191,1190.0099,
211.280,1152.1818,
208.369,1164.8497,
205.459,1147.6215,
202.548,1112.1299,
199.638,1122.289,
196.727,1109.3934,
193.816,1112.8241,
190.906,1144.191,
187.995,1081.9249,
185.085,1065.5764,
182.174,1069.8079,
179.264,1064.0258,
176.353,1024.2875,
173.442,1023.0408,
170.532,1053.9145,
167.621,1007.0511,
164.711,998.05397,
161.800,961.06961,
158.890,843.03428,
155.979,764.11083,
153.068,723.11008,
150.158,694.54147,
147.247,589.72044,
144.337,497.22773,
141.426,401.42125,
138.516,294.60445,
135.605,211.25368,
132.694,148.55557,
129.784,101.84903,
126.873,63.232023,
123.963,39.441036,
121.052,22.275794,
118.141,9.425558,
115.231,19.322985,
112.320,18.291369,
109.410,11.920421,
106.499,14.769042,
103.589,12.013473,
100.678,7.4736481,
97.767,2.497085,
94.857,1.682011,
91.946,5.0029978,
89.036,9.6976126,
86.125,5.4423809,
83.215,5.4368407,
80.304,3.5018078,
77.393,-4.9962315,
74.483,0.27121462,
71.572,2.6502958,
68.662,1.236465,
65.751,-0.17643715,
62.840,1.3018079,
59.930,2.438569,
57.019,-1.0868409,
54.109,-4.6108042,
51.198,-3.307298,
48.288,4.3353629,
45.377,-0.58828356,
42.466,-1.388342,
39.556,0.25988142,
36.645,-0.44230879,
33.735,3.0097393,
30.824,3.7243563,
27.914,-4.6897466,
25.003,-7.4929124,
22.092,-10.239523,
19.182,-13.235991,
16.271,-1.3446591,
13.361,42.570592,
10.450,90.245322,
7.539,54.631239,
4.629,-236.53844,
1.718,-606.46445,
-1.192,-951.55099,
-4.103,-753.77254,
-7.013,-416.12364,
-9.924,-0.625,
