,PL22B4~1,
Raman shift [1/cm],Intensity,
3014.167,-5.875,
3011.256,3.125,
3008.346,340.2623,
3005.435,399.96952,
3002.525,428.58026,
2999.614,428.78865,
2996.704,427.31057,
2993.793,459.48733,
2990.882,474.20894,
2987.972,492.09978,
2985.061,489.7851,
2982.151,513.38048,
2979.240,524.125,
2976.329,529.38456,
2973.419,569.00151,
2970.508,575.64172,
2967.598,595.0258,
2964.687,585.06454,
2961.777,601.74897,
2958.866,612.43854,
2955.955,645.95464,
2953.045,656.125,
2950.134,677.34954,
2947.224,691.17835,
2944.313,729.37215,
2941.403,716.48175,
2938.492,740.14669,
2935.581,745.19495,
2932.671,726.69158,
2929.760,775.62887,
2926.850,771.11786,
2923.939,789.28858,
2921.028,791.76632,
2918.118,790.10611,
2915.207,797.35916,
2912.297,789.15462,
2909.386,794.75273,
2906.476,803.70646,
2903.565,805.44797,
2900.654,786.27871,
2897.744,805.86098,
2894.833,785.125,
2891.923,759.17619,
2889.012,778.74928,
2886.102,770.85609,
2883.191,784.10612,
2880.280,765.07714,
2877.370,714.36344,
2874.459,710.87985,
2871.549,752.92788,
2868.638,812.993,
2865.727,792.36726,
2862.817,803.56752,
2859.906,815.5552,
2856.996,816.10236,
2854.085,807.92119,
2851.175,800.35999,
2848.264,807.24299,
2845.353,803.80149,
2842.443,786.72918,
2839.532,791.66226,
2836.622,801.84961,
2833.711,789.125,
2830.801,766.64338,
2827.890,809.4152,
2824.979,793.13706,
2822.069,795.38656,
2819.158,813.56435,
2816.248,818.82579,
2813.337,811.18718,
2810.427,833.21316,
2807.516,821.02438,
2804.605,833.15623,
2801.695,821.36188,
2798.784,824.086,
2795.874,811.8189,
2792.963,830.48213,
2790.052,837.1235,
2787.142,811.34865,
2784.231,806.70575,
2781.321,815.87932,
2778.410,825.05013,
2775.500,824.42259,
2772.589,848.93158,
2769.678,840.47991,
2766.768,860.67647,
2763.857,865.49109,
2760.947,852.66598,
2758.036,860.81928,
2755.126,869.4626,
2752.215,852.80675,
2749.304,869.93253,
2746.394,878.66529,
2743.483,879.32504,
2740.573,872.125,
2737.662,876.96673,
2734.751,868.57125,
2731.841,891.58471,
2728.930,883.92157,
2726.020,893.46181,
2723.109,873.07384,
2720.199,894.0469,
2717.288,894.47537,
2714.377,924.2496,
2711.467,914.8294,
2708.556,911.01932,
2705.646,920.77298,
2702.735,932.76931,
2699.825,922.86323,
2696.914,955.36366,
2694.003,929.73964,
2691.093,927.57145,
2688.182,924.30648,
2685.272,945.04534,
2682.361,941.76037,
2679.450,947.32661,
2676.540,914.26727,
2673.629,923.11602,
2670.719,932.90596,
2667.808,939.93046,
2664.898,948.86527,
2661.987,954.92513,
2659.076,958.37931,
2656.166,981.78729,
2653.255,992.68112,
2650.345,996.6132,
2647.434,983.12586,
2644.524,1001.6117,
2641.613,998.63977,
2638.702,1006.1408,
2635.792,986.1888,
2632.881,989.40454,
2629.971,1015.7023,
2627.060,1005.2878,
2624.149,1021.8844,
2621.239,1008.8824,
2618.328,1034.2773,
2615.418,1019.1068,
2612.507,1030.8483,
2609.597,1050.3805,
2606.686,1057.1772,
2603.775,1046.7242,
2600.865,1048.712,
2597.954,1050.4187,
2595.044,1067.5351,
2592.133,1072.7494,
2589.223,1092.4745,
2586.312,1067.0797,
2583.401,1092.4717,
2580.491,1087.5914,
2577.580,1073.1481,
2574.670,1093.49,
2571.759,1111.7765,
2568.848,1079.3734,
2565.938,1076.8392,
2563.027,1087.2705,
2560.117,1082.2091,
2557.206,1134.8482,
2554.296,1097.498,
2551.385,1118.1411,
2548.474,1130.4953,
2545.564,1136.8401,
2542.653,1147.9136,
2539.743,1154.779,
2536.832,1158.7381,
2533.922,1140.74,
2531.011,1172.2506,
2528.100,1162.6546,
2525.190,1161.4287,
2522.279,1159.1568,
2519.369,1173.182,
2516.458,1168.7999,
2513.548,1147.38,
2510.637,1202.2028,
2507.726,1184.0655,
2504.816,1187.5016,
2501.905,1165.4732,
2498.995,1189.2737,
2496.084,1168.0972,
2493.173,1197.178,
2490.263,1190.9679,
2487.352,1201.9179,
2484.442,1227.2449,
2481.531,1248.8111,
2478.621,1226.0206,
2475.710,1248.0713,
2472.799,1244.0846,
2469.889,1253.125,
2466.978,1238.6921,
2464.068,1214.9292,
2461.157,1256.3925,
2458.247,1256.8016,
2455.336,1244.7023,
2452.425,1244.7146,
2449.515,1288.2185,
2446.604,1270.0465,
2443.694,1284.8454,
2440.783,1282.0315,
2437.872,1300.599,
2434.962,1314.701,
2432.051,1319.6127,
2429.141,1305.8899,
2426.230,1322.5604,
2423.320,1349.4965,
2420.409,1339.6956,
2417.498,1341.0913,
2414.588,1313.1556,
2411.677,1347.2326,
2408.767,1350.6309,
2405.856,1352.125,
2402.946,1350.7559,
2400.035,1382.4912,
2397.124,1373.1571,
2394.214,1391.2858,
2391.303,1392.5227,
2388.393,1404.8715,
2385.482,1368.7993,
2382.571,1388.6186,
2379.661,1390.7529,
2376.750,1430.0632,
2373.840,1420.6908,
2370.929,1435.8434,
2368.019,1439.7395,
2365.108,1446.426,
2362.197,1424.4838,
2359.287,1432.2598,
2356.376,1446.1144,
2353.466,1453.3528,
2350.555,1456.0004,
2347.645,1474.6773,
2344.734,1456.6365,
2341.823,1449.1582,
2338.913,1497.6116,
2336.002,1499.8547,
2333.092,1511.159,
2330.181,1529.1071,
2327.270,1507.3351,
2324.360,1517.3019,
2321.449,1502.3563,
2318.539,1523.9354,
2315.628,1543.0071,
2312.718,1552.1911,
2309.807,1554.218,
2306.896,1568.6211,
2303.986,1549.7222,
2301.075,1527.742,
2298.165,1557.6544,
2295.254,1570.9957,
2292.344,1553.2827,
2289.433,1565.8818,
2286.522,1577.3171,
2283.612,1568.8852,
2280.701,1581.3761,
2277.791,1598.5295,
2274.880,1651.4171,
2271.969,1644.5694,
2269.059,1652.7462,
2266.148,1673.1183,
2263.238,1659.7351,
2260.327,1704.0904,
2257.417,1696.2928,
2254.506,1699.1335,
2251.595,1694.6776,
2248.685,1711.5981,
2245.774,1707.6196,
2242.864,1679.9679,
2239.953,1696.4491,
2237.043,1718.9178,
2234.132,1731.125,
2231.221,1737.5204,
2228.311,1768.8299,
2225.400,1764.7161,
2222.490,1786.9817,
2219.579,1806.7497,
2216.669,1805.7371,
2213.758,1827.7852,
2210.847,1859.3794,
2207.937,1845.7765,
2205.026,1903.1273,
2202.116,1848.5645,
2199.205,1884.1994,
2196.294,1933.0929,
2193.384,1959.704,
2190.473,1973.7107,
2187.563,2023.2507,
2184.652,2059.5172,
2181.742,2146.7876,
2178.831,2245.4636,
2175.920,2340.6642,
2173.010,2446.3801,
2170.099,2546.5164,
2167.189,2673.6821,
2164.278,2912.3089,
2161.368,3084.549,
2158.457,3229.3839,
2155.546,3393.8627,
2152.636,3562.8907,
2149.725,3692.3397,
2146.815,3798.0884,
2143.904,3796.2736,
2140.993,3924.1355,
2138.083,3944.3591,
2135.172,3890.8895,
2132.262,3864.132,
2129.351,3846.7352,
2126.441,3754.4257,
2123.530,3555.823,
2120.619,3420.4837,
2117.709,3252.8903,
2114.798,3072.3165,
2111.888,2887.453,
2108.977,2743.9263,
2106.067,2624.804,
2103.156,2518.4205,
2100.245,2387.0949,
2097.335,2332.0203,
2094.424,2269.833,
2091.514,2226.0416,
2088.603,2184.291,
2085.692,2170.7643,
2082.782,2185.1932,
2079.871,2161.838,
2076.961,2144.8999,
2074.050,2114.0583,
2071.140,2091.5159,
2068.229,2076.8659,
2065.318,2058.9767,
2062.408,2065.4964,
2059.497,2050.0773,
2056.587,2043.3458,
2053.676,2030.7927,
2050.766,2066.8148,
2047.855,2008.4383,
2044.944,2018.859,
2042.034,2018.073,
2039.123,2015.0038,
2036.213,2017.2762,
2033.302,2026.973,
2030.391,2022.0572,
2027.481,2056.6003,
2024.570,2081.6104,
2021.660,2065.3076,
2018.749,2039.8848,
2015.839,2058.1834,
2012.928,2057.6418,
2010.017,2072.8785,
2007.107,2049.796,
2004.196,2041.9703,
2001.286,2080.2946,
1998.375,2073.1614,
1995.465,2041.1,
1992.554,2023.731,
1989.643,1997.9891,
1986.733,2038.5899,
1983.822,2024.0467,
1980.912,2007.4727,
1978.001,2049.8541,
1975.090,2042.1021,
1972.180,2047.2633,
1969.269,2030.1048,
1966.359,2021.4223,
1963.448,2052.0761,
1960.538,2052.5754,
1957.627,2036.7504,
1954.716,2029.2974,
1951.806,2047.5224,
1948.895,2050.534,
1945.985,2019.125,
1943.074,2009.0292,
1940.164,2005.8947,
1937.253,2023.4516,
1934.342,2014.8175,
1931.432,1995.5603,
1928.521,1967.0732,
1925.611,1961.6381,
1922.700,1986.0338,
1919.790,2025.853,
1916.879,1995.7755,
1913.968,2000.1164,
1911.058,2011.9178,
1908.147,2015.8184,
1905.237,1977.6545,
1902.326,2007.6865,
1899.415,1986.4213,
1896.505,1997.3901,
1893.594,1996.2225,
1890.684,2021.8502,
1887.773,2018.2726,
1884.863,2006.346,
1881.952,2007.7551,
1879.041,2016.9853,
1876.131,2051.257,
1873.220,2011.054,
1870.310,2027.3312,
1867.399,2017.3169,
1864.489,1982.5534,
1861.578,1995.5534,
1858.667,2016.3376,
1855.757,2009.0928,
1852.846,2041.3558,
1849.936,2047.3562,
1847.025,2085.361,
1844.114,2083.3321,
1841.204,2087.3802,
1838.293,2098.6109,
1835.383,2113.1365,
1832.472,2096.1824,
1829.562,2124.5636,
1826.651,2130.663,
1823.740,2131.5886,
1820.830,2108.1169,
1817.919,2118.0413,
1815.009,2176.924,
1812.098,2169.9675,
1809.188,2168.125,
1806.277,2165.1914,
1803.366,2193.7923,
1800.456,2173.9601,
1797.545,2170.2031,
1794.635,2161.77,
1791.724,2173.0569,
1788.813,2215.5345,
1785.903,2235.5107,
1782.992,2217.5379,
1780.082,2226.4089,
1777.171,2179.1341,
1774.261,2225.1702,
1771.350,2241.376,
1768.439,2256.6813,
1765.529,2292.1259,
1762.618,2296.1925,
1759.708,2316.6035,
1756.797,2339.2008,
1753.887,2329.4063,
1750.976,2327.6113,
1748.065,2327.2095,
1745.155,2344.5636,
1742.244,2344.2065,
1739.334,2344.9721,
1736.423,2373.5605,
1733.512,2411.7755,
1730.602,2409.4087,
1727.691,2422.7812,
1724.781,2457.2283,
1721.870,2443.3963,
1718.960,2501.4369,
1716.049,2502.5404,
1713.138,2510.3849,
1710.228,2517.3468,
1707.317,2489.8187,
1704.407,2543.6224,
1701.496,2575.6483,
1698.586,2606.7685,
1695.675,2659.6533,
1692.764,2674.4857,
1689.854,2635.9006,
1686.943,2760.7069,
1684.033,2744.6466,
1681.122,2768.7002,
1678.211,2821.6206,
1675.301,2798.199,
1672.390,2950.0413,
1669.480,2923.3764,
1666.569,3078.7979,
1663.659,3131.3373,
1660.748,3146.2846,
1657.837,3256.9123,
1654.927,3292.0547,
1652.016,3291.2633,
1649.106,3380.4789,
1646.195,3514.4846,
1643.285,3532.5202,
1640.374,3679.3584,
1637.463,3738.0437,
1634.553,3789.6619,
1631.642,3894.6006,
1628.732,4121.239,
1625.821,4308.2912,
1622.911,4560.6937,
1620.000,4746.769,
1617.089,4961.8066,
1614.179,5219.7645,
1611.268,5531.3768,
1608.358,5792.8573,
1605.447,6017.2696,
1602.536,6129.8369,
1599.626,6046.0516,
1596.715,6119.8091,
1593.805,6117.393,
1590.894,5965.5304,
1587.984,5950.3216,
1585.073,5734.1667,
1582.162,5667.7389,
1579.252,5636.7577,
1576.341,5604.6899,
1573.431,5603.6072,
1570.520,5536.3311,
1567.610,5513.6348,
1564.699,5474.6984,
1561.788,5406.6044,
1558.878,5414.8493,
1555.967,5310.866,
1553.057,5204.8324,
1550.146,5130.576,
1547.235,5061.1635,
1544.325,4974.7442,
1541.414,4895.6415,
1538.504,4850.6833,
1535.593,4784.9728,
1532.683,4714.668,
1529.772,4666.0942,
1526.861,4621.8831,
1523.951,4596.2162,
1521.040,4572.8379,
1518.130,4543.72,
1515.219,4481.0843,
1512.309,4493.9673,
1509.398,4457.5395,
1506.487,4429.7002,
1503.577,4399.358,
1500.666,4417.6773,
1497.756,4413.2096,
1494.845,4398.2429,
1491.934,4305.1124,
1489.024,4301.2624,
1486.113,4333.5775,
1483.203,4321.0261,
1480.292,4256.3352,
1477.382,4212.7951,
1474.471,4208.9619,
1471.560,4153.523,
1468.650,4116.4097,
1465.739,4098.2367,
1462.829,4096.8995,
1459.918,4090.7327,
1457.008,4098.356,
1454.097,4108.0413,
1451.186,4102.9567,
1448.276,4105.9698,
1445.365,4098.516,
1442.455,4062.459,
1439.544,4039.8099,
1436.633,4078.9105,
1433.723,4039.5019,
1430.812,4030.7659,
1427.902,3974.7269,
1424.991,3915.9656,
1422.081,3986.6057,
1419.170,3962.0188,
1416.259,3945.7841,
1413.349,3918.202,
1410.438,3888.4318,
1407.528,3834.7068,
1404.617,3871.7735,
1401.707,3881.7387,
1398.796,3831.3558,
1395.885,3808.5384,
1392.975,3814.7919,
1390.064,3763.3201,
1387.154,3582.4125,
1384.243,3455.6386,
1381.332,3366.7729,
1378.422,3416.9741,
1375.511,3666.1579,
1372.601,3875.6352,
1369.690,4017.4223,
1366.780,4094.3595,
1363.869,4167.2432,
1360.958,4266.3703,
1358.048,4341.1304,
1355.137,4424.0016,
1352.227,4515.0991,
1349.316,4601.7297,
1346.406,4696.821,
1343.495,4766.8515,
1340.584,4801.0526,
1337.674,4873.7011,
1334.763,4945.3367,
1331.853,4950.9001,
1328.942,5003.6034,
1326.032,5041.9342,
1323.121,5091.36,
1320.210,5132.7618,
1317.300,5198.6557,
1314.389,5242.3196,
1311.479,5298.0567,
1308.568,5353.2228,
1305.657,5349.8014,
1302.747,5389.6608,
1299.836,5452.5158,
1296.926,5562.9092,
1294.015,5880.9952,
1291.105,5979.5376,
1288.194,6099.7541,
1285.283,6210.1814,
1282.373,6342.4762,
1279.462,6411.1052,
1276.552,6434.9912,
1273.641,6476.0402,
1270.731,6493.9548,
1267.820,6440.4244,
1264.909,6426.3774,
1261.999,6397.2609,
1259.088,6346.1821,
1256.178,6272.8956,
1253.267,6222.7652,
1250.356,6068.9017,
1247.446,5985.8701,
1244.535,5872.5494,
1241.625,5710.7992,
1238.714,5602.7729,
1235.804,5535.397,
1232.893,5465.7706,
1229.982,5367.2188,
1227.072,5222.3688,
1224.161,5190.2719,
1221.251,5044.6683,
1218.340,4948.1869,
1215.430,4921.0239,
1212.519,4871.227,
1209.608,4814.96,
1206.698,4831.6146,
1203.787,4869.1753,
1200.877,4891.7379,
1197.966,4901.6287,
1195.055,5006.2213,
1192.145,5121.7996,
1189.234,5250.1463,
1186.324,5353.4026,
1183.413,5408.9321,
1180.503,5422.427,
1177.592,5407.1349,
1174.681,5366.3956,
1171.771,5311.7856,
1168.860,5253.7348,
1165.950,5228.7741,
1163.039,5150.7927,
1160.129,5133.8714,
1157.218,5178.738,
1154.307,5179.7645,
1151.397,5115.2575,
1148.486,5113.8685,
1145.576,5147.3451,
1142.665,5037.2439,
1139.754,5015.1069,
1136.844,4972.908,
1133.933,4926.2132,
1131.023,4877.7434,
1128.112,4849.9817,
1125.202,4858.2651,
1122.291,4856.4686,
1119.380,4775.7486,
1116.470,4839.2907,
1113.559,4830.8868,
1110.649,4814.9926,
1107.738,4775.3685,
1104.828,4757.7758,
1101.917,4772.3498,
1099.006,4766.8982,
1096.096,4761.77,
1093.185,4772.3061,
1090.275,4731.8522,
1087.364,4737.2197,
1084.453,4698.0029,
1081.543,4671.3276,
1078.632,4672.1562,
1075.722,4654.1429,
1072.811,4679.6286,
1069.901,4672.6425,
1066.990,4726.2832,
1064.079,4769.7481,
1061.169,4808.9786,
1058.258,4840.1356,
1055.348,4879.2296,
1052.437,4937.781,
1049.527,4941.1921,
1046.616,4942.9298,
1043.705,4938.5004,
1040.795,4948.6181,
1037.884,5003.6758,
1034.974,5039.2075,
1032.063,5020.0788,
1029.153,5019.4898,
1026.242,4989.2163,
1023.331,5043.1215,
1020.421,5095.9511,
1017.510,5124.21,
1014.600,5185.4142,
1011.689,5258.125,
1008.778,5288.1803,
1005.868,5464.7312,
1002.957,5643.6849,
1000.047,5785.421,
997.136,5919.1605,
994.226,5956.8023,
991.315,5900.682,
988.404,5826.6966,
985.494,5719.1111,
982.583,5629.1727,
979.673,5622.7098,
976.762,5595.1828,
973.852,5579.4291,
970.941,5562.4145,
968.030,5511.8361,
965.120,5544.2539,
962.209,5574.9454,
959.299,5557.461,
956.388,5568.8437,
953.477,5601.5661,
950.567,5633.752,
947.656,5661.2445,
944.746,5685.0321,
941.835,5662.6404,
938.925,5645.9381,
936.014,5599.6589,
933.103,5595.4344,
930.193,5632.5586,
927.282,5519.0545,
924.372,5462.3988,
921.461,5391.0582,
918.551,5369.2869,
915.640,5352.7023,
912.729,5309.2666,
909.819,5255.681,
906.908,5259.8931,
903.998,5303.87,
901.087,5332.9472,
898.176,5332.1495,
895.266,5350.9127,
892.355,5425.2921,
889.445,5468.934,
886.534,5500.0153,
883.624,5502.7608,
880.713,5546.0363,
877.802,5597.115,
874.892,5598.1527,
871.981,5534.6454,
869.071,5471.9894,
866.160,5456.2953,
863.250,5458.3186,
860.339,5455.3235,
857.428,5435.4726,
854.518,5403.3657,
851.607,5411.6864,
848.697,5434.4473,
845.786,5456.0612,
842.875,5468.5232,
839.965,5473.6396,
837.054,5485.8321,
834.144,5548.8172,
831.233,5523.7944,
828.323,5521.9404,
825.412,5549.7498,
822.501,5565.1248,
819.591,5526.2841,
816.680,5432.1761,
813.770,5403.4865,
810.859,5365.3795,
807.949,5301.903,
805.038,5239.156,
802.127,5181.537,
799.217,5153.7633,
796.306,5167.6927,
793.396,5151.8117,
790.485,5105.7578,
787.574,5124.6196,
784.664,5163.985,
781.753,5102.6846,
778.843,5126.4646,
775.932,5179.335,
773.022,5170.3381,
770.111,5210.3994,
767.200,5193.3309,
764.290,5184.2356,
761.379,5167.9458,
758.469,5140.8933,
755.558,5120.2011,
752.648,5089.2462,
749.737,5058.319,
746.826,5008.7598,
743.916,4882.2406,
741.005,4615.4384,
738.095,4193.2625,
735.184,3709.0838,
732.274,3610.8024,
729.363,3914.495,
726.452,4456.1141,
723.542,4871.3329,
720.631,5022.5676,
717.721,5065.5621,
714.810,5069.6477,
711.899,5083.4122,
708.989,5131.8277,
706.078,5107.2846,
703.168,5127.2355,
700.257,5106.5809,
697.347,5064.8629,
694.436,5107.6705,
691.525,5127.7657,
688.615,5138.4141,
685.704,5145.5785,
682.794,5152.9335,
679.883,5164.3597,
676.973,5214.0447,
674.062,5211.3634,
671.151,5207.6316,
668.241,5192.5887,
665.330,5131.5998,
662.420,5162.7504,
659.509,5181.8236,
656.598,5177.4408,
653.688,5169.4864,
650.777,5193.2069,
647.867,5166.1318,
644.956,5139.0739,
642.046,5114.5163,
639.135,5116.1514,
636.224,5184.0574,
633.314,5170.5604,
630.403,5190.7734,
627.493,5171.022,
624.582,5134.8433,
621.672,5232.2586,
618.761,5287.8009,
615.850,5301.3701,
612.940,5328.8385,
610.029,5390.3337,
607.119,5415.6019,
604.208,5401.0847,
601.297,5411.5731,
598.387,5427.6918,
595.476,5418.9255,
592.566,5363.8307,
589.655,5369.0265,
586.745,5354.5586,
583.834,5326.6621,
580.923,5332.016,
578.013,5313.9671,
575.102,5310.2722,
572.192,5325.0591,
569.281,5363.6226,
566.371,5438.7545,
563.460,5461.6453,
560.549,5544.6277,
557.639,5630.2277,
554.728,5642.9918,
551.818,5625.0445,
548.907,5641.845,
545.996,5664.0672,
543.086,5675.1053,
540.175,5661.0896,
537.265,5673.8863,
534.354,5668.5895,
531.444,5692.9572,
528.533,5782.6284,
525.622,5775.6448,
522.712,5792.9344,
519.801,5820.7821,
516.891,5867.4097,
513.980,5972.7139,
511.070,5980.012,
508.159,6032.1349,
505.248,6114.9109,
502.338,6191.4068,
499.427,6269.3618,
496.517,6328.5896,
493.606,6377.305,
490.695,6415.125,
487.785,6415.125,
484.874,6392.5072,
481.964,6418.3306,
479.053,6457.9679,
476.143,6398.8348,
473.232,6388.6504,
470.321,6418.239,
467.411,6425.2794,
464.500,6347.8704,
461.590,6416.787,
458.679,6435.5747,
455.769,6436.7003,
452.858,6446.8855,
449.947,6511.8196,
447.037,6485.6856,
444.126,6449.4038,
441.216,6421.8648,
438.305,6368.5296,
435.395,6313.2635,
432.484,6344.3865,
429.573,6406.2623,
426.663,6334.0489,
423.752,6317.6637,
420.842,6328.6523,
417.931,6348.4178,
415.020,6352.968,
412.110,6469.4515,
409.199,6532.6629,
406.289,6547.7295,
403.378,6528.0943,
400.468,6519.0223,
397.557,6496.5873,
394.646,6426.68,
391.736,6282.5375,
388.825,6139.2335,
385.915,6082.7558,
383.004,6120.3806,
380.094,6250.2326,
377.183,6330.7476,
374.272,6457.8816,
371.362,6584.3876,
368.451,6678.1766,
365.541,6711.9507,
362.630,6733.1423,
359.719,6752.8919,
356.809,6774.7204,
353.898,6751.5077,
350.988,6814.5633,
348.077,6896.6481,
345.167,6951.6275,
342.256,6902.321,
339.345,6954.0226,
336.435,7022.9511,
333.524,7052.3229,
330.614,7090.3258,
327.703,7150.8985,
324.793,7199.9607,
321.882,7208.3485,
318.971,7300.5354,
316.061,7369.7252,
313.150,7423.2131,
310.240,7468.4821,
307.329,7534.4423,
304.418,7579.275,
301.508,7570.4203,
298.597,7451.2132,
295.687,7294.1638,
292.776,7291.6254,
289.866,7477.671,
286.955,7912.0416,
284.044,8224.5947,
281.134,8509.7235,
278.223,8780.1059,
275.313,9005.5837,
272.402,9225.0723,
269.492,9411.545,
266.581,9561.3121,
263.670,9773.7792,
260.760,9930.1988,
257.849,10045.097,
254.939,10125.091,
252.028,10279.58,
249.117,10360.966,
246.207,10399.3,
243.296,10442.49,
240.386,10476.51,
237.475,10434.113,
234.565,10347.912,
231.654,10391.005,
228.743,10376.535,
225.833,10325.891,
222.922,10249.683,
220.012,10240.212,
217.101,10182.165,
214.191,10106.547,
211.280,10044.713,
208.369,10028.687,
205.459,10021.129,
202.548,10017.624,
199.638,10014.721,
196.727,10006.058,
193.816,10007.651,
190.906,10024.058,
187.995,9993.6494,
185.085,9994.4735,
182.174,10016.919,
179.264,10053.057,
176.353,10079.552,
173.442,10082.698,
170.532,10064.529,
167.621,10050.83,
164.711,9860.0229,
161.800,9540.2255,
158.890,9098.3128,
155.979,8491.6964,
153.068,7768.8746,
150.158,6922.3776,
147.247,5883.5007,
144.337,4840.7598,
141.426,3804.6286,
138.516,2780.9079,
135.605,1987.5566,
132.694,1366.3353,
129.784,902.14719,
126.873,604.65318,
123.963,418.3605,
121.052,286.01411,
118.141,192.49295,
115.231,155.17534,
112.320,127.83956,
109.410,108.12518,
106.499,92.457769,
103.589,86.323728,
100.678,79.779053,
97.767,68.404052,
94.857,57.730164,
91.946,57.55922,
89.036,62.205736,
86.125,50.149246,
83.215,45.532239,
80.304,43.406702,
77.393,41.282192,
74.483,39.81473,
71.572,35.139127,
68.662,28.263535,
65.751,29.676437,
62.840,31.088404,
59.930,33.248717,
57.019,37.479209,
54.109,35.736357,
51.198,32.616954,
48.288,29.068376,
45.377,22.034595,
42.466,19.537219,
39.556,20.585474,
36.645,23.394235,
33.735,23.605752,
30.824,23.787661,
27.914,25.891187,
25.003,23.011813,
22.092,23.708236,
19.182,29.491126,
16.271,40.682968,
13.361,117.61577,
10.450,281.06595,
7.539,652.56973,
4.629,1011.9344,
1.718,1175.3778,
-1.192,905.58286,
-4.103,552.70619,
-7.013,242.23728,
-9.924,2.125,
