,PLA569~1,
Raman shift [1/cm],Intensity,
3014.167,1.625,
3011.256,-0.47502147,
3008.346,110.307,
3005.435,131.50839,
3002.525,145.43764,
2999.614,128.2393,
2996.704,137.98789,
2993.793,146.39574,
2990.882,143.05241,
2987.972,164.60482,
2985.061,158.40825,
2982.151,160.02837,
2979.240,165.57462,
2976.329,175.13865,
2973.419,178.625,
2970.508,181.09165,
2967.598,198.43384,
2964.687,199.40081,
2961.777,201.90702,
2958.866,206.29216,
2955.955,214.73118,
2953.045,219.35878,
2950.134,225.05066,
2947.224,221.4506,
2944.313,246.47899,
2941.403,234.80338,
2938.492,245.07216,
2935.581,234.60909,
2932.671,256.14431,
2929.760,241.39806,
2926.850,243.94568,
2923.939,267.94745,
2921.028,279.6605,
2918.118,268.32651,
2915.207,283.56807,
2912.297,270.68847,
2909.386,268.41332,
2906.476,262.81882,
2903.565,276.36722,
2900.654,278.35401,
2897.744,267.70043,
2894.833,270.73846,
2891.923,250.40699,
2889.012,286.75217,
2886.102,262.10745,
2883.191,276.60046,
2880.280,269.03169,
2877.370,237.71226,
2874.459,244.55596,
2871.549,276.67774,
2868.638,286.48892,
2865.727,282.99422,
2862.817,302.38301,
2859.906,292.53668,
2856.996,300.62047,
2854.085,303.38551,
2851.175,299.3359,
2848.264,275.20334,
2845.353,311.66813,
2842.443,309.23266,
2839.532,287.87882,
2836.622,292.19792,
2833.711,285.46174,
2830.801,291.625,
2827.890,278.9152,
2824.979,272.90899,
2822.069,303.52265,
2819.158,297.28538,
2816.248,294.90105,
2813.337,309.15062,
2810.427,302.40461,
2807.516,296.68266,
2804.605,287.18512,
2801.695,304.17761,
2798.784,294.625,
2795.874,292.0498,
2792.963,299.48223,
2790.052,297.62586,
2787.142,295.625,
2784.231,292.07687,
2781.321,270.5679,
2778.410,287.52982,
2775.500,286.26397,
2772.589,298.93234,
2769.678,293.16084,
2766.768,313.72794,
2763.857,305.83695,
2760.947,315.10924,
2758.036,302.45933,
2755.126,296.56304,
2752.215,326.1158,
2749.304,313.39119,
2746.394,309.83669,
2743.483,316.12498,
2740.573,319.73783,
2737.662,325.18861,
2734.751,322.80958,
2731.841,315.73306,
2728.930,318.84957,
2726.020,327.41088,
2723.109,318.55309,
2720.199,322.07491,
2717.288,333.53741,
2714.377,350.0414,
2711.467,325.39533,
2708.556,327.41237,
2705.646,331.9208,
2702.735,331.808,
2699.825,346.15772,
2696.914,338.95817,
2694.003,344.36809,
2691.093,335.48181,
2688.182,335.78945,
2685.272,341.74022,
2682.361,347.92522,
2679.450,347.53443,
2676.540,341.64532,
2673.629,342.95684,
2670.719,353.25994,
2667.808,347.20863,
2664.898,365.50827,
2661.987,352.09158,
2659.076,362.59051,
2656.166,358.56009,
2653.255,363.25085,
2650.345,373.625,
2647.434,363.96796,
2644.524,362.99189,
2641.613,358.36793,
2638.702,372.41985,
2635.792,371.15541,
2632.881,373.5834,
2629.971,379.34989,
2627.060,380.29187,
2624.149,383.67812,
2621.239,394.88538,
2618.328,382.04887,
2615.418,389.96591,
2612.507,382.28114,
2609.597,377.80863,
2606.686,380.5467,
2603.775,391.18452,
2600.865,403.38614,
2597.954,395.15205,
2595.044,403.64271,
2592.133,395.95617,
2589.223,395.40816,
2586.312,407.72051,
2583.401,392.72719,
2580.491,399.61055,
2577.580,405.62005,
2574.670,409.54343,
2571.759,413.86217,
2568.848,396.03933,
2565.938,408.24393,
2563.027,417.77049,
2560.117,406.98948,
2557.206,417.47371,
2554.296,426.879,
2551.385,420.19507,
2548.474,420.88411,
2545.564,426.3401,
2542.653,427.10821,
2539.743,441.71126,
2536.832,430.8493,
2533.922,421.75115,
2531.011,429.35002,
2528.100,435.55533,
2525.190,437.67213,
2522.279,446.5781,
2519.369,445.625,
2516.458,441.17741,
2513.548,440.86132,
2510.637,444.625,
2507.726,441.81458,
2504.816,439.56299,
2501.905,441.81341,
2498.995,436.50556,
2496.084,431.55878,
2493.173,440.09917,
2490.263,458.20919,
2487.352,453.1258,
2484.442,461.20745,
2481.531,462.63022,
2478.621,463.94725,
2475.710,490.50998,
2472.799,476.3649,
2469.889,477.1707,
2466.978,467.68693,
2464.068,459.83662,
2461.157,484.625,
2458.247,478.65434,
2455.336,483.15535,
2452.425,488.73349,
2449.515,479.0491,
2446.604,468.02817,
2443.694,484.53208,
2440.783,503.62838,
2437.872,486.80732,
2434.962,496.3531,
2432.051,508.16201,
2429.141,503.06622,
2426.230,503.49462,
2423.320,509.68226,
2420.409,503.8686,
2417.498,502.02668,
2414.588,508.1649,
2411.677,510.80429,
2408.767,517.90157,
2405.856,526.03214,
2402.946,520.7796,
2400.035,518.52406,
2397.124,523.1758,
2394.214,521.8958,
2391.303,531.98408,
2388.393,524.68079,
2385.482,518.71312,
2382.571,525.43485,
2379.661,537.60169,
2376.750,537.99449,
2373.840,536.97811,
2370.929,544.54919,
2368.019,541.23953,
2365.108,544.76374,
2362.197,547.8469,
2359.287,543.82667,
2356.376,562.59154,
2353.466,563.27745,
2350.555,554.76018,
2347.645,568.54552,
2344.734,580.5052,
2341.823,585.57525,
2338.913,573.89513,
2336.002,558.10824,
2333.092,564.56746,
2330.181,571.39737,
2327.270,576.40498,
2324.360,568.34662,
2321.449,607.10118,
2318.539,590.98584,
2315.628,589.5071,
2312.718,577.49283,
2309.807,603.19042,
2306.896,593.4513,
2303.986,607.83266,
2301.075,612.07173,
2298.165,624.23072,
2295.254,602.09895,
2292.344,582.30545,
2289.433,603.00728,
2286.522,616.13839,
2283.612,619.38521,
2280.701,628.41422,
2277.791,633.86358,
2274.880,616.90898,
2271.969,625.88015,
2269.059,625.92199,
2266.148,625.73184,
2263.238,651.01494,
2260.327,608.69397,
2257.417,623.38388,
2254.506,662.77028,
2251.595,653.91228,
2248.685,654.09807,
2245.774,646.51525,
2242.864,646.75467,
2239.953,649.99049,
2237.043,650.72858,
2234.132,654.53664,
2231.221,659.78261,
2228.311,682.1108,
2225.400,685.39984,
2222.490,680.03873,
2219.579,688.23167,
2216.669,684.62023,
2213.758,694.75704,
2210.847,699.625,
2207.937,695.78787,
2205.026,717.95794,
2202.116,723.64306,
2199.205,711.27488,
2196.294,716.43499,
2193.384,725.73001,
2190.473,710.60739,
2187.563,756.62983,
2184.652,754.31154,
2181.742,750.10407,
2178.831,789.02191,
2175.920,826.10043,
2173.010,842.82455,
2170.099,868.35517,
2167.189,909.01965,
2164.278,967.73354,
2161.368,999.05267,
2158.457,1034.9937,
2155.546,1102.3501,
2152.636,1147.0771,
2149.725,1186.578,
2146.815,1206.1912,
2143.904,1259.2235,
2140.993,1265.6355,
2138.083,1302.2724,
2135.172,1306.146,
2132.262,1292.3592,
2129.351,1291.6664,
2126.441,1270.6541,
2123.530,1216.3556,
2120.619,1186.5702,
2117.709,1139.1322,
2114.798,1079.9939,
2111.888,1022.9877,
2108.977,980.7508,
2106.067,927.77313,
2103.156,912.34599,
2100.245,863.61434,
2097.335,847.34751,
2094.424,845.44452,
2091.514,832.99337,
2088.603,836.91078,
2085.692,808.21243,
2082.782,804.57276,
2079.871,809.91088,
2076.961,829.33344,
2074.050,779.80682,
2071.140,817.7978,
2068.229,790.99219,
2065.318,783.18025,
2062.408,771.22334,
2059.497,785.06551,
2056.587,783.72989,
2053.676,762.9259,
2050.766,765.16312,
2047.855,777.65348,
2044.944,780.7532,
2042.034,789.88505,
2039.123,779.38594,
2036.213,785.52943,
2033.302,789.77705,
2030.391,766.99869,
2027.481,764.75901,
2024.570,773.83917,
2021.660,773.68413,
2018.749,769.27084,
2015.839,784.14534,
2012.928,775.77433,
2010.017,775.07994,
2007.107,766.88108,
2004.196,777.32741,
2001.286,771.12326,
1998.375,766.49607,
1995.465,754.46607,
1992.554,746.24268,
1989.643,745.625,
1986.733,731.26711,
1983.822,744.74095,
1980.912,753.7534,
1978.001,734.66766,
1975.090,728.00058,
1972.180,729.4189,
1969.269,722.32328,
1966.359,737.89545,
1963.448,735.39778,
1960.538,724.32141,
1957.627,728.86649,
1954.716,744.1941,
1951.806,742.46953,
1948.895,752.24858,
1945.985,711.07598,
1943.074,725.39245,
1940.164,729.08635,
1937.253,726.9682,
1934.342,733.02661,
1931.432,704.88367,
1928.521,698.46956,
1925.611,699.46268,
1922.700,715.24516,
1919.790,710.15112,
1916.879,698.39224,
1913.968,725.59057,
1911.058,740.93429,
1908.147,679.93891,
1905.237,710.25732,
1902.326,695.26203,
1899.415,704.92134,
1896.505,704.53458,
1893.594,705.25613,
1890.684,708.91263,
1887.773,693.96143,
1884.863,706.7594,
1881.952,702.28015,
1879.041,697.89447,
1876.131,703.51127,
1873.220,704.625,
1870.310,701.84025,
1867.399,671.1208,
1864.489,684.17021,
1861.578,696.8778,
1858.667,690.65194,
1855.757,701.20853,
1852.846,720.37884,
1849.936,721.11349,
1847.025,716.21381,
1844.114,723.68386,
1841.204,729.15297,
1838.293,721.61835,
1835.383,736.00849,
1832.472,717.93804,
1829.562,716.23386,
1826.651,718.78723,
1823.740,742.55992,
1820.830,757.25496,
1817.919,708.13366,
1815.009,735.15553,
1812.098,752.39665,
1809.188,728.29948,
1806.277,760.85039,
1803.366,743.92445,
1800.456,761.95474,
1797.545,764.85918,
1794.635,739.94704,
1791.724,759.58611,
1788.813,779.02423,
1785.903,774.28005,
1782.992,772.2584,
1780.082,783.70859,
1777.171,771.62339,
1774.261,755.03979,
1771.350,746.9145,
1768.439,776.24393,
1765.529,795.07963,
1762.618,807.22002,
1759.708,824.22287,
1756.797,826.47348,
1753.887,796.41801,
1750.976,779.34228,
1748.065,820.10579,
1745.155,826.37996,
1742.244,824.57064,
1739.334,828.625,
1736.423,837.81003,
1733.512,843.08029,
1730.602,875.04171,
1727.691,835.72706,
1724.781,837.14311,
1721.870,827.1392,
1718.960,871.31446,
1716.049,882.46397,
1713.138,880.91501,
1710.228,894.54975,
1707.317,880.70271,
1704.407,916.35768,
1701.496,869.57832,
1698.586,885.87664,
1695.675,857.68232,
1692.764,877.3996,
1689.854,943.68016,
1686.943,882.85089,
1684.033,920.60671,
1681.122,953.08124,
1678.211,937.77728,
1675.301,970.52325,
1672.390,911.93305,
1669.480,1014.633,
1666.569,1015.2187,
1663.659,985.60122,
1660.748,1103.6416,
1657.837,1054.9591,
1654.927,1115.445,
1652.016,1148.7016,
1649.106,1111.8208,
1646.195,1119.2893,
1643.285,1106.9922,
1640.374,1165.7295,
1637.463,1172.0662,
1634.553,1250.2703,
1631.642,1227.0376,
1628.732,1264.9865,
1625.821,1325.6492,
1622.911,1362.4165,
1620.000,1515.6722,
1617.089,1571.5305,
1614.179,1667.8613,
1611.268,1752.4649,
1608.358,1905.2738,
1605.447,1941.8538,
1602.536,2003.2658,
1599.626,2046.2622,
1596.715,2005.1525,
1593.805,1966.6404,
1590.894,2042.766,
1587.984,1992.9986,
1585.073,1953.8464,
1582.162,1932.7622,
1579.252,1903.4394,
1576.341,1889.6144,
1573.431,1893.1072,
1570.520,1856.4061,
1567.610,1814.8206,
1564.699,1793.7496,
1561.788,1764.9773,
1558.878,1736.1904,
1555.967,1728.2857,
1553.057,1682.0565,
1550.146,1647.6359,
1547.235,1619.0119,
1544.325,1580.5693,
1541.414,1570.1057,
1538.504,1571.5146,
1535.593,1516.499,
1532.683,1468.1377,
1529.772,1458.2378,
1526.861,1456.3391,
1523.951,1462.1436,
1521.040,1425.7081,
1518.130,1432.5598,
1515.219,1427.3455,
1512.309,1414.0755,
1509.398,1419.2393,
1506.487,1376.5384,
1503.577,1370.3024,
1500.666,1360.0507,
1497.756,1338.5571,
1494.845,1324.8646,
1491.934,1306.5274,
1489.024,1276.6901,
1486.113,1270.0617,
1483.203,1259.8552,
1480.292,1183.956,
1477.382,1193.2559,
1474.471,1217.0421,
1471.560,1245.8463,
1468.650,1239.593,
1465.739,1178.8238,
1462.829,1113.4128,
1459.918,1141.0067,
1457.008,1171.4556,
1454.097,1168.0195,
1451.186,1132.5438,
1448.276,1080.9561,
1445.365,1101.1969,
1442.455,1121.6576,
1439.544,1154.446,
1436.633,1126.3042,
1433.723,1107.7587,
1430.812,1089.5459,
1427.902,1113.2642,
1424.991,1098.1,
1422.081,1077.4405,
1419.170,1090.314,
1416.259,1013.2388,
1413.349,1030.8766,
1410.438,1044.0246,
1407.528,975.74464,
1404.617,1001.622,
1401.707,1030.7268,
1398.796,1004.3523,
1395.885,1011.2945,
1392.975,1025.7494,
1390.064,1004.8055,
1387.154,1008.1756,
1384.243,950.79373,
1381.332,860.93694,
1378.422,910.19448,
1375.511,1037.5967,
1372.601,1117.0369,
1369.690,1182.7733,
1366.780,1170.448,
1363.869,1214.7519,
1360.958,1273.238,
1358.048,1275.8256,
1355.137,1328.2841,
1352.227,1398.978,
1349.316,1431.9,
1346.406,1474.3554,
1343.495,1523.3062,
1340.584,1589.7674,
1337.674,1626.6986,
1334.763,1661.5424,
1331.853,1685.6504,
1328.942,1668.8357,
1326.032,1738.3996,
1323.121,1762.0346,
1320.210,1792.5937,
1317.300,1843.2194,
1314.389,1852.6941,
1311.479,1863.4015,
1308.568,1905.2456,
1305.657,1906.0152,
1302.747,1892.0791,
1299.836,1989.1705,
1296.926,2023.206,
1294.015,2057.2209,
1291.105,2163.4095,
1288.194,2170.4363,
1285.283,2258.1254,
1282.373,2343.617,
1279.462,2377.5661,
1276.552,2401.6015,
1273.641,2444.7441,
1270.731,2462.9235,
1267.820,2437.5965,
1264.909,2475.8668,
1261.999,2475.428,
1259.088,2415.228,
1256.178,2412.4815,
1253.267,2399.5827,
1250.356,2359.7305,
1247.446,2269.8708,
1244.535,2222.0937,
1241.625,2227.2398,
1238.714,2212.1887,
1235.804,2169.2561,
1232.893,2146.0118,
1229.982,2091.8891,
1227.072,2070.1616,
1224.161,2026.5998,
1221.251,2005.2238,
1218.340,1924.831,
1215.430,1900.1411,
1212.519,1905.4753,
1209.608,1878.9693,
1206.698,1854.2422,
1203.787,1884.022,
1200.877,1956.5136,
1197.966,1954.7152,
1195.055,2042.5096,
1192.145,2047.8575,
1189.234,2078.3622,
1186.324,2136.447,
1183.413,2174.4829,
1180.503,2169.1583,
1177.592,2137.3319,
1174.681,2107.6387,
1171.771,2114.3983,
1168.860,2104.5744,
1165.950,2038.3156,
1163.039,1991.1969,
1160.129,2015.9656,
1157.218,2039.2598,
1154.307,2027.4624,
1151.397,1997.9843,
1148.486,1955.1236,
1145.576,1964.5116,
1142.665,1984.9336,
1139.754,1930.4846,
1136.844,1929.5301,
1133.933,1922.3084,
1131.023,1910.7924,
1128.112,1898.6977,
1125.202,1888.6636,
1122.291,1906.6223,
1119.380,1900.0234,
1116.470,1940.6197,
1113.559,1968.0492,
1110.649,1935.9891,
1107.738,1929.5563,
1104.828,1943.7055,
1101.917,1951.0631,
1099.006,1959.522,
1096.096,1951.2914,
1093.185,1978.5094,
1090.275,1959.584,
1087.364,1969.0336,
1084.453,1973.3751,
1081.543,1962.8606,
1078.632,1950.6848,
1075.722,1951.634,
1072.811,1964.9973,
1069.901,1970.2369,
1066.990,1988.4083,
1064.079,1998.0691,
1061.169,2048.6752,
1058.258,2092.2833,
1055.348,2089.2183,
1052.437,2069.2488,
1049.527,2084.3369,
1046.616,2128.6472,
1043.705,2132.8542,
1040.795,2131.348,
1037.884,2166.5324,
1034.974,2190.8247,
1032.063,2175.248,
1029.153,2184.0404,
1026.242,2187.5003,
1023.331,2190.9581,
1020.421,2222.9946,
1017.510,2245.5894,
1014.600,2225.9804,
1011.689,2211.8605,
1008.778,2274.9556,
1005.868,2318.6521,
1002.957,2433.0792,
1000.047,2513.233,
997.136,2567.7533,
994.226,2582.4866,
991.315,2569.9715,
988.404,2553.0321,
985.494,2507.5126,
982.583,2457.8323,
979.673,2444.7718,
976.762,2456.7155,
973.852,2456.9008,
970.941,2454.9983,
968.030,2472.411,
965.120,2431.5391,
962.209,2411.0781,
959.299,2417.5405,
956.388,2450.1832,
953.477,2463.1714,
950.567,2455.8992,
947.656,2472.6223,
944.746,2464.9763,
941.835,2480.0115,
938.925,2472.4381,
936.014,2471.1774,
933.103,2476.3312,
930.193,2466.2389,
927.282,2419.7543,
924.372,2403.6877,
921.461,2402.3614,
918.551,2364.2834,
915.640,2323.0268,
912.729,2300.0629,
909.819,2288.737,
906.908,2297.1613,
903.998,2293.6482,
901.087,2324.4503,
898.176,2353.1233,
895.266,2368.1164,
892.355,2379.2374,
889.445,2398.5405,
886.534,2452.8917,
883.624,2470.3533,
880.713,2503.736,
877.802,2519.0767,
874.892,2489.2127,
871.981,2470.0985,
869.071,2490.1484,
866.160,2505.3543,
863.250,2488.0843,
860.339,2471.9207,
857.428,2484.2164,
854.518,2503.8416,
851.607,2511.3303,
848.697,2481.6732,
845.786,2456.2077,
842.875,2454.0142,
839.965,2475.3727,
837.054,2501.625,
834.144,2501.625,
831.233,2496.2921,
828.323,2495.6033,
825.412,2489.254,
822.501,2462.6886,
819.591,2413.1047,
816.680,2412.4263,
813.770,2374.4083,
810.859,2346.6614,
807.949,2338.1445,
805.038,2324.8551,
802.127,2268.8824,
799.217,2273.3151,
796.306,2249.3816,
793.396,2234.8541,
790.485,2248.8366,
787.574,2263.5663,
784.664,2235.6825,
781.753,2285.6457,
778.843,2297.4324,
775.932,2296.4396,
773.022,2331.527,
770.111,2343.7906,
767.200,2276.1069,
764.290,2264.4489,
761.379,2282.6533,
758.469,2295.8582,
755.558,2281.1387,
752.648,2264.8467,
749.737,2245.9581,
746.826,2219.4424,
743.916,2184.943,
741.005,2137.7951,
738.095,2033.0629,
735.184,1865.457,
732.274,1823.6091,
729.363,1910.8885,
726.452,2067.0666,
723.542,2174.7159,
720.631,2237.9654,
717.721,2257.9164,
714.810,2260.0057,
711.899,2263.6349,
708.989,2276.5457,
706.078,2265.4068,
703.168,2258.3745,
700.257,2248.1987,
697.347,2237.625,
694.436,2236.7739,
691.525,2205.4255,
688.615,2248.9379,
685.704,2260.4939,
682.794,2233.1144,
679.883,2223.8957,
676.973,2274.3821,
674.062,2238.045,
671.151,2230.9115,
668.241,2238.4711,
665.330,2186.0074,
662.420,2236.3275,
659.509,2259.3236,
656.598,2266.625,
653.688,2265.0147,
650.777,2260.03,
647.867,2271.975,
644.956,2244.2866,
642.046,2227.2834,
639.135,2231.7211,
636.224,2239.9831,
633.314,2311.4376,
630.403,2316.0272,
627.493,2298.1754,
624.582,2289.569,
621.672,2311.7448,
618.761,2333.1434,
615.850,2330.2582,
612.940,2323.3081,
610.029,2330.0174,
607.119,2362.3923,
604.208,2420.296,
601.297,2418.6961,
598.387,2388.0325,
595.476,2374.6704,
592.566,2406.9402,
589.655,2406.794,
586.745,2386.2663,
583.834,2357.2571,
580.923,2334.2743,
578.013,2276.204,
575.102,2272.6704,
572.192,2304.1339,
569.281,2339.5634,
566.371,2311.3889,
563.460,2355.1859,
560.549,2359.0321,
557.639,2356.0532,
554.728,2393.0192,
551.818,2399.2617,
548.907,2401.2344,
545.996,2412.1223,
543.086,2427.4507,
540.175,2422.0001,
537.265,2391.9295,
534.354,2405.7095,
531.444,2430.9037,
528.533,2431.7905,
525.622,2434.1184,
522.712,2499.5476,
519.801,2523.6766,
516.891,2498.8506,
513.980,2519.7566,
511.070,2566.7032,
508.159,2609.9809,
505.248,2633.6207,
502.338,2625.6642,
499.427,2661.1685,
496.517,2702.3017,
493.606,2716.5302,
490.695,2702.5091,
487.785,2744.8476,
484.874,2768.4268,
481.964,2758.5222,
479.053,2728.6833,
476.143,2716.3959,
473.232,2720.6608,
470.321,2719.219,
467.411,2695.8707,
464.500,2639.5643,
461.590,2716.1384,
458.679,2718.915,
455.769,2709.2962,
452.858,2719.4776,
449.947,2698.8514,
447.037,2720.1089,
444.126,2743.6492,
441.216,2756.9479,
438.305,2764.5672,
435.395,2776.7708,
432.484,2810.9641,
429.573,2844.4124,
426.663,2817.8075,
423.752,2793.3076,
420.842,2811.4828,
417.931,2848.7189,
415.020,2863.1277,
412.110,2903.8637,
409.199,2940.6299,
406.289,2948.8662,
403.378,2903.6199,
400.468,2902.1079,
397.557,2904.7099,
394.646,2911.9345,
391.736,2921.5485,
388.825,2856.6847,
385.915,2801.968,
383.004,2790.0419,
380.094,2842.3104,
377.183,2914.5481,
374.272,2950.9084,
371.362,2959.3271,
368.451,2952.0504,
365.541,3041.3641,
362.630,3069.4487,
359.719,3072.329,
356.809,3072.8483,
353.898,3093.0659,
350.988,3075.2981,
348.077,3052.4305,
345.167,3045.9873,
342.256,3072.8818,
339.345,3089.1279,
336.435,3095.5146,
333.524,3093.1652,
330.614,3110.3038,
327.703,3097.1424,
324.793,3100.5061,
321.882,3160.625,
318.971,3160.625,
316.061,3168.438,
313.150,3176.394,
310.240,3175.6519,
307.329,3166.3347,
304.418,3157.1536,
301.508,3149.2465,
298.597,3144.0636,
295.687,3118.5671,
292.776,3153.2919,
289.866,3241.8229,
286.955,3351.893,
284.044,3406.2075,
281.134,3501.942,
278.223,3629.4273,
275.313,3648.5855,
272.402,3750.7976,
269.492,3843.8047,
266.581,3893.2541,
263.670,3916.0447,
260.760,3929.9384,
257.849,3965.8805,
254.939,4049.5431,
252.028,4036.1481,
249.117,4035.1933,
246.207,4038.1627,
243.296,4028.6462,
240.386,4048.5207,
237.475,4051.9413,
234.565,4038.7047,
231.654,4032.8617,
228.743,3947.6213,
225.833,3900.26,
222.922,3931.7904,
220.012,3892.4484,
217.101,3850.1821,
214.191,3827.7117,
211.280,3854.6279,
208.369,3835.095,
205.459,3816.64,
202.548,3804.625,
199.638,3804.625,
196.727,3846.6888,
193.816,3875.5178,
190.906,3870.6504,
187.995,3871.3744,
185.085,3863.1136,
182.174,3860.285,
179.264,3884.8591,
176.353,3871.6055,
173.442,3900.6936,
170.532,3956.116,
167.621,3857.3424,
164.711,3761.7756,
161.800,3644.8195,
158.890,3484.3202,
155.979,3294.4916,
153.068,3047.5679,
150.158,2743.9634,
147.247,2375.6539,
144.337,1932.2747,
141.426,1504.898,
138.516,1137.8497,
135.605,803.01589,
132.694,543.29478,
129.784,354.58017,
126.873,246.59556,
123.963,171.13241,
121.052,114.47751,
118.141,73.7851,
115.231,67.229867,
112.320,57.846825,
109.410,48.215934,
106.499,46.079469,
103.589,42.823728,
100.678,34.106079,
97.767,17.043577,
94.857,15.932011,
91.946,16.834333,
89.036,19.415285,
86.125,24.379722,
83.215,22.970398,
80.304,21.582731,
77.393,24.41541,
74.483,18.07365,
71.572,13.900296,
68.662,12.07086,
65.751,6.4192514,
62.840,8.4786159,
59.930,11.875855,
57.019,9.0555273,
54.109,8.0278392,
51.198,8.2282186,
48.288,9.6136751,
45.377,8.206919,
42.466,8.861658,
39.556,10.049407,
36.645,6.538456,
33.735,4.0672546,
30.824,2.404113,
27.914,1.7029378,
25.003,5.3608249,
22.092,6.3333818,
19.182,3.3732885,
16.271,-4.3211029,
13.361,-32.662479,
10.450,-116.77299,
7.539,-403.78061,
4.629,-690.06824,
1.718,-910.61197,
-1.192,-983.11501,
-4.103,-676.38687,
-7.013,-328.87644,
-9.924,-0.375,
