,Pliquid_AuCOFNPs-citrate13new_1E-1mgmL_100uL_mix_1E-2mgL_16h_785nm_133mW_3s_1acc_1_RamanShift__0__35,
Raman shift [1/cm],Intensity,
3014.167,1.25,
3011.256,-1.5000537,
3008.346,260.17144,
3005.435,297.17226,
3002.525,316.23266,
2999.614,314.81495,
2996.704,326.93144,
2993.793,344.25,
2990.882,342.55535,
2987.972,362.18442,
2985.061,351.9101,
2982.151,391.35759,
2979.240,388.93346,
2976.329,401.77457,
2973.419,415.80379,
2970.508,423.18331,
2967.598,465.00743,
2964.687,444.54823,
2961.777,464.65187,
2958.866,452.90528,
2955.955,476.59733,
2953.045,495.55203,
2950.134,502.97302,
2947.224,525.96172,
2944.313,551.59829,
2941.403,546.29745,
2938.492,564.01696,
2935.581,576.27702,
2932.671,569.25433,
2929.760,596.59616,
2926.850,613.57068,
2923.939,598.65188,
2921.028,589.93821,
2918.118,627.26889,
2915.207,614.1297,
2912.297,618.22038,
2909.386,631.86313,
2906.476,624.35114,
2903.565,640.08852,
2900.654,620.61606,
2897.744,619.16199,
2894.833,615.54891,
2891.923,623.4936,
2889.012,597.99567,
2886.102,603.79325,
2883.191,591.25661,
2880.280,570.94855,
2877.370,530.76749,
2874.459,537.5836,
2871.549,599.92128,
2868.638,626.6603,
2865.727,628.75382,
2862.817,628.13504,
2859.906,657.25,
2856.996,655.75679,
2854.085,668.33406,
2851.175,637.6566,
2848.264,651.103,
2845.353,643.84023,
2842.443,628.44443,
2839.532,640.23503,
2836.622,620.1543,
2833.711,601.45723,
2830.801,616.94044,
2827.890,630.49471,
2824.979,622.86787,
2822.069,631.23863,
2819.158,628.72978,
2816.248,632.97395,
2813.337,641.4561,
2810.427,641.46349,
2807.516,652.45859,
2804.605,647.08895,
2801.695,644.06577,
2798.784,633.47177,
2795.874,655.8252,
2792.963,644.53553,
2790.052,625.25322,
2787.142,633.49988,
2784.231,636.15216,
2781.321,637.75288,
2778.410,640.68529,
2775.500,616.63518,
2772.589,635.71177,
2769.678,643.42745,
2766.768,670.16459,
2763.857,645.03998,
2760.947,662.33196,
2758.036,674.40286,
2755.126,679.77778,
2752.215,663.39993,
2749.304,665.22841,
2746.394,661.46169,
2743.483,668.84997,
2740.573,684.00889,
2737.662,673.7071,
2734.751,675.55107,
2731.841,676.49359,
2728.930,689.94088,
2726.020,652.35185,
2723.109,670.07433,
2720.199,689.74066,
2717.288,682.61861,
2714.377,684.73328,
2711.467,721.88956,
2708.556,709.64368,
2705.646,714.01058,
2702.735,733.55926,
2699.825,713.67365,
2696.914,726.15501,
2694.003,736.50691,
2691.093,736.4642,
2688.182,723.55815,
2685.272,727.25,
2682.361,721.73253,
2679.450,707.58747,
2676.540,735.65648,
2673.629,751.5998,
2670.719,750.67329,
2667.808,719.04952,
2664.898,736.06809,
2661.987,735.01654,
2659.076,752.94395,
2656.166,760.78246,
2653.255,775.28232,
2650.345,760.02495,
2647.434,779.67869,
2644.524,773.05331,
2641.613,749.76414,
2638.702,770.87125,
2635.792,794.93694,
2632.881,790.58943,
2629.971,784.25,
2627.060,772.08094,
2624.149,778.38752,
2621.239,774.52223,
2618.328,781.88581,
2615.418,787.95454,
2612.507,769.38835,
2609.597,788.23004,
2606.686,806.49698,
2603.775,795.40873,
2600.865,815.71424,
2597.954,797.39374,
2595.044,807.51838,
2592.133,822.86147,
2589.223,819.68368,
2586.312,820.35046,
2583.401,843.39235,
2580.491,847.25,
2577.580,867.22359,
2574.670,847.65242,
2571.759,840.45205,
2568.848,842.25,
2565.938,868.86922,
2563.027,848.81135,
2560.117,864.68928,
2557.206,873.96218,
2554.296,877.45137,
2551.385,868.79586,
2548.474,859.39833,
2545.564,855.50324,
2542.653,885.95469,
2539.743,891.33626,
2536.832,885.76028,
2533.922,882.12385,
2531.011,883.87419,
2528.100,903.91897,
2525.190,895.29713,
2522.279,895.06241,
2519.369,898.49484,
2516.458,910.80241,
2513.548,921.81343,
2510.637,916.467,
2507.726,896.74444,
2504.816,908.74943,
2501.905,903.62683,
2498.995,927.71253,
2496.084,914.95729,
2493.173,927.90861,
2490.263,917.53131,
2487.352,960.78933,
2484.442,934.36989,
2481.531,956.98931,
2478.621,938.98452,
2475.710,939.23466,
2472.799,940.94951,
2469.889,968.73203,
2466.978,971.81715,
2464.068,969.12303,
2461.157,968.67251,
2458.247,972.22066,
2455.336,976.95254,
2452.425,993.97172,
2449.515,984.72194,
2446.604,1003.7108,
2443.694,1008.2031,
2440.783,1017.2534,
2437.872,1018.8334,
2434.962,1035.038,
2432.051,1036.7623,
2429.141,1007.068,
2426.230,1007.4025,
2423.320,1013.0356,
2420.409,1016.1154,
2417.498,1028.6096,
2414.588,1032.5276,
2411.677,1040.3576,
2408.767,1046.5384,
2405.856,1051.5595,
2402.946,1050.3572,
2400.035,1052.25,
2397.124,1062.7313,
2394.214,1083.1132,
2391.303,1065.5705,
2388.393,1072.9547,
2385.482,1059.0431,
2382.571,1062.2116,
2379.661,1075.3896,
2376.750,1097.7178,
2373.840,1102.9157,
2370.929,1116.0659,
2368.019,1136.6607,
2365.108,1119.5746,
2362.197,1119.0965,
2359.287,1127.4182,
2356.376,1120.2694,
2353.466,1121.4932,
2350.555,1116.5702,
2347.645,1122.6977,
2344.734,1139.1625,
2341.823,1140.3163,
2338.913,1151.7828,
2336.002,1152.0251,
2333.092,1149.3764,
2330.181,1183.4468,
2327.270,1161.1752,
2324.360,1159.1485,
2321.449,1179.0799,
2318.539,1174.3785,
2315.628,1178.8551,
2312.718,1179.1333,
2309.807,1219.6352,
2306.896,1210.2422,
2303.986,1202.0292,
2301.075,1176.1224,
2298.165,1187.3947,
2295.254,1185.4223,
2292.344,1192.3993,
2289.433,1223.5705,
2286.522,1231.0312,
2283.612,1215.7181,
2280.701,1216.3666,
2277.791,1250.0916,
2274.880,1265.7561,
2271.969,1255.8261,
2269.059,1270.1601,
2266.148,1284.1932,
2263.238,1309.8407,
2260.327,1299.1464,
2257.417,1295.1622,
2254.506,1321.7542,
2251.595,1313.2463,
2248.685,1316.25,
2245.774,1317.1511,
2242.864,1293.9732,
2239.953,1331.2018,
2237.043,1317.6261,
2234.132,1324.3201,
2231.221,1337.5394,
2228.311,1333.7706,
2225.400,1345.2069,
2222.490,1373.9795,
2219.579,1375.7642,
2216.669,1396.8382,
2213.758,1405.6461,
2210.847,1413.8016,
2207.937,1409.3722,
2205.026,1445.5829,
2202.116,1459.6587,
2199.205,1476.262,
2196.294,1485.688,
2193.384,1501.5915,
2190.473,1533.9894,
2187.563,1538.5303,
2184.652,1599.1116,
2181.742,1626.7742,
2178.831,1667.8804,
2175.920,1728.9659,
2173.010,1795.0527,
2170.099,1846.379,
2167.189,1987.6805,
2164.278,2061.043,
2161.368,2180.6738,
2158.457,2308.9039,
2155.546,2403.0655,
2152.636,2492.6328,
2149.725,2596.4714,
2146.815,2637.4158,
2143.904,2750.9712,
2140.993,2796.1972,
2138.083,2797.4049,
2135.172,2846.1492,
2132.262,2833.2148,
2129.351,2772.1842,
2126.441,2747.5315,
2123.530,2629.3857,
2120.619,2538.113,
2117.709,2415.2991,
2114.798,2299.9573,
2111.888,2167.9657,
2108.977,2033.4023,
2106.067,1931.0295,
2103.156,1859.2196,
2100.245,1752.2494,
2097.335,1740.7736,
2094.424,1666.1648,
2091.514,1658.6639,
2088.603,1629.0288,
2085.692,1622.0679,
2082.782,1602.8726,
2079.871,1593.6071,
2076.961,1582.9604,
2074.050,1594.8318,
2071.140,1598.2047,
2068.229,1558.6992,
2065.318,1566.3983,
2062.408,1553.9694,
2059.497,1563.8988,
2056.587,1548.3319,
2053.676,1536.8832,
2050.766,1548.3262,
2047.855,1508.0759,
2044.944,1533.4567,
2042.034,1511.458,
2039.123,1510.4722,
2036.213,1540.6523,
2033.302,1543.098,
2030.391,1531.0976,
2027.481,1569.9081,
2024.570,1565.7076,
2021.660,1531.2013,
2018.749,1527.9338,
2015.839,1547.6713,
2012.928,1554.2852,
2010.017,1539.5084,
2007.107,1560.7827,
2004.196,1548.8095,
2001.286,1524.0592,
1998.375,1510.4252,
1995.465,1516.9696,
1992.554,1490.2032,
1989.643,1555.7614,
1986.733,1508.9289,
1983.822,1499.8645,
1980.912,1484.488,
1978.001,1508.2073,
1975.090,1520.4531,
1972.180,1513.4575,
1969.269,1510.0805,
1966.359,1488.8983,
1963.448,1482.0941,
1960.538,1511.0298,
1957.627,1481.5843,
1954.716,1525.8137,
1951.806,1483.2629,
1948.895,1450.0961,
1945.985,1478.1438,
1943.074,1461.6153,
1940.164,1465.6249,
1937.253,1464.1368,
1934.342,1454.0874,
1931.432,1446.7957,
1928.521,1435.7681,
1925.611,1450.477,
1922.700,1434.1326,
1919.790,1446.1978,
1916.879,1466.9248,
1913.968,1465.2537,
1911.058,1465.8626,
1908.147,1441.4675,
1905.237,1413.0294,
1902.326,1419.2396,
1899.415,1403.6098,
1896.505,1405.732,
1893.594,1422.4269,
1890.684,1426.5703,
1887.773,1458.2146,
1884.863,1447.619,
1881.952,1440.1999,
1879.041,1459.8668,
1876.131,1425.1598,
1873.220,1405.7898,
1870.310,1439.5235,
1867.399,1446.186,
1864.489,1428.5615,
1861.578,1432.514,
1858.667,1402.1182,
1855.757,1440.8335,
1852.846,1454.4757,
1849.936,1450.5283,
1847.025,1467.5468,
1844.114,1479.7936,
1841.204,1500.0122,
1838.293,1469.2683,
1835.383,1482.8425,
1832.472,1497.3196,
1829.562,1513.0529,
1826.651,1539.2931,
1823.740,1541.1542,
1820.830,1529.9901,
1817.919,1528.8788,
1815.009,1500.138,
1812.098,1498.8405,
1809.188,1546.1491,
1806.277,1514.0467,
1803.366,1569.8674,
1800.456,1546.6455,
1797.545,1534.2217,
1794.635,1521.3451,
1791.724,1574.0363,
1788.813,1592.042,
1785.903,1569.5949,
1782.992,1571.6166,
1780.082,1571.3131,
1777.171,1590.9084,
1774.261,1561.345,
1771.350,1583.829,
1768.439,1603.3334,
1765.529,1605.8899,
1762.618,1625.8344,
1759.708,1628.3587,
1756.797,1640.2424,
1753.887,1659.7894,
1750.976,1685.5811,
1748.065,1652.6248,
1745.155,1645.6886,
1742.244,1673.1413,
1739.334,1680.5653,
1736.423,1683.0762,
1733.512,1698.8029,
1730.602,1716.2183,
1727.691,1724.0883,
1724.781,1725.25,
1721.870,1752.6121,
1718.960,1735.4053,
1716.049,1763.809,
1713.138,1807.0148,
1710.228,1788.0114,
1707.317,1808.1334,
1704.407,1812.1484,
1701.496,1865.1198,
1698.586,1830.5187,
1695.675,1880.5854,
1692.764,1876.6762,
1689.854,1862.8563,
1686.943,1952.1135,
1684.033,1938.6722,
1681.122,1959.8762,
1678.211,2016.7075,
1675.301,2049.1513,
1672.390,2090.3427,
1669.480,2121.9238,
1666.569,2206.4053,
1663.659,2295.9723,
1660.748,2280.5419,
1657.837,2348.3932,
1654.927,2444.2734,
1652.016,2447.4612,
1649.106,2538.9674,
1646.195,2647.8974,
1643.285,2675.7311,
1640.374,2740.9852,
1637.463,2822.8265,
1634.553,2855.4322,
1631.642,2935.3466,
1628.732,3035.8781,
1625.821,3141.3226,
1622.911,3251.6245,
1620.000,3472.4405,
1617.089,3651.6679,
1614.179,3838.92,
1611.268,4027.1862,
1608.358,4167.6948,
1605.447,4310.9654,
1602.536,4350.0023,
1599.626,4468.1615,
1596.715,4402.9191,
1593.805,4377.3634,
1590.894,4347.0686,
1587.984,4319.8655,
1585.073,4286.4714,
1582.162,4255.3685,
1579.252,4215.0631,
1576.341,4234.4862,
1573.431,4170.7643,
1570.520,4138.2556,
1567.610,4094.7592,
1564.699,4134.1772,
1561.788,4054.9552,
1558.878,3932.6839,
1555.967,3825.8802,
1553.057,3825.3359,
1550.146,3718.0394,
1547.235,3616.4079,
1544.325,3554.8764,
1541.414,3487.3866,
1538.504,3468.4708,
1535.593,3443.1398,
1532.683,3363.2294,
1529.772,3312.8375,
1526.861,3287.2823,
1523.951,3222.6322,
1521.040,3175.9729,
1518.130,3146.5908,
1515.219,3104.5315,
1512.309,3052.9842,
1509.398,3045.3605,
1506.487,3005.1315,
1503.577,3032.5762,
1500.666,3005.8776,
1497.756,2961.9532,
1494.845,2945.7697,
1491.934,2933.6957,
1489.024,2764.2969,
1486.113,2809.2469,
1483.203,2822.1317,
1480.292,2815.6134,
1477.382,2778.6871,
1474.471,2738.0201,
1471.560,2645.5241,
1468.650,2622.4493,
1465.739,2623.688,
1462.829,2621.6532,
1459.918,2607.9902,
1457.008,2596.7423,
1454.097,2589.7798,
1451.186,2574.7645,
1448.276,2571.6294,
1445.365,2592.6086,
1442.455,2608.8834,
1439.544,2595.1546,
1436.633,2565.3185,
1433.723,2581.2741,
1430.812,2521.9992,
1427.902,2481.1824,
1424.991,2478.3391,
1422.081,2442.4684,
1419.170,2423.6969,
1416.259,2405.8588,
1413.349,2412.8234,
1410.438,2313.3824,
1407.528,2314.3119,
1404.617,2376.8262,
1401.707,2383.1123,
1398.796,2350.1451,
1395.885,2367.5613,
1392.975,2403.8536,
1390.064,2391.5508,
1387.154,2384.9395,
1384.243,2276.5593,
1381.332,2254.7833,
1378.422,2307.7517,
1375.511,2472.6251,
1372.601,2553.5835,
1369.690,2699.9773,
1366.780,2720.8739,
1363.869,2792.1712,
1360.958,2901.1168,
1358.048,2957.4895,
1355.137,3018.767,
1352.227,3124.7275,
1349.316,3215.8579,
1346.406,3277.3074,
1343.495,3357.1873,
1340.584,3420.5351,
1337.674,3463.25,
1334.763,3466.5315,
1331.853,3552.764,
1328.942,3562.4762,
1326.032,3625.2372,
1323.121,3720.0151,
1320.210,3790.203,
1317.300,3790.0016,
1314.389,3858.5016,
1311.479,3958.6576,
1308.568,4029.3529,
1305.657,4112.993,
1302.747,4154.715,
1299.836,4264.6408,
1296.926,4370.4622,
1294.015,4590.1806,
1291.105,4616.8608,
1288.194,4760.6275,
1285.283,4896.4904,
1282.373,4991.3045,
1279.462,5074.3078,
1276.552,5162.7069,
1273.641,5205.621,
1270.731,5175.3127,
1267.820,5150.6899,
1264.909,5176.7007,
1261.999,5186.4178,
1259.088,5163.6148,
1256.178,5144.2644,
1253.267,5057.6257,
1250.356,4952.334,
1247.446,4813.9197,
1244.535,4656.5315,
1241.625,4509.7131,
1238.714,4379.348,
1235.804,4259.9686,
1232.893,4172.6368,
1229.982,4115.8157,
1227.072,4014.4207,
1224.161,3923.1996,
1221.251,3857.3679,
1218.340,3781.9469,
1215.430,3756.3059,
1212.519,3708.2771,
1209.608,3669.0563,
1206.698,3703.7817,
1203.787,3674.652,
1200.877,3687.7107,
1197.966,3775.8283,
1195.055,3883.4931,
1192.145,3932.8064,
1189.234,4005.5341,
1186.324,4103.6198,
1183.413,4174.4734,
1180.503,4177.3637,
1177.592,4128.6336,
1174.681,4082.3938,
1171.771,4027.9409,
1168.860,4014.5446,
1165.950,3960.8412,
1163.039,3879.1081,
1160.129,3856.3283,
1157.218,3830.0022,
1154.307,3814.4302,
1151.397,3815.0112,
1148.486,3727.7514,
1145.576,3717.4768,
1142.665,3676.6328,
1139.754,3652.9093,
1136.844,3642.6476,
1133.933,3589.224,
1131.023,3564.1082,
1128.112,3563.7518,
1125.202,3550.9118,
1122.291,3582.1274,
1119.380,3588.276,
1116.470,3590.9236,
1113.559,3659.2959,
1110.649,3629.4817,
1107.738,3632.1842,
1104.828,3633.5323,
1101.917,3607.9426,
1099.006,3628.0025,
1096.096,3636.035,
1093.185,3632.523,
1090.275,3640.3427,
1087.364,3613.4328,
1084.453,3593.5004,
1081.543,3584.7442,
1078.632,3580.25,
1075.722,3581.3784,
1072.811,3589.6629,
1069.901,3637.6922,
1066.990,3661.4583,
1064.079,3676.4577,
1061.169,3709.9697,
1058.258,3724.7803,
1055.348,3740.8821,
1052.437,3807.742,
1049.527,3811.3913,
1046.616,3840.9315,
1043.705,3841.1669,
1040.795,3890.6919,
1037.884,3919.25,
1034.974,3935.6366,
1032.063,3958.7194,
1029.153,3945.9118,
1026.242,3959.7511,
1023.331,3946.9175,
1020.421,3994.4413,
1017.510,4046.5049,
1014.600,4116.3494,
1011.689,4188.0872,
1008.778,4223.1518,
1005.868,4299.0686,
1002.957,4390.2661,
1000.047,4538.9301,
997.136,4718.4617,
994.226,4814.6038,
991.315,4782.2797,
988.404,4685.792,
985.494,4646.0608,
982.583,4592.9544,
979.673,4546.4727,
976.762,4569.8245,
973.852,4575.4755,
970.941,4550.7319,
968.030,4555.1517,
965.120,4560.3001,
962.209,4572.2357,
959.299,4548.0448,
956.388,4526.0507,
953.477,4547.255,
950.567,4569.859,
947.656,4515.5923,
944.746,4541.079,
941.835,4596.5075,
938.925,4596.747,
936.014,4584.6859,
933.103,4572.5412,
930.193,4550.8614,
927.282,4512.0126,
924.372,4489.1812,
921.461,4422.1832,
918.551,4338.252,
915.640,4279.377,
912.729,4252.5411,
909.819,4229.357,
906.908,4192.2903,
903.998,4229.2228,
901.087,4232.8849,
898.176,4258.3589,
895.266,4319.1333,
892.355,4396.4848,
889.445,4477.8937,
886.534,4494.9474,
883.624,4517.0893,
880.713,4542.5814,
877.802,4554.4287,
874.892,4539.3446,
871.981,4502.9085,
869.071,4446.1004,
866.160,4475.5777,
863.250,4486.4354,
860.339,4492.4211,
857.428,4502.3888,
854.518,4451.8167,
851.607,4436.8395,
848.697,4370.283,
845.786,4335.0224,
842.875,4326.1041,
839.965,4327.0754,
837.054,4358.3896,
834.144,4370.8208,
831.233,4392.5819,
828.323,4384.4454,
825.412,4328.9023,
822.501,4252.633,
819.591,4265.8554,
816.680,4254.2307,
813.770,4199.2503,
810.859,4155.6153,
807.949,4125.6426,
805.038,4094.8164,
802.127,4157.3741,
799.217,4135.6705,
796.306,4089.9254,
793.396,4066.5325,
790.485,4075.9875,
787.574,4086.4368,
784.664,4091.3575,
781.753,4055.3459,
778.843,4070.0855,
775.932,4099.0032,
773.022,4083.6997,
770.111,4060.8075,
767.200,4051.6369,
764.290,4054.4509,
761.379,4048.4033,
758.469,4032.4129,
755.558,4027.4265,
752.648,3966.3313,
749.737,3955.5556,
746.826,3906.3643,
743.916,3828.3081,
741.005,3748.8477,
738.095,3523.9578,
735.184,3351.3778,
732.274,3267.481,
729.363,3370.3364,
726.452,3650.2396,
723.542,3821.831,
720.631,3932.9337,
717.721,3960.2401,
714.810,3974.3806,
711.899,3993.2203,
708.989,3954.4879,
706.078,3924.6018,
703.168,3912.9995,
700.257,3904.8866,
697.347,3893.9895,
694.436,3883.2102,
691.525,3918.5776,
688.615,3882.2262,
685.704,3857.5451,
682.794,3860.8883,
679.883,3865.7814,
676.973,3855.3636,
674.062,3876.221,
671.151,3893.195,
668.241,3896.8205,
665.330,3891.7584,
662.420,3881.3749,
659.509,3862.7418,
656.598,3873.5892,
653.688,3887.5977,
650.777,3846.6541,
647.867,3888.0632,
644.956,3854.5286,
642.046,3855.6135,
639.135,3890.0578,
636.224,3874.3495,
633.314,3894.1979,
630.403,3895.1115,
627.493,3914.5263,
624.582,3944.07,
621.672,3916.3502,
618.761,3963.1262,
615.850,3997.5346,
612.940,4013.9331,
610.029,4024.062,
607.119,4076.9673,
604.208,4070.8898,
601.297,4072.7307,
598.387,4073.5174,
595.476,4055.7589,
592.566,4018.7667,
589.655,4031.6867,
586.745,4023.1554,
583.834,3988.3687,
580.923,3953.3637,
578.013,3972.1973,
575.102,3981.2651,
572.192,3969.2441,
569.281,3957.8566,
566.371,4044.7278,
563.460,4068.7703,
560.549,4095.2284,
557.639,4114.6386,
554.728,4111.334,
551.818,4128.5009,
548.907,4141.3912,
545.996,4162.8016,
543.086,4188.4243,
540.175,4193.8749,
537.265,4214.5298,
534.354,4246.3312,
531.444,4271.6433,
528.533,4279.6094,
525.622,4340.9092,
522.712,4365.1716,
519.801,4376.4507,
516.891,4391.8578,
513.980,4434.4441,
511.070,4526.2934,
508.159,4600.0226,
505.248,4650.0141,
502.338,4681.0348,
499.427,4742.0095,
496.517,4818.7752,
493.606,4877.7002,
490.695,4905.8875,
487.785,4932.0604,
484.874,4911.0473,
481.964,4919.675,
479.053,4947.5728,
476.143,4932.2136,
473.232,4885.2082,
470.321,4849.7333,
467.411,4835.5554,
464.500,4848.9288,
461.590,4875.7297,
458.679,4867.8418,
455.769,4879.5099,
452.858,4930.2616,
449.947,4911.1633,
447.037,4919.3852,
444.126,4923.9227,
441.216,4932.008,
438.305,5011.2489,
435.395,5037.3296,
432.484,5023.1621,
429.573,5005.3852,
426.663,5061.6356,
423.752,5062.7629,
420.842,5034.3055,
417.931,5020.1339,
415.020,5083.0776,
412.110,5073.5442,
409.199,5155.8025,
406.289,5260.0248,
403.378,5302.0861,
400.468,5253.7024,
397.557,5224.8821,
394.646,5220.5997,
391.736,5240.2077,
388.825,5145.1746,
385.915,5123.1041,
383.004,5157.0899,
380.094,5233.3576,
377.183,5313.8726,
374.272,5373.7018,
371.362,5433.5054,
368.451,5504.0311,
365.541,5549.8138,
362.630,5573.7211,
359.719,5595.9766,
356.809,5628.4248,
353.898,5664.3671,
350.988,5671.5376,
348.077,5662.5706,
345.167,5646.6663,
342.256,5654.884,
339.345,5648.7471,
336.435,5660.6815,
333.524,5712.8942,
330.614,5765.0551,
327.703,5775.0891,
324.793,5756.3604,
321.882,5719.405,
318.971,5783.3411,
316.061,5823.8059,
313.150,5863.5738,
310.240,5928.88,
307.329,6005.5722,
304.418,6033.8821,
301.508,6022.6007,
298.597,5986.3203,
295.687,6010.3396,
292.776,6079.917,
289.866,6214.5201,
286.955,6476.7677,
284.044,6724.8723,
281.134,6916.8641,
278.223,7066.2909,
275.313,7278.5052,
272.402,7375.5313,
269.492,7502.6025,
266.581,7702.1867,
263.670,7799.2305,
260.760,7903.518,
257.849,7998.9127,
254.939,8072.301,
252.028,8149.9776,
249.117,8181.0773,
246.207,8182.1135,
243.296,8177.7213,
240.386,8137.4175,
237.475,8068.995,
234.565,7987.2682,
231.654,7949.2883,
228.743,7849.1911,
225.833,7771.1884,
222.922,7741.3873,
220.012,7594.2192,
217.101,7503.5577,
214.191,7455.3159,
211.280,7442.2216,
208.369,7348.4018,
205.459,7294.0672,
202.548,7287.2695,
199.638,7327.9059,
196.727,7283.2381,
193.816,7254.4848,
190.906,7280.1546,
187.995,7334.4565,
185.085,7369.3271,
182.174,7387.0541,
179.264,7386.3314,
176.353,7420.8521,
173.442,7462.366,
170.532,7493.4373,
167.621,7426.3866,
164.711,7290.5228,
161.800,7090.6137,
158.890,6816.3975,
155.979,6451.3081,
153.068,5943.359,
150.158,5320.7294,
147.247,4665.239,
144.337,3894.1363,
141.426,3085.1874,
138.516,2268.6483,
135.605,1651.1275,
132.694,1149.3514,
129.784,756.6832,
126.873,492.08516,
123.963,342.07715,
121.052,240.92108,
118.141,169.53088,
115.231,125.19464,
112.320,100.89546,
109.410,88.841119,
106.499,71.037238,
103.589,70.611527,
100.678,66.187836,
97.767,47.703459,
94.857,52.100923,
91.946,49.009559,
89.036,41.701592,
86.125,44.538413,
83.215,38.878956,
80.304,31.573971,
77.393,26.616782,
74.483,31.49108,
71.572,29.17707,
68.662,20.52707,
65.751,23.352874,
62.840,24.731702,
59.930,24.500855,
57.019,21.680527,
54.109,26.027287,
51.198,23.217814,
48.288,9.2726498,
45.377,12.086162,
42.466,14.074439,
39.556,16.05583,
36.645,20.971162,
33.735,21.730752,
30.824,18.599356,
27.914,10.185253,
25.003,16.099012,
22.092,19.281286,
19.182,17.73054,
16.271,32.419833,
13.361,127.17763,
10.450,297.20571,
7.539,575.83354,
4.629,586.291,
1.718,414.71314,
-1.192,44.529391,
-4.103,-28.879788,
-7.013,-31.460949,
-9.924,1.25,
