,PL9E87~1,
Raman shift [1/cm],Intensity,
3014.167,0.75,
3011.256,2.75,
3008.346,72.874558,
3005.435,79.633391,
3002.525,84.845078,
2999.614,69.929254,
2996.704,81.572683,
2993.793,88.13076,
2990.882,88.26906,
2987.972,82.850899,
2985.061,96.543095,
2982.151,94.034038,
2979.240,94.066539,
2976.329,97.75546,
2973.419,114.05809,
2970.508,108.23328,
2967.598,98.415462,
2964.687,103.21196,
2961.777,108.50206,
2958.866,106.07987,
2955.955,112.2677,
2953.045,105.85068,
2950.134,116.20774,
2947.224,131.63612,
2944.313,127.75,
2941.403,119.92838,
2938.492,129.62264,
2935.581,130.41136,
2932.671,129.26931,
2929.760,128.9577,
2926.850,113.74286,
2923.939,144.39019,
2921.028,136.04404,
2918.118,130.01071,
2915.207,131.04108,
2912.297,132.72884,
2909.386,143.14416,
2906.476,141.55618,
2903.565,146.86334,
2900.654,139.75,
2897.744,126.76257,
2894.833,123.62637,
2891.923,126.6699,
2889.012,135.95809,
2886.102,128.29325,
2883.191,121.75094,
2880.280,107.9031,
2877.370,93.395356,
2874.459,62.215479,
2871.549,96.381859,
2868.638,128.06958,
2865.727,127.40769,
2862.817,145.69383,
2859.906,122.91524,
2856.996,146.7183,
2854.085,137.90543,
2851.175,137.75,
2848.264,140.31867,
2845.353,144.51276,
2842.443,140.13886,
2839.532,158.28726,
2836.622,138.75,
2833.711,152.42349,
2830.801,135.97352,
2827.890,141.62765,
2824.979,147.68805,
2822.069,142.94333,
2819.158,153.28908,
2816.248,150.96816,
2813.337,143.1317,
2810.427,161.27204,
2807.516,143.91563,
2804.605,161.29807,
2801.695,147.78947,
2798.784,155.86292,
2795.874,160.16423,
2792.963,168.60702,
2790.052,156.75193,
2787.142,152.01323,
2784.231,152.65374,
2781.321,155.81286,
2778.410,156.75,
2775.500,152.92069,
2772.589,159.01987,
2769.678,172.92745,
2766.768,174.50339,
2763.857,167.27601,
2760.947,167.26576,
2758.036,164.66717,
2755.126,156.60897,
2752.215,164.51379,
2749.304,183.60071,
2746.394,173.80846,
2743.483,171.70003,
2740.573,176.50889,
2737.662,179.51628,
2734.751,173.42473,
2731.841,183.66942,
2728.930,172.09742,
2726.020,174.52546,
2723.109,173.63658,
2720.199,179.04372,
2717.288,179.39963,
2714.377,166.17098,
2711.467,173.47089,
2708.556,184.93105,
2705.646,175.21478,
2702.735,191.40463,
2699.825,184.15184,
2696.914,190.36909,
2694.003,165.57601,
2691.093,185.19645,
2688.182,187.27741,
2685.272,192.51102,
2682.361,187.38537,
2679.450,185.87345,
2676.540,180.75,
2673.629,186.39122,
2670.719,188.75739,
2667.808,188.50682,
2664.898,193.38618,
2661.987,196.94987,
2659.076,199.6056,
2656.166,198.86257,
2653.255,191.86224,
2650.345,202.0785,
2647.434,195.09296,
2644.524,204.1553,
2641.613,199.03535,
2638.702,201.60797,
2635.792,197.18769,
2632.881,199.7916,
2629.971,199.26005,
2627.060,204.41625,
2624.149,206.37188,
2621.239,207.00445,
2618.328,212.21626,
2615.418,215.11817,
2612.507,213.40212,
2609.597,208.12724,
2606.686,212.7761,
2603.775,208.26984,
2600.865,219.98212,
2597.954,212.27705,
2595.044,219.44619,
2592.133,217.64177,
2589.223,206.48472,
2586.312,220.26256,
2583.401,221.85219,
2580.491,228.0096,
2577.580,221.75,
2574.670,218.98263,
2571.759,219.45719,
2568.848,230.68925,
2565.938,225.98815,
2563.027,220.21363,
2560.117,225.92758,
2557.206,244.02306,
2554.296,213.89188,
2551.385,217.63408,
2548.474,228.45372,
2545.564,228.75,
2542.653,237.67617,
2539.743,233.34242,
2536.832,239.34253,
2533.922,233.00231,
2531.011,252.3247,
2528.100,252.68725,
2525.190,249.49344,
2522.279,256.46861,
2519.369,253.16495,
2516.458,265.97734,
2513.548,234.53234,
2510.637,250.75,
2507.726,253.56042,
2504.816,250.74887,
2501.905,248.61951,
2498.995,256.09309,
2496.084,243.29702,
2493.173,261.51391,
2490.263,253.62679,
2487.352,253.95707,
2484.442,248.5658,
2481.531,274.43091,
2478.621,264.91112,
2475.710,281.65799,
2472.799,267.53029,
2469.889,259.78047,
2466.978,268.13135,
2464.068,267.9193,
2461.157,263.17251,
2458.247,264.1618,
2455.336,268.09051,
2452.425,263.29245,
2449.515,272.3446,
2446.604,276.69936,
2443.694,282.93673,
2440.783,289.46284,
2437.872,271.67707,
2434.962,273.95276,
2432.051,283.31168,
2429.141,278.61473,
2426.230,281.48924,
2423.320,280.2067,
2420.409,290.05145,
2417.498,288.91294,
2414.588,291.2101,
2411.677,293.14444,
2408.767,298.18504,
2405.856,285.97141,
2402.946,286.64276,
2400.035,297.33686,
2397.124,283.88368,
2394.214,305.29159,
2391.303,299.20868,
2388.393,304.41284,
2385.482,299.27874,
2382.571,296.05345,
2379.661,303.65705,
2376.750,302.53814,
2373.840,296.55317,
2370.929,321.44677,
2368.019,314.31714,
2365.108,302.4699,
2362.197,333.05694,
2359.287,347.54833,
2356.376,334.77289,
2353.466,325.73457,
2350.555,322.24473,
2347.645,321.99899,
2344.734,325.8099,
2341.823,333.60075,
2338.913,331.68432,
2336.002,330.08729,
2333.092,336.87642,
2330.181,337.75,
2327.270,322.63008,
2324.360,320.30422,
2321.449,342.24321,
2318.539,349.66436,
2315.628,349.23721,
2312.718,348.98348,
2309.807,337.29651,
2306.896,343.99413,
2303.986,341.75,
2301.075,348.53721,
2298.165,353.54809,
2295.254,349.83617,
2292.344,357.60074,
2289.433,335.16319,
2286.522,355.75,
2283.612,347.46938,
2280.701,348.07735,
2277.791,371.6279,
2274.880,348.81592,
2271.969,366.07099,
2269.059,358.57832,
2266.148,361.42279,
2263.238,365.75,
2260.327,387.33615,
2257.417,381.75,
2254.506,378.10896,
2251.595,367.04094,
2248.685,391.4749,
2245.774,393.64025,
2242.864,382.36098,
2239.953,376.06725,
2237.043,378.42571,
2234.132,388.50323,
2231.221,387.90761,
2228.311,404.14689,
2225.400,407.49669,
2222.490,401.16373,
2219.579,409.01477,
2216.669,409.22377,
2213.758,412.79313,
2210.847,420.61649,
2207.937,447.69134,
2205.026,432.86166,
2202.116,421.94532,
2199.205,436.22482,
2196.294,443.68399,
2193.384,453.85501,
2190.473,473.90963,
2187.563,491.68233,
2184.652,478.80428,
2181.742,491.84179,
2178.831,504.35309,
2175.920,499.33288,
2173.010,497.57483,
2170.099,527.94644,
2167.189,523.0442,
2164.278,561.54899,
2161.368,556.17767,
2158.457,573.90275,
2155.546,580.59809,
2152.636,588.14361,
2149.725,612.88421,
2146.815,623.54979,
2143.904,629.66076,
2140.993,652.72358,
2138.083,636.91416,
2135.172,633.19542,
2132.262,627.85827,
2129.351,623.01553,
2126.441,631.70148,
2123.530,585.58164,
2120.619,575.01588,
2117.709,595.94887,
2114.798,565.37676,
2111.888,532.50045,
2108.977,524.65729,
2106.067,492.38138,
2103.156,493.18786,
2100.245,483.75376,
2097.335,488.90707,
2094.424,478.20236,
2091.514,467.3253,
2088.603,471.37674,
2085.692,461.6571,
2082.782,482.90245,
2079.871,456.78385,
2076.961,481.48977,
2074.050,487.26515,
2071.140,481.93358,
2068.229,488.78258,
2065.318,451.812,
2062.408,471.52306,
2059.497,486.14881,
2056.587,487.16858,
2053.676,486.93338,
2050.766,460.90546,
2047.855,476.8322,
2044.944,509.75963,
2042.034,479.95804,
2039.123,473.87121,
2036.213,482.21221,
2033.302,478.83694,
2030.391,482.3262,
2027.481,494.16454,
2024.570,507.02118,
2021.660,495.57781,
2018.749,445.77574,
2015.839,475.65092,
2012.928,506.26678,
2010.017,508.84228,
2007.107,476.16869,
2004.196,477.77381,
2001.286,482.37544,
1998.375,471.52854,
1995.465,486.20178,
1992.554,483.86183,
1989.643,491.43893,
1986.733,479.49912,
1983.822,496.69978,
1980.912,512.77906,
1978.001,483.86874,
1975.090,476.16374,
1972.180,501.16086,
1969.269,503.74703,
1966.359,498.26374,
1963.448,490.94814,
1960.538,479.88094,
1957.627,509.95745,
1954.716,488.4969,
1951.806,484.89903,
1948.895,488.6427,
1945.985,496.17974,
1943.074,498.66518,
1940.164,490.39422,
1937.253,489.31957,
1934.342,492.78422,
1931.432,481.16325,
1928.521,489.88126,
1925.611,472.6399,
1922.700,475.20442,
1919.790,500.28155,
1916.879,490.72649,
1913.968,469.77459,
1911.058,510.02327,
1908.147,498.28867,
1905.237,490.33825,
1902.326,488.83891,
1899.415,461.50121,
1896.505,458.97299,
1893.594,494.4635,
1890.684,497.48219,
1887.773,490.34443,
1884.863,496.64749,
1881.952,486.07758,
1879.041,475.1851,
1876.131,506.13953,
1873.220,480.62597,
1870.310,471.10875,
1867.399,501.2542,
1864.489,481.01007,
1861.578,463.4038,
1858.667,472.53741,
1855.757,494.13067,
1852.846,514.99616,
1849.936,525.44668,
1847.025,533.58215,
1844.114,495.55471,
1841.204,512.08566,
1838.293,521.2658,
1835.383,525.95899,
1832.472,534.78478,
1829.562,527.63958,
1826.651,518.596,
1823.740,525.21362,
1820.830,536.4666,
1817.919,538.75,
1815.009,555.01844,
1812.098,539.79726,
1809.188,600.59481,
1806.277,540.2107,
1803.366,574.50046,
1800.456,558.32111,
1797.545,534.30316,
1794.635,542.20104,
1791.724,558.41991,
1788.813,554.74743,
1785.903,544.40505,
1782.992,537.82303,
1780.082,544.06389,
1777.171,544.07922,
1774.261,532.76508,
1771.350,553.20551,
1768.439,571.19645,
1765.529,580.47967,
1762.618,569.6612,
1759.708,574.95685,
1756.797,606.75,
1753.887,597.15962,
1750.976,582.08443,
1748.065,571.83449,
1745.155,590.46598,
1742.244,586.19658,
1739.334,579.11941,
1736.423,602.35931,
1733.512,604.47356,
1730.602,602.49802,
1727.691,604.28532,
1724.781,626.77414,
1721.870,630.3357,
1718.960,626.46107,
1716.049,655.95309,
1713.138,620.7102,
1710.228,646.82129,
1707.317,627.86657,
1704.407,635.53077,
1701.496,659.53869,
1698.586,671.91383,
1695.675,644.67874,
1692.764,666.41805,
1689.854,649.57282,
1686.943,697.06372,
1684.033,653.89247,
1681.122,671.42714,
1678.211,703.44544,
1675.301,684.80858,
1672.390,708.76196,
1669.480,712.90242,
1666.569,732.10549,
1663.659,759.75,
1660.748,760.98403,
1657.837,822.87521,
1654.927,784.59345,
1652.016,820.57617,
1649.106,853.3583,
1646.195,838.1576,
1643.285,855.38802,
1640.374,882.60366,
1637.463,875.93015,
1634.553,886.11945,
1631.642,911.60777,
1628.732,989.94554,
1625.821,1022.7899,
1622.911,1083.4063,
1620.000,1133.1201,
1617.089,1219.9988,
1614.179,1252.8476,
1611.268,1341.3668,
1608.358,1366.6731,
1605.447,1399.8074,
1602.536,1455.7995,
1599.626,1413.7534,
1596.715,1455.1301,
1593.805,1412.3504,
1590.894,1417.318,
1587.984,1416.1517,
1585.073,1373.2092,
1582.162,1369.9244,
1579.252,1318.3787,
1576.341,1312.3574,
1573.431,1341.1611,
1570.520,1312.0599,
1567.610,1277.6516,
1564.699,1247.9991,
1561.788,1201.018,
1558.878,1204.5501,
1555.967,1211.1073,
1553.057,1165.0953,
1550.146,1142.2082,
1547.235,1142.5693,
1544.325,1097.6385,
1541.414,1095.0733,
1538.504,1104.2807,
1535.593,1078.4986,
1532.683,1084.3694,
1529.772,1095.4189,
1526.861,1095.0036,
1523.951,1109.4954,
1521.040,1125.4805,
1518.130,1148.453,
1515.219,1123.031,
1512.309,1093.696,
1509.398,1115.1872,
1506.487,1126.1202,
1503.577,1120.8073,
1500.666,1129.1684,
1497.756,1100.5974,
1494.845,1097.0291,
1491.934,1055.7343,
1489.024,1050.9218,
1486.113,1066.5127,
1483.203,1102.3885,
1480.292,1071.1125,
1477.382,1037.2696,
1474.471,1065.2821,
1471.560,1028.5817,
1468.650,1035.3479,
1465.739,1046.75,
1462.829,1046.75,
1459.918,1022.4404,
1457.008,1028.1349,
1454.097,1015.7774,
1451.186,979.40377,
1448.276,1007.5674,
1445.365,1027.2121,
1442.455,1004.3032,
1439.544,1009.9362,
1436.633,995.87612,
1433.723,985.39424,
1430.812,940.01117,
1427.902,930.8853,
1424.991,936.57187,
1422.081,952.34711,
1419.170,924.37195,
1416.259,933.52107,
1413.349,920.88994,
1410.438,879.36146,
1407.528,874.69361,
1404.617,896.60246,
1401.707,883.37274,
1398.796,887.23944,
1395.885,896.73409,
1392.975,849.91584,
1390.064,801.68332,
1387.154,736.76624,
1384.243,598.57384,
1381.332,495.6634,
1378.422,455.29999,
1375.511,621.11022,
1372.601,795.16208,
1369.690,851.7539,
1366.780,906.27211,
1363.869,984.13293,
1360.958,1020.6339,
1358.048,1051.6691,
1355.137,1082.9435,
1352.227,1097.5801,
1349.316,1111.4149,
1346.406,1114.1037,
1343.495,1090.7152,
1340.584,1130.0351,
1337.674,1168.7836,
1334.763,1135.7853,
1331.853,1136.7125,
1328.942,1216.8018,
1326.032,1212.8844,
1323.121,1184.5572,
1320.210,1167.759,
1317.300,1175.5546,
1314.389,1175.0137,
1311.479,1176.7985,
1308.568,1176.8191,
1305.657,1152.3452,
1302.747,1150.5697,
1299.836,1163.524,
1296.926,1209.2365,
1294.015,1305.7655,
1291.105,1390.7598,
1288.194,1414.5299,
1285.283,1418.466,
1282.373,1494.0544,
1279.462,1525.1228,
1276.552,1526.3642,
1273.641,1546.5829,
1270.731,1553.3395,
1267.820,1547.1125,
1264.909,1557.101,
1261.999,1508.1508,
1259.088,1491.7326,
1256.178,1495.0323,
1253.267,1471.9669,
1250.356,1435.6281,
1247.446,1451.0864,
1244.535,1446.4777,
1241.625,1411.0611,
1238.714,1391.7682,
1235.804,1377.2549,
1232.893,1364.0012,
1229.982,1357.7381,
1227.072,1327.8628,
1224.161,1295.4919,
1221.251,1239.8679,
1218.340,1206.5547,
1215.430,1191.1436,
1212.519,1180.3169,
1209.608,1180.1288,
1206.698,1209.3675,
1203.787,1253.5842,
1200.877,1218.8176,
1197.966,1284.4563,
1195.055,1332.1189,
1192.145,1348.0148,
1189.234,1386.4336,
1186.324,1425.9338,
1183.413,1443.1916,
1180.503,1445.4363,
1177.592,1446.1944,
1174.681,1432.8082,
1171.771,1399.6154,
1168.860,1437.1252,
1165.950,1430.2682,
1163.039,1380.2586,
1160.129,1382.7543,
1157.218,1393.4619,
1154.307,1388.121,
1151.397,1386.6646,
1148.486,1385.6953,
1145.576,1411.7455,
1142.665,1365.5741,
1139.754,1365.0045,
1136.844,1395.1627,
1133.933,1394.8469,
1131.023,1373.4755,
1128.112,1371.8911,
1125.202,1387.7114,
1122.291,1363.9872,
1119.380,1331.1571,
1116.470,1372.6359,
1113.559,1386.2557,
1110.649,1354.698,
1107.738,1348.0022,
1104.828,1356.5017,
1101.917,1350.6078,
1099.006,1345.4818,
1096.096,1367.5887,
1093.185,1364.9547,
1090.275,1373.652,
1087.364,1343.5022,
1084.453,1351.811,
1081.543,1372.8175,
1078.632,1377.6902,
1075.722,1378.2455,
1072.811,1372.1223,
1069.901,1377.3619,
1066.990,1368.8584,
1064.079,1408.2613,
1061.169,1399.5826,
1058.258,1376.3265,
1055.348,1383.9808,
1052.437,1396.8625,
1049.527,1362.4885,
1046.616,1381.6027,
1043.705,1371.4178,
1040.795,1390.0977,
1037.884,1398.1984,
1034.974,1396.357,
1032.063,1399.3193,
1029.153,1395.8925,
1026.242,1405.407,
1023.331,1386.5846,
1020.421,1417.6051,
1017.510,1441.1541,
1014.600,1454.5169,
1011.689,1465.4604,
1008.778,1474.8814,
1005.868,1504.9971,
1002.957,1532.5284,
1000.047,1536.022,
997.136,1554.5444,
994.226,1561.5039,
991.315,1556.1856,
988.404,1556.8861,
985.494,1531.6349,
982.583,1526.4956,
979.673,1536.7247,
976.762,1522.5498,
973.852,1515.0541,
970.941,1516.7115,
968.030,1505.3512,
965.120,1508.8395,
962.209,1530.1531,
959.299,1547.2067,
956.388,1571.7888,
953.477,1574.4192,
950.567,1550.9987,
947.656,1531.7419,
944.746,1508.8039,
941.835,1519.0874,
938.925,1542.8076,
936.014,1543.1277,
933.103,1557.4666,
930.193,1595.5588,
927.282,1563.9545,
924.372,1512.3724,
921.461,1523.4236,
918.551,1511.1601,
915.640,1502.8493,
912.729,1510.8234,
909.819,1508.4122,
906.908,1467.9758,
903.998,1495.9738,
901.087,1512.0246,
898.176,1524.3851,
895.266,1530.2108,
892.355,1529.1477,
889.445,1552.6472,
886.534,1554.4197,
883.624,1581.6633,
880.713,1597.8121,
877.802,1593.4548,
874.892,1579.3823,
871.981,1576.4677,
869.071,1522.1658,
866.160,1527.9291,
863.250,1544.1857,
860.339,1560.6254,
857.428,1572.4543,
854.518,1562.7019,
851.607,1561.0377,
848.697,1573.8185,
845.786,1572.4845,
842.875,1562.9536,
839.965,1564.7551,
837.054,1596.8151,
834.144,1602.6164,
831.233,1610.4162,
828.323,1601.3857,
825.412,1601.6285,
822.501,1618.1753,
819.591,1559.5009,
816.680,1579.3847,
813.770,1585.3765,
810.859,1575.3715,
807.949,1561.9232,
805.038,1557.5597,
802.127,1539.4509,
799.217,1571.2926,
796.306,1569.6958,
793.396,1564.0325,
790.485,1573.6981,
787.574,1585.5284,
784.664,1606.0312,
781.753,1552.0454,
778.843,1566.3872,
775.932,1609.5155,
773.022,1604.3408,
770.111,1588.8069,
767.200,1567.1946,
764.290,1585.0209,
761.379,1577.5425,
758.469,1538.9593,
755.558,1539.6041,
752.648,1534.7165,
749.737,1478.2629,
746.826,1399.7968,
743.916,1275.8983,
741.005,1063.0593,
738.095,729.37788,
735.184,302.18764,
732.274,225.58282,
729.363,498.16074,
726.452,957.82897,
723.542,1290.4896,
720.631,1438.7216,
717.721,1504.5281,
714.810,1539.7385,
711.899,1581.1758,
708.989,1647.3436,
706.078,1590.0562,
703.168,1585.4655,
700.257,1574.422,
697.347,1562.14,
694.436,1606.9028,
691.525,1612.5294,
688.615,1589.8514,
685.704,1583.5205,
682.794,1597.0266,
679.883,1606.7047,
676.973,1583.465,
674.062,1606.8256,
671.151,1645.1048,
668.241,1668.5085,
665.330,1652.0147,
662.420,1657.6058,
659.509,1640.9719,
656.598,1632.9137,
653.688,1624.4779,
650.777,1589.4502,
647.867,1669.083,
644.956,1691.0841,
642.046,1668.4595,
639.135,1633.1692,
636.224,1634.8654,
633.314,1657.8896,
630.403,1676.7566,
627.493,1673.0755,
624.582,1655.9283,
621.672,1670.1842,
618.761,1697.3479,
615.850,1680.9555,
612.940,1663.4823,
610.029,1675.5892,
607.119,1716.65,
604.208,1678.1492,
601.297,1640.3108,
598.387,1634.3682,
595.476,1669.6358,
592.566,1657.8298,
589.655,1649.2711,
586.745,1622.3157,
583.834,1587.7975,
580.923,1573.6457,
578.013,1556.3816,
575.102,1563.2218,
572.192,1582.8258,
569.281,1609.6394,
566.371,1647.988,
563.460,1691.2562,
560.549,1735.0376,
557.639,1754.3503,
554.728,1730.9179,
551.818,1765.2518,
548.907,1786.1571,
545.996,1800.1931,
543.086,1813.1118,
540.175,1833.3566,
537.265,1795.6389,
534.354,1780.75,
531.444,1794.6829,
528.533,1829.7015,
525.622,1814.9585,
522.712,1820.8513,
519.801,1818.3486,
516.891,1805.063,
513.980,1806.6116,
511.070,1834.9239,
508.159,1855.3462,
505.248,1861.4953,
502.338,1852.857,
499.427,1890.6768,
496.517,1923.3762,
493.606,1913.4942,
490.695,1869.5926,
487.785,1940.4133,
484.874,1922.0237,
481.964,1926.9292,
479.053,1945.5347,
476.143,1898.6889,
473.232,1923.0873,
470.321,1937.6426,
467.411,1937.1913,
464.500,1922.4313,
461.590,1870.3609,
458.679,1894.2706,
455.769,1924.1747,
452.858,1924.3291,
449.947,1958.706,
447.037,1953.6148,
444.126,1949.447,
441.216,1952.4428,
438.305,1933.3945,
435.395,1945.174,
432.484,1948.1657,
429.573,1941.395,
426.663,1939.8747,
423.752,1911.8532,
420.842,1876.9157,
417.931,1853.413,
415.020,1866.3051,
412.110,1924.5474,
409.199,1979.0018,
406.289,2002.189,
403.378,1966.7193,
400.468,1957.6473,
397.557,1919.7878,
394.646,1864.125,
391.736,1798.4281,
388.825,1663.4207,
385.915,1574.7882,
383.004,1584.29,
380.094,1719.7041,
377.183,1797.2091,
374.272,1882.7981,
371.362,1952.3494,
368.451,1991.8016,
365.541,2025.5757,
362.630,2048.9523,
359.719,2069.0371,
356.809,2089.1578,
353.898,2095.897,
350.988,2118.3645,
348.077,2115.4214,
345.167,2067.0745,
342.256,2093.2218,
339.345,2101.8129,
336.435,2105.8035,
333.524,2113.4212,
330.614,2102.989,
327.703,2095.1294,
324.793,2086.1098,
321.882,2072.7788,
318.971,2084.6739,
316.061,2100.9579,
313.150,2114.2119,
310.240,2115.6961,
307.329,2112.1768,
304.418,2083.8488,
301.508,2007.836,
298.597,1842.7231,
295.687,1774.5708,
292.776,1724.9999,
289.866,1730.8283,
286.955,1916.2484,
284.044,2111.6273,
281.134,2269.7366,
278.223,2385.7615,
275.313,2481.5527,
272.402,2553.4504,
269.492,2629.0892,
266.581,2717.5831,
263.670,2799.1881,
260.760,2825.3619,
257.849,2825.1837,
254.939,2817.8449,
252.028,2822.8169,
249.117,2808.3042,
246.207,2805.797,
243.296,2871.6803,
240.386,2838.9175,
237.475,2811.9872,
234.565,2795.3878,
231.654,2748.6433,
228.743,2728.3934,
225.833,2705.5052,
222.922,2671.4295,
220.012,2686.0006,
217.101,2663.2699,
214.191,2613.1125,
211.280,2541.0937,
208.369,2570.0635,
205.459,2578.3657,
202.548,2565.2486,
199.638,2562.346,
196.727,2559.4451,
193.816,2548.4183,
190.906,2527.4865,
187.995,2548.4832,
185.085,2583.6485,
182.174,2620.2347,
179.264,2640.4722,
176.353,2606.2256,
173.442,2562.9089,
170.532,2520.0618,
167.621,2496.9906,
164.711,2446.0767,
161.800,2368.3938,
158.890,2258.9952,
155.979,2088.7344,
153.068,1909.8303,
150.158,1714.7541,
147.247,1462.0349,
144.337,1201.654,
141.426,941.90076,
138.516,686.68748,
135.605,490.48172,
132.694,336.58234,
129.784,219.72248,
126.873,137.48255,
123.963,95.710914,
121.052,70.234348,
118.141,53.814602,
115.231,41.670304,
112.320,37.173636,
109.410,35.15925,
106.499,21.628301,
103.589,23.232036,
100.678,21.045944,
97.767,6.1162551,
94.857,14.065869,
91.946,19.765554,
89.036,20.943633,
86.125,9.5963491,
83.215,9.4046018,
80.304,11.989433,
77.393,12.697603,
74.483,14.715405,
71.572,14.300592,
68.662,11.265128,
65.751,6.31997,
62.840,7.6402119,
59.930,11.686431,
57.019,15.211841,
54.109,7.986909,
51.198,4.8612649,
48.288,9.7726498,
45.377,12.586162,
42.466,12.925561,
39.556,11.404644,
36.645,9.2980736,
33.735,9.7884969,
30.824,11.412661,
27.914,13.516187,
25.003,13.75,
22.092,18.593568,
19.182,29.23054,
16.271,43.919833,
13.361,164.38657,
10.450,423.79111,
7.539,1016.6608,
4.629,1620.9854,
1.718,1940.5454,
-1.192,1607.3104,
-4.103,932.77373,
-7.013,365.44228,
-9.924,0.75,
