,PL98F1~1,
Wavenumbers [1/cm],Intensity,
3014.167,-2.625,
3011.256,0.72496779,
3008.346,40.134377,
3005.435,28.530479,
3002.525,47.470078,
2999.614,55.998364,
2996.704,53.145101,
2993.793,49.260368,
2990.882,47.023825,
2987.972,55.279146,
2985.061,37.261701,
2982.151,39.255673,
2979.240,62.123086,
2976.329,67.86681,
2973.419,66.267427,
2970.508,68.77496,
2967.598,56.136044,
2964.687,58.061141,
2961.777,53.597102,
2958.866,71.707838,
2955.955,77.68694,
2953.045,75.108784,
2950.134,74.736508,
2947.224,71.403469,
2944.313,80.015314,
2941.403,91.113138,
2938.492,82.247636,
2935.581,86.557828,
2932.671,85.018811,
2929.760,95.821141,
2926.850,84.584023,
2923.939,96.496507,
2921.028,96.769172,
2918.118,81.176009,
2915.207,85.254696,
2912.297,93.328456,
2909.386,93.207107,
2906.476,91.863783,
2903.565,79.794259,
2900.654,81.375,
2897.744,90.161272,
2894.833,73.375,
2891.923,71.753199,
2889.012,57.369221,
2886.102,63.689878,
2883.191,34.394824,
2880.280,-0.49582619,
2877.370,-147.49671,
2874.459,-278.88256,
2871.549,-143.18973,
2868.638,-9.8456752,
2865.727,30.590346,
2862.817,50.018045,
2859.906,69.337954,
2856.996,92.375,
2854.085,101.17754,
2851.175,88.043642,
2848.264,91.953336,
2845.353,83.022011,
2842.443,108.38196,
2839.532,88.404936,
2836.622,98.526693,
2833.711,97.271387,
2830.801,90.878675,
2827.890,99.020098,
2824.979,99.868969,
2822.069,94.602442,
2819.158,108.67419,
2816.248,109.83447,
2813.337,104.35427,
2810.427,101.63257,
2807.516,97.274376,
2804.605,107.76202,
2801.695,97.453931,
2798.784,97.857538,
2795.874,111.10061,
2792.963,100.375,
2790.052,115.37178,
2787.142,101.76985,
2784.231,109.82687,
2781.321,109.12356,
2778.410,106.61992,
2775.500,106.07741,
2772.589,103.1831,
2769.678,107.51835,
2766.768,100.50509,
2763.857,105.69099,
2760.947,103.34978,
2758.036,122.24775,
2755.126,105.0374,
2752.215,120.6296,
2749.304,118.26889,
2746.394,112.95162,
2743.483,117.42497,
2740.573,117.93914,
2737.662,112.92826,
2734.751,114.16622,
2731.841,113.69917,
2728.930,107.41727,
2726.020,122.48727,
2723.109,108.30309,
2720.199,119.88434,
2717.288,124.8312,
2714.377,120.89172,
2711.467,114.76841,
2708.556,111.16237,
2705.646,121.58631,
2702.735,119.55284,
2699.825,128.41863,
2696.914,127.18455,
2694.003,128.88882,
2691.093,127.91051,
2688.182,123.90241,
2685.272,130.57842,
2682.361,124.13373,
2679.450,119.17339,
2676.540,108.72051,
2673.629,125.375,
2670.719,117.66705,
2667.808,127.64547,
2664.898,119.63473,
2661.987,121.50836,
2659.076,125.86638,
2656.166,136.29283,
2653.255,130.8512,
2650.345,144.59097,
2647.434,133.20352,
2644.524,126.35579,
2641.613,142.37563,
2638.702,125.81687,
2635.792,126.99814,
2632.881,136.17866,
2629.971,134.11998,
2627.060,143.54094,
2624.149,144.32188,
2621.239,135.36907,
2618.328,129.7141,
2615.418,139.36591,
2612.507,145.8572,
2609.597,131.02769,
2606.686,139.04972,
2603.775,145.41071,
2600.865,152.78121,
2597.954,145.99788,
2595.044,152.42814,
2592.133,133.64882,
2589.223,142.7487,
2586.312,156.81221,
2583.401,145.27281,
2580.491,143.47116,
2577.580,140.3783,
2574.670,142.65174,
2571.759,143.92551,
2568.848,142.72858,
2565.938,153.42269,
2563.027,147.30225,
2560.117,140.93572,
2557.206,160.59271,
2554.296,149.40475,
2551.385,152.62298,
2548.474,171.48653,
2545.564,166.81818,
2542.653,171.06963,
2539.743,160.53519,
2536.832,157.19183,
2533.922,159.50115,
2531.011,171.49965,
2528.100,162.6502,
2525.190,165.13934,
2522.279,157.4219,
2519.369,158.07313,
2516.458,147.36792,
2513.548,171.73818,
2510.637,164.72762,
2507.726,182.87685,
2504.816,167.24873,
2501.905,170.7372,
2498.995,149.92769,
2496.084,174.375,
2493.173,161.11142,
2490.263,167.12757,
2487.352,182.58207,
2484.442,164.0902,
2481.531,176.01317,
2478.621,162.03841,
2475.710,178.29065,
2472.799,168.36154,
2469.889,170.40547,
2466.978,163.60186,
2464.068,169.0364,
2461.157,176.02753,
2458.247,176.34566,
2455.336,181.73703,
2452.425,183.04953,
2449.515,182.00701,
2446.604,181.49019,
2443.694,177.23518,
2440.783,182.71059,
2437.872,188.93742,
2434.962,178.95103,
2432.051,185.32565,
2429.141,189.51027,
2426.230,183.83134,
2423.320,194.4176,
2420.409,199.32383,
2417.498,200.14468,
2414.588,191.02526,
2411.677,186.84116,
2408.767,203.42224,
2405.856,211.62264,
2402.946,208.05954,
2400.035,196.6872,
2397.124,208.16109,
2394.214,208.21141,
2391.303,191.62365,
2388.393,184.64243,
2385.482,167.12405,
2382.571,150.40062,
2379.661,143.72378,
2376.750,156.32077,
2373.840,197.45609,
2370.929,207.375,
2368.019,216.2186,
2365.108,212.56086,
2362.197,214.375,
2359.287,208.7867,
2356.376,228.33802,
2353.466,221.17809,
2350.555,216.02984,
2347.645,202.27037,
2344.734,207.61926,
2341.823,215.29208,
2338.913,224.42126,
2336.002,222.04958,
2333.092,219.858,
2330.181,224.46447,
2327.270,207.64012,
2324.360,233.66035,
2321.449,247.72874,
2318.539,238.71443,
2315.628,232.07244,
2312.718,228.84196,
2309.807,233.57994,
2306.896,234.35935,
2303.986,225.76459,
2301.075,232.24731,
2298.165,239.97118,
2295.254,227.65506,
2292.344,241.69035,
2289.433,239.34409,
2286.522,240.10261,
2283.612,258.03573,
2280.701,252.85484,
2277.791,250.375,
2274.880,246.30908,
2271.969,230.21451,
2269.059,241.78101,
2266.148,237.78402,
2263.238,234.17423,
2260.327,246.85782,
2257.417,252.66333,
2254.506,250.375,
2251.595,244.66594,
2248.685,259.52493,
2245.774,251.05658,
2242.864,253.02337,
2239.953,261.23709,
2237.043,259.71285,
2234.132,251.26077,
2231.221,249.90217,
2228.311,283.81955,
2225.400,267.26242,
2222.490,262.81798,
2219.579,266.18737,
2216.669,276.37977,
2213.758,266.24296,
2210.847,262.98709,
2207.937,302.70557,
2205.026,285.4852,
2202.116,303.03319,
2199.205,283.19994,
2196.294,283.251,
2193.384,283.796,
2190.473,291.23885,
2187.563,314.46684,
2184.652,329.30848,
2181.742,301.35165,
2178.831,294.65129,
2175.920,301.375,
2173.010,321.67659,
2170.099,338.90725,
2167.189,321.59027,
2164.278,349.32073,
2161.368,341.94588,
2158.457,344.47883,
2155.546,345.82887,
2152.636,360.55584,
2149.725,365.70386,
2146.815,387.64088,
2143.904,381.38242,
2140.993,395.88298,
2138.083,379.63338,
2135.172,384.76164,
2132.262,380.22447,
2129.351,404.86831,
2126.441,391.63706,
2123.530,396.3301,
2120.619,387.6963,
2117.709,358.63869,
2114.798,358.98653,
2111.888,346.58802,
2108.977,342.36838,
2106.067,324.38204,
2103.156,344.64989,
2100.245,316.37563,
2097.335,317.85667,
2094.424,320.17825,
2091.514,312.08464,
2088.603,315.29201,
2085.692,317.91781,
2082.782,304.30677,
2079.871,316.16146,
2076.961,310.02078,
2074.050,302.45379,
2071.140,288.07586,
2068.229,313.36197,
2065.318,333.96801,
2062.408,333.0036,
2059.497,331.5893,
2056.587,329.99138,
2053.676,319.20883,
2050.766,328.45123,
2047.855,314.9161,
2044.944,330.84776,
2042.034,316.74497,
2039.123,330.83628,
2036.213,324.35936,
2033.302,323.74421,
2030.391,329.20589,
2027.481,337.7407,
2024.570,322.30413,
2021.660,329.66545,
2018.749,337.61519,
2015.839,318.64403,
2012.928,327.96058,
2010.017,342.98628,
2007.107,317.18808,
2004.196,314.44644,
2001.286,334.89794,
1998.375,327.58661,
1995.465,324.88125,
1992.554,313.22805,
1989.643,315.23675,
1986.733,309.73289,
1983.822,303.45329,
1980.912,324.12664,
1978.001,291.88335,
1975.090,298.96889,
1972.180,300.89229,
1969.269,309.9986,
1966.359,294.672,
1963.448,304.29046,
1960.538,306.69443,
1957.627,296.45858,
1954.716,298.28882,
1951.806,291.07693,
1948.895,285.88511,
1945.985,291.41748,
1943.074,297.13149,
1940.164,293.15389,
1937.253,287.76649,
1934.342,273.34933,
1931.432,283.07532,
1928.521,280.68588,
1925.611,288.79044,
1922.700,285.6692,
1919.790,277.34617,
1916.879,267.07249,
1913.968,271.36885,
1911.058,292.78941,
1908.147,275.95461,
1905.237,299.07344,
1902.326,244.05648,
1899.415,225.28473,
1896.505,196.72443,
1893.594,209.4604,
1890.684,231.7344,
1887.773,253.92643,
1884.863,280.87158,
1881.952,273.93767,
1879.041,253.51466,
1876.131,265.66258,
1873.220,243.22445,
1870.310,284.85922,
1867.399,291.32702,
1864.489,264.25817,
1861.578,263.80338,
1858.667,283.70736,
1855.757,260.58144,
1852.846,260.66216,
1849.936,278.44508,
1847.025,264.43583,
1844.114,266.64092,
1841.204,296.00437,
1838.293,292.90577,
1835.383,280.38649,
1832.472,303.75935,
1829.562,311.90338,
1826.651,308.00745,
1823.740,308.10297,
1820.830,302.20172,
1817.919,270.24307,
1815.009,286.49332,
1812.098,294.86319,
1809.188,321.6385,
1806.277,260.79144,
1803.366,306.90919,
1800.456,280.5291,
1797.545,302.31107,
1794.635,321.504,
1791.724,321.38472,
1788.813,315.97449,
1785.903,297.96038,
1782.992,247.32583,
1780.082,218.92224,
1777.171,108.02755,
1774.261,77.640449,
1771.350,167.82252,
1768.439,282.12468,
1765.529,343.10467,
1762.618,359.34125,
1759.708,338.91826,
1756.797,343.11743,
1753.887,355.34876,
1750.976,346.01636,
1748.065,353.59159,
1745.155,372.1491,
1742.244,373.41577,
1739.334,351.20324,
1736.423,387.59363,
1733.512,379.45216,
1730.602,385.83137,
1727.691,372.18349,
1724.781,395.47833,
1721.870,396.1321,
1718.960,424.79759,
1716.049,407.04473,
1713.138,384.42009,
1710.228,383.11559,
1707.317,387.79786,
1704.407,394.66378,
1701.496,413.60596,
1698.586,410.75508,
1695.675,406.63217,
1692.764,410.16189,
1689.854,392.19782,
1686.943,425.1946,
1684.033,416.62336,
1681.122,464.54237,
1678.211,431.69859,
1675.301,444.33492,
1672.390,446.26135,
1669.480,408.86434,
1666.569,469.94632,
1663.659,514.04835,
1660.748,494.85704,
1657.837,518.67517,
1654.927,487.63272,
1652.016,498.98248,
1649.106,523.25259,
1646.195,519.02236,
1643.285,546.37761,
1640.374,588.83145,
1637.463,563.66323,
1634.553,580.63112,
1631.642,664.49444,
1628.732,675.33945,
1625.821,669.38874,
1622.911,690.25666,
1620.000,743.69467,
1617.089,755.15609,
1614.179,795.21876,
1611.268,878.21488,
1608.358,912.82984,
1605.447,941.71808,
1602.536,977.85482,
1599.626,1001.5335,
1596.715,1023.3422,
1593.805,994.07338,
1590.894,1028.2438,
1587.984,1057.6256,
1585.073,966.93434,
1582.162,979.59601,
1579.252,927.27562,
1576.341,919.98244,
1573.431,890.83121,
1570.520,851.03554,
1567.610,890.55223,
1564.699,871.84854,
1561.788,847.81172,
1558.878,846.10605,
1555.967,805.09246,
1553.057,779.54745,
1550.146,781.67681,
1547.235,764.3039,
1544.325,776.38947,
1541.414,802.85569,
1538.504,789.36431,
1535.593,764.07128,
1532.683,776.12895,
1529.772,786.4377,
1526.861,783.85883,
1523.951,819.9111,
1521.040,829.98703,
1518.130,816.08482,
1515.219,845.25508,
1512.309,837.91553,
1509.398,813.41891,
1506.487,780.07543,
1503.577,810.08109,
1500.666,803.78608,
1497.756,771.3416,
1494.845,816.57347,
1491.934,749.19232,
1489.024,693.36773,
1486.113,773.89718,
1483.203,760.83531,
1480.292,693.03962,
1477.382,758.15858,
1474.471,705.77613,
1471.560,670.58734,
1468.650,664.69173,
1465.739,666.29647,
1462.829,663.19728,
1459.918,689.65702,
1457.008,705.75952,
1454.097,694.21558,
1451.186,691.4543,
1448.276,671.12994,
1445.365,611.76442,
1442.455,565.45525,
1439.544,552.15066,
1436.633,550.50112,
1433.723,548.86746,
1430.812,567.33547,
1427.902,579.48775,
1424.991,584.22656,
1422.081,544.00601,
1419.170,552.47184,
1416.259,604.59891,
1413.349,558.22144,
1410.438,572.96442,
1407.528,576.43139,
1404.617,587.40172,
1401.707,576.58756,
1398.796,515.30867,
1395.885,476.81601,
1392.975,490.56263,
1390.064,492.25467,
1387.154,478.87009,
1384.243,459.0976,
1381.332,418.15768,
1378.422,405.95975,
1375.511,359.1207,
1372.601,488.31642,
1369.690,496.80333,
1366.780,499.54314,
1363.869,506.18682,
1360.958,539.40517,
1358.048,561.90143,
1355.137,591.08215,
1352.227,628.47313,
1349.316,653.76275,
1346.406,666.65225,
1343.495,675.35411,
1340.584,697.30329,
1337.674,721.16385,
1334.763,768.81044,
1331.853,753.97474,
1328.942,757.82232,
1326.032,773.05617,
1323.121,754.14607,
1320.210,805.64195,
1317.300,814.71688,
1314.389,849.1954,
1311.479,886.20031,
1308.568,887.30588,
1305.657,902.78915,
1302.747,897.93269,
1299.836,955.25215,
1296.926,955.01594,
1294.015,968.80579,
1291.105,1008.9994,
1288.194,1045.526,
1285.283,1024.7349,
1282.373,1041.8515,
1279.462,1082.5314,
1276.552,1096.3356,
1273.641,1080.6441,
1270.731,1056.966,
1267.820,1034.5827,
1264.909,1036.3421,
1261.999,1042.7092,
1259.088,1024.4668,
1256.178,1086.7528,
1253.267,1059.0152,
1250.356,1039.248,
1247.446,1026.5741,
1244.535,1003.5268,
1241.625,999.29348,
1238.714,1005.6092,
1235.804,985.89436,
1232.893,1016.375,
1229.982,1016.8043,
1227.072,1029.4787,
1224.161,990.03082,
1221.251,963.01776,
1218.340,936.94064,
1215.430,947.29534,
1212.519,952.60325,
1209.608,936.9575,
1206.698,931.05577,
1203.787,922.46545,
1200.877,928.15212,
1197.966,924.55548,
1195.055,942.29322,
1192.145,977.68277,
1189.234,1044.8199,
1186.324,1087.3762,
1183.413,1117.6897,
1180.503,1145.3985,
1177.592,1149.8397,
1174.681,1146.3065,
1171.771,1111.0865,
1168.860,1098.5833,
1165.950,1124.7888,
1163.039,1103.4389,
1160.129,1096.6837,
1157.218,1104.7016,
1154.307,1121.6188,
1151.397,1142.8964,
1148.486,1147.3721,
1145.576,1163.2957,
1142.665,1138.4341,
1139.754,1190.8881,
1136.844,1148.7514,
1133.933,1147.6622,
1131.023,1129.3841,
1128.112,1093.8746,
1125.202,1098.6165,
1122.291,1098.7483,
1119.380,1094.4183,
1116.470,1098.8309,
1113.559,1068.445,
1110.649,1059.375,
1107.738,1074.3779,
1104.828,1069.4827,
1101.917,1039.9369,
1099.006,1033.5811,
1096.096,1052.6225,
1093.185,1040.3304,
1090.275,1083.0756,
1087.364,1087.886,
1084.453,1099.4366,
1081.543,1112.1279,
1078.632,1115.6286,
1075.722,1125.5213,
1072.811,1155.3822,
1069.901,1141.41,
1066.990,1112.8917,
1064.079,1113.8607,
1061.169,1090.8645,
1058.258,1081.6561,
1055.348,1099.2569,
1052.437,1094.1595,
1049.527,1058.3149,
1046.616,1082.6421,
1043.705,1106.1857,
1040.795,1085.5578,
1037.884,1075.4324,
1034.974,1071.4369,
1032.063,1066.6285,
1029.153,1096.363,
1026.242,1071.2793,
1023.331,1075.3747,
1020.421,1092.4083,
1017.510,1124.5874,
1014.600,1154.1024,
1011.689,1154.2618,
1008.778,1121.0818,
1005.868,1118.8113,
1002.957,1056.0054,
1000.047,1089.327,
997.136,1164.6949,
994.226,1206.8211,
991.315,1200.0681,
988.404,1180.1324,
985.494,1163.2983,
982.583,1159.8721,
979.673,1156.4484,
976.762,1151.8524,
973.852,1151.143,
970.941,1155.4497,
968.030,1155.716,
965.120,1129.4788,
962.209,1154.2025,
959.299,1170.4152,
956.388,1182.0946,
953.477,1188.6081,
950.567,1196.6492,
947.656,1212.3696,
944.746,1197.0776,
941.835,1204.4731,
938.925,1231.3809,
936.014,1225.1536,
933.103,1210.6121,
930.193,1217.9755,
927.282,1215.9625,
924.372,1208.3521,
921.461,1218.421,
918.551,1175.9003,
915.640,1152.5736,
912.729,1158.3243,
909.819,1139.0439,
906.908,1159.2621,
903.998,1173.8962,
901.087,1160.8258,
898.176,1151.8522,
895.266,1154.5968,
892.355,1158.9038,
889.445,1156.386,
886.534,1188.1001,
883.624,1214.56,
880.713,1222.8439,
877.802,1192.5415,
874.892,1109.6949,
871.981,978.52804,
869.071,815.62253,
866.160,843.95169,
863.250,985.74802,
860.339,1117.5071,
857.428,1174.1318,
854.518,1213.8825,
851.607,1162.2943,
848.697,1077.0273,
845.786,1001.3767,
842.875,1017.555,
839.965,1132.5647,
837.054,1198.0728,
834.144,1260.2292,
831.233,1297.7065,
828.323,1287.1301,
825.412,1266.9166,
822.501,1280.7794,
819.591,1316.3146,
816.680,1274.1057,
813.770,1270.893,
810.859,1267.2527,
807.949,1249.1067,
805.038,1226.1803,
802.127,1216.3028,
799.217,1224.3197,
796.306,1208.6451,
793.396,1218.5127,
790.485,1249.0047,
787.574,1222.7139,
784.664,1257.9787,
781.753,1286.5175,
778.843,1289.5337,
775.932,1283.8441,
773.022,1286.2051,
770.111,1265.7656,
767.200,1261.3298,
764.290,1266.1538,
761.379,1264.8609,
758.469,1260.1418,
755.558,1274.3264,
752.648,1272.6972,
749.737,1239.7355,
746.826,1235.8954,
743.916,1228.4786,
741.005,1172.1261,
738.095,1196.4825,
735.184,1142.1702,
732.274,1095.1837,
729.363,1090.1865,
726.452,1129.953,
723.542,1166.3757,
720.631,1208.131,
717.721,1256.4643,
714.810,1286.8011,
711.899,1297.2661,
708.989,1318.2462,
706.078,1299.1437,
703.168,1311.3772,
700.257,1309.5853,
697.347,1292.4618,
694.436,1295.6549,
691.525,1269.1293,
688.615,1270.9219,
685.704,1293.9378,
682.794,1325.3962,
679.883,1346.6449,
676.973,1308.1791,
674.062,1307.3939,
671.151,1304.8,
668.241,1295.8985,
665.330,1294.9801,
662.420,1307.7598,
659.509,1309.1051,
656.598,1322.223,
653.688,1344.0557,
650.777,1357.2391,
647.867,1382.7216,
644.956,1371.0388,
642.046,1308.1356,
639.135,1237.3095,
636.224,1248.5501,
633.314,1283.4834,
630.403,1321.9355,
627.493,1346.5998,
624.582,1343.487,
621.672,1299.1353,
618.761,1288.2557,
615.850,1333.8619,
612.940,1375.4242,
610.029,1375.5608,
607.119,1352.6616,
604.208,1364.5753,
601.297,1379.8468,
598.387,1376.4766,
595.476,1343.7065,
592.566,1336.6229,
589.655,1360.6427,
586.745,1369.1674,
583.834,1356.2266,
580.923,1334.5646,
578.013,1365.9539,
575.102,1346.2692,
572.192,1341.8101,
569.281,1372.4998,
566.371,1378.7608,
563.460,1418.8812,
560.549,1414.9093,
557.639,1412.7116,
554.728,1464.833,
551.818,1456.2495,
548.907,1412.3255,
545.996,1396.6499,
543.086,1410.5165,
540.175,1392.6076,
537.265,1399.3421,
534.354,1400.3682,
531.444,1400.0469,
528.533,1406.3064,
525.622,1433.4645,
522.712,1406.6103,
519.801,1387.6663,
516.891,1393.4096,
513.980,1403.4754,
511.070,1369.1576,
508.159,1383.5066,
505.248,1425.6399,
502.338,1454.9743,
499.427,1407.1207,
496.517,1407.9507,
493.606,1416.356,
490.695,1415.9055,
487.785,1441.3086,
484.874,1440.8514,
481.964,1417.1958,
479.053,1391.236,
476.143,1407.3632,
473.232,1406.9362,
470.321,1415.1334,
467.411,1423.6152,
464.500,1421.1423,
461.590,1411.9534,
458.679,1421.4815,
455.769,1427.5942,
452.858,1420.409,
449.947,1430.3401,
447.037,1414.7789,
444.126,1412.6174,
441.216,1429.8302,
438.305,1438.2114,
435.395,1411.1826,
432.484,1398.4588,
429.573,1389.6599,
426.663,1339.4906,
423.752,1160.3228,
420.842,907.63752,
417.931,664.83921,
415.020,550.32714,
412.110,954.61513,
409.199,1224.1793,
406.289,1341.9956,
403.378,1319.1701,
400.468,1258.6905,
397.557,1258.3985,
394.646,1315.1608,
391.736,1420.8096,
388.825,1434.3858,
385.915,1407.5078,
383.004,1390.369,
380.094,1415.8357,
377.183,1424.8654,
374.272,1401.3215,
371.362,1403.5098,
368.451,1459.6881,
365.541,1431.9183,
362.630,1431.4761,
359.719,1445.3661,
356.809,1462.5173,
353.898,1431.8166,
350.988,1437.4797,
348.077,1448.2134,
345.167,1443.8613,
342.256,1413.9786,
339.345,1439.3867,
336.435,1455.773,
333.524,1420.6803,
330.614,1430.3674,
327.703,1449.804,
324.793,1469.7575,
321.882,1482.3768,
318.971,1483.1202,
316.061,1483.8633,
313.150,1489.6869,
310.240,1506.7556,
307.329,1531.6727,
304.418,1555.9655,
301.508,1568.255,
298.597,1549.0041,
295.687,1546.0205,
292.776,1555.7917,
289.866,1580.3392,
286.955,1627.6176,
284.044,1683.71,
281.134,1734.222,
278.223,1772.2372,
275.313,1778.1321,
272.402,1792.7358,
269.492,1792.2357,
266.581,1766.4863,
263.670,1712.0829,
260.760,1752.7924,
257.849,1828.2413,
254.939,1896.4924,
252.028,1876.3835,
249.117,1851.9292,
246.207,1844.8761,
243.296,1893.1905,
240.386,1915.3528,
237.475,1915.1545,
234.565,1901.5253,
231.654,1908.8292,
228.743,1912.6765,
225.833,1899.4351,
222.922,1866.9378,
220.012,1900.4513,
217.101,1912.3564,
214.191,1903.1027,
211.280,1868.9119,
208.369,1834.08,
205.459,1788.4312,
202.548,1759.4196,
199.638,1852.3027,
196.727,1816.6345,
193.816,1801.0589,
190.906,1855.7847,
187.995,1781.9342,
185.085,1782.8549,
182.174,1817.0762,
179.264,1834.4226,
176.353,1800.4914,
173.442,1790.8892,
170.532,1798.2861,
167.621,1703.1173,
164.711,1631.125,
161.800,1543.417,
158.890,1408.828,
155.979,1292.8211,
153.068,1179.816,
150.158,1070.0301,
147.247,968.08084,
144.337,808.75337,
141.426,639.0818,
138.516,479.21505,
135.605,342.86594,
132.694,237.36481,
129.784,155.85614,
126.873,86.488541,
123.963,58.717317,
121.052,43.559083,
118.141,31.422749,
115.231,27.822148,
112.320,21.715005,
109.410,15.647711,
106.499,17.072021,
103.589,13.453219,
100.678,8.2020264,
97.767,2.5145258,
94.857,5.1469562,
91.946,8.3905544,
89.036,11.826592,
86.125,14.663413,
83.215,12.720398,
80.304,8.2201058,
77.393,1.8465764,
74.483,2.6852699,
71.572,5.5491127,
68.662,8.4745225,
65.751,-0.70934151,
62.840,0.71031785,
59.930,5.375,
57.019,5.375,
54.109,-0.59660848,
51.198,-2.5137351,
48.288,2.4089747,
45.377,6.6292431,
42.466,6.7261226,
39.556,4.1447628,
36.645,2.7403824,
33.735,4.4519939,
30.824,5.7123391,
27.914,3.6088133,
25.003,5.2429124,
22.092,6.0520954,
19.182,5.9470716,
16.271,23.434325,
13.361,109.18764,
10.450,261.36445,
7.539,516.94788,
4.629,525.03028,
1.718,358.97631,
-1.192,-4.2359933,
-4.103,-194.035,
-7.013,-200.28265,
-9.924,-2.625,
