,Pliquid_AuCOFNPs-citrate13new_1E-1mgmL_100uL_mix_1E-2mgL_16h_785nm_133mW_3s_1acc_2_RamanShift__0__30,
Raman shift [1/cm],Intensity,
3014.167,-2.125,
3011.256,1.5250322,
3008.346,467.37205,
3005.435,577.83967,
3002.525,601.59256,
2999.614,631.06332,
2996.704,634.19356,
2993.793,654.61809,
2990.882,670.04288,
2987.972,691.9759,
2985.061,715.86515,
2982.151,745.53384,
2979.240,763.63733,
2976.329,787.62637,
2973.419,818.18309,
2970.508,835.17482,
2967.598,849.11757,
2964.687,875.30774,
2961.777,894.08885,
2958.866,909.56146,
2955.955,930.68246,
2953.045,963.0473,
2950.134,1009.3327,
2947.224,1009.8109,
2944.313,1066.8864,
2941.403,1080.2089,
2938.492,1065.8533,
2935.581,1091.7939,
2932.671,1132.4759,
2929.760,1134.2019,
2926.850,1155.5686,
2923.939,1163.8423,
2921.028,1165.8459,
2918.118,1177.6143,
2915.207,1186.5904,
2912.297,1209.82,
2909.386,1220.7144,
2906.476,1205.434,
2903.565,1194.9713,
2900.654,1206.5454,
2897.744,1200.4098,
2894.833,1181.6066,
2891.923,1174.439,
2889.012,1172.7016,
2886.102,1171.3169,
2883.191,1159.8712,
2880.280,1130.119,
2877.370,1086.2413,
2874.459,1064.2652,
2871.549,1155.8755,
2868.638,1202.2399,
2865.727,1237.325,
2862.817,1210.9018,
2859.906,1255.026,
2856.996,1250.7935,
2854.085,1246.8687,
2851.175,1252.613,
2848.264,1262.7918,
2845.353,1203.3926,
2842.443,1225.6771,
2839.532,1202.1438,
2836.622,1194.3639,
2833.711,1199.1497,
2830.801,1211.9537,
2827.890,1199.146,
2824.979,1215.2829,
2822.069,1216.3754,
2819.158,1259.1149,
2816.248,1226.4966,
2813.337,1248.514,
2810.427,1235.9632,
2807.516,1246.5008,
2804.605,1234.8221,
2801.695,1248.8618,
2798.784,1224.0578,
2795.874,1254.6059,
2792.963,1243.3751,
2790.052,1232.8778,
2787.142,1236.638,
2784.231,1200.7151,
2781.321,1211.5607,
2778.410,1225.5488,
2775.500,1225.0698,
2772.589,1249.2978,
2769.678,1251.3733,
2766.768,1252.3818,
2763.857,1276.243,
2760.947,1281.9317,
2758.036,1275.6265,
2755.126,1277.3408,
2752.215,1301.6841,
2749.304,1299.7473,
2746.394,1306.0867,
2743.483,1299.175,
2740.573,1330.1362,
2737.662,1297.7788,
2734.751,1316.2487,
2731.841,1339.8219,
2728.930,1320.9979,
2726.020,1332.6609,
2723.109,1336.2153,
2720.199,1343.1687,
2717.288,1361.4699,
2714.377,1375.4875,
2711.467,1355.4651,
2708.556,1367.2577,
2705.646,1380.9454,
2702.735,1374.9111,
2699.825,1405.9623,
2696.914,1397.0177,
2694.003,1424.9937,
2691.093,1386.9641,
2688.182,1396.9128,
2685.272,1434.6531,
2682.361,1385.0868,
2679.450,1392.3688,
2676.540,1401.3425,
2673.629,1426.5297,
2670.719,1423.5247,
2667.808,1447.4159,
2664.898,1466.0832,
2661.987,1445.575,
2659.076,1433.7823,
2656.166,1460.3425,
2653.255,1464.6131,
2650.345,1494.6118,
2647.434,1463.5906,
2644.524,1508.8558,
2641.613,1492.6462,
2638.702,1506.5909,
2635.792,1491.9677,
2632.881,1491.2144,
2629.971,1529.3719,
2627.060,1516.3722,
2624.149,1523.7156,
2621.239,1535.1828,
2618.328,1563.7556,
2615.418,1519.8568,
2612.507,1532.8394,
2609.597,1547.6814,
2606.686,1549.7445,
2603.775,1569.3948,
2600.865,1573.462,
2597.954,1600.1022,
2595.044,1572.4738,
2592.133,1608.665,
2589.223,1596.0192,
2586.312,1633.2418,
2583.401,1636.2837,
2580.491,1649.298,
2577.580,1665.8403,
2574.670,1651.7934,
2571.759,1661.0668,
2568.848,1645.6429,
2565.938,1650.2561,
2563.027,1648.0476,
2560.117,1673.4171,
2557.206,1674.875,
2554.296,1668.0993,
2551.385,1659.9491,
2548.474,1712.9869,
2545.564,1707.6031,
2542.653,1687.1267,
2539.743,1715.7764,
2536.832,1706.5068,
2533.922,1715.0262,
2531.011,1774.501,
2528.100,1739.7426,
2525.190,1753.6865,
2522.279,1758.8432,
2519.369,1735.7619,
2516.458,1730.875,
2513.548,1771.329,
2510.637,1738.1209,
2507.726,1752.8044,
2504.816,1768.4364,
2501.905,1748.8896,
2498.995,1761.0097,
2496.084,1782.5545,
2493.173,1809.6651,
2490.263,1805.7292,
2487.352,1789.7931,
2484.442,1810.875,
2481.531,1826.1461,
2478.621,1856.7661,
2475.710,1854.0514,
2472.799,1877.6149,
2469.889,1861.9387,
2466.978,1850.0914,
2464.068,1876.8169,
2461.157,1902.6776,
2458.247,1893.2428,
2455.336,1889.4307,
2452.425,1903.8373,
2449.515,1900.0829,
2446.604,1928.5662,
2443.694,1947.8051,
2440.783,1953.7815,
2437.872,1937.5468,
2434.962,1941.7459,
2432.051,1975.9243,
2429.141,1985.9748,
2426.230,1975.9181,
2423.320,1987.4316,
2420.409,2006.9584,
2417.498,2004.8582,
2414.588,2020.3198,
2411.677,2029.2255,
2408.767,1994.7402,
2405.856,2026.2202,
2402.946,2017.2378,
2400.035,2059.5253,
2397.124,2051.3242,
2394.214,2056.8214,
2391.303,2064.6264,
2388.393,2072.3541,
2385.482,2083.4344,
2382.571,2098.811,
2379.661,2120.5262,
2376.750,2121.242,
2373.840,2124.3063,
2370.929,2133.7667,
2368.019,2152.4421,
2365.108,2151.2677,
2362.197,2164.138,
2359.287,2174.0349,
2356.376,2200.8363,
2353.466,2198.238,
2350.555,2200.3697,
2347.645,2193.0194,
2344.734,2199.0271,
2341.823,2211.676,
2338.913,2213.4929,
2336.002,2247.8534,
2333.092,2276.0703,
2330.181,2255.2229,
2327.270,2291.2898,
2324.360,2275.908,
2321.449,2300.9056,
2318.539,2296.8322,
2315.628,2296.2699,
2312.718,2333.9719,
2309.807,2330.3532,
2306.896,2334.8593,
2303.986,2316.258,
2301.075,2319.0026,
2298.165,2315.7113,
2295.254,2304.0473,
2292.344,2329.8168,
2289.433,2359.9445,
2286.522,2370.1742,
2283.612,2398.0677,
2280.701,2417.3369,
2277.791,2422.1574,
2274.880,2448.3811,
2271.969,2439.9985,
2269.059,2467.3982,
2266.148,2481.7932,
2263.238,2458.5854,
2260.327,2500.565,
2257.417,2532.8422,
2254.506,2522.3024,
2251.595,2520.7368,
2248.685,2511.7192,
2245.774,2506.2707,
2242.864,2510.9772,
2239.953,2526.6474,
2237.043,2543.0193,
2234.132,2579.236,
2231.221,2606.7717,
2228.311,2594.8686,
2225.400,2622.3253,
2222.490,2640.1031,
2219.579,2648.1655,
2216.669,2654.3297,
2213.758,2664.5273,
2210.847,2736.6129,
2207.937,2753.875,
2205.026,2733.7607,
2202.116,2823.7593,
2199.205,2838.887,
2196.294,2847.751,
2193.384,2885.2421,
2190.473,2911.1708,
2187.563,2969.0538,
2184.652,3018.3758,
2181.742,3099.8082,
2178.831,3179.0776,
2175.920,3270.773,
2173.010,3398.0836,
2170.099,3590.6578,
2167.189,3774.389,
2164.278,4017.3303,
2161.368,4267.2969,
2158.457,4498.2257,
2155.546,4747.2021,
2152.636,4952.5768,
2149.725,5195.4453,
2146.815,5417.5683,
2143.904,5558.2058,
2140.993,5657.5519,
2138.083,5734.4981,
2135.172,5757.6147,
2132.262,5751.9481,
2129.351,5719.3025,
2126.441,5651.3797,
2123.530,5484.5067,
2120.619,5250.6926,
2117.709,5016.4056,
2114.798,4726.3472,
2111.888,4461.8688,
2108.977,4211.0736,
2106.067,3968.4146,
2103.156,3783.4191,
2100.245,3596.8085,
2097.335,3483.7703,
2094.424,3410.8122,
2091.514,3331.719,
2088.603,3294.6861,
2085.692,3266.6446,
2082.782,3234.843,
2079.871,3223.2321,
2076.961,3178.9102,
2074.050,3177.2083,
2071.140,3119.2433,
2068.229,3085.2487,
2065.318,3082.4438,
2062.408,3074.7305,
2059.497,3046.6667,
2056.587,3033.2356,
2053.676,3010.0928,
2050.766,3053.872,
2047.855,3032.8782,
2044.944,2999.008,
2042.034,3012.4359,
2039.123,3034.5114,
2036.213,3013.4684,
2033.302,3026.4403,
2030.391,3018.0107,
2027.481,3014.3872,
2024.570,3024.8319,
2021.660,3044.7515,
2018.749,3054.2292,
2015.839,3038.6821,
2012.928,3045.0243,
2010.017,3059.913,
2007.107,3071.5703,
2004.196,3071.2322,
2001.286,3073.7902,
1998.375,3066.5709,
1995.465,3040.917,
1992.554,3038.2573,
1989.643,3033.0824,
1986.733,3011.2697,
1983.822,2988.6586,
1980.912,3018.1815,
1978.001,3027.4075,
1975.090,3063.9742,
1972.180,3014.2553,
1969.269,3006.8377,
1966.359,3035.1726,
1963.448,3021.1154,
1960.538,3012.498,
1957.627,3088.6645,
1954.716,3059.9953,
1951.806,3048.633,
1948.895,3025.6402,
1945.985,3031.0792,
1943.074,3032.4359,
1940.164,3006.4802,
1937.253,2976.6746,
1934.342,3002.875,
1931.432,2996.5248,
1928.521,2963.951,
1925.611,2947.4335,
1922.700,2958.7465,
1919.790,2969.6264,
1916.879,3002.5035,
1913.968,3003.8762,
1911.058,2988.1303,
1908.147,3003.3509,
1905.237,2988.4632,
1902.326,2991.1832,
1899.415,2978.9067,
1896.505,2978.0076,
1893.594,2984.2378,
1890.684,2983.2933,
1887.773,2993.004,
1884.863,3024.8363,
1881.952,3034.3875,
1879.041,3035.1445,
1876.131,3002.4855,
1873.220,2994.0033,
1870.310,2982.736,
1867.399,3006.4752,
1864.489,2985.5621,
1861.578,3046.6446,
1858.667,3001.7432,
1855.757,3035.0779,
1852.846,3041.1724,
1849.936,3055.5737,
1847.025,3059.802,
1844.114,3094.1008,
1841.204,3067.4659,
1838.293,3106.8451,
1835.383,3144.0025,
1832.472,3170.5498,
1829.562,3190.0122,
1826.651,3143.5404,
1823.740,3185.8483,
1820.830,3207.7884,
1817.919,3201.9887,
1815.009,3221.4246,
1812.098,3169.2215,
1809.188,3216.34,
1806.277,3190.539,
1803.366,3255.4924,
1800.456,3233.9192,
1797.545,3251.3218,
1794.635,3252.1961,
1791.724,3288.2731,
1788.813,3256.0765,
1785.903,3277.0551,
1782.992,3322.9003,
1780.082,3299.9586,
1777.171,3298.8793,
1774.261,3315.97,
1771.350,3349.9308,
1768.439,3403.1309,
1765.529,3411.1482,
1762.618,3430.3013,
1759.708,3445.8315,
1756.797,3456.7841,
1753.887,3453.7715,
1750.976,3486.5098,
1748.065,3494.1407,
1745.155,3463.2687,
1742.244,3490.2925,
1739.334,3545.1644,
1736.423,3554.103,
1733.512,3579.9808,
1730.602,3653.7084,
1727.691,3644.1686,
1724.781,3648.2468,
1721.870,3725.1088,
1718.960,3770.8309,
1716.049,3715.6298,
1713.138,3723.5399,
1710.228,3792.1473,
1707.317,3793.0293,
1704.407,3861.0516,
1701.496,3878.902,
1698.586,3905.7466,
1695.675,3959.339,
1692.764,3924.0594,
1689.854,3962.0561,
1686.943,4050.8397,
1684.033,4086.0554,
1681.122,4098.6711,
1678.211,4164.2469,
1675.301,4273.5389,
1672.390,4368.0186,
1669.480,4417.0542,
1666.569,4563.8399,
1663.659,4641.0145,
1660.748,4771.8417,
1657.837,4875.571,
1654.927,5042.679,
1652.016,5120.4507,
1649.106,5226.0538,
1646.195,5315.4644,
1643.285,5424.2018,
1640.374,5568.7565,
1637.463,5659.1448,
1634.553,5785.801,
1631.642,5983.0357,
1628.732,6181.0423,
1625.821,6377.0451,
1622.911,6635.4099,
1620.000,6856.0781,
1617.089,7167.6063,
1614.179,7512.061,
1611.268,7855.9743,
1608.358,8185.3297,
1605.447,8467.7057,
1602.536,8620.8624,
1599.626,8666.7524,
1596.715,8728.8691,
1593.805,8716.094,
1590.894,8656.6314,
1587.984,8624.6244,
1585.073,8553.6605,
1582.162,8533.5261,
1579.252,8465.5926,
1576.341,8398.0048,
1573.431,8324.5706,
1570.520,8362.1458,
1567.610,8337.1489,
1564.699,8248.922,
1561.788,8173.6924,
1558.878,8095.1574,
1555.967,7925.1714,
1553.057,7817.4271,
1550.146,7738.8788,
1547.235,7648.7456,
1544.325,7525.3486,
1541.414,7400.5488,
1538.504,7273.2908,
1535.593,7169.1994,
1532.683,7084.0447,
1529.772,6997.2941,
1526.861,6925.8491,
1523.951,6836.1938,
1521.040,6751.0159,
1518.130,6669.6219,
1515.219,6608.9162,
1512.309,6554.7443,
1509.398,6514.4453,
1506.487,6507.8044,
1503.577,6483.5524,
1500.666,6464.5706,
1497.756,6375.7141,
1494.845,6381.9929,
1491.934,6288.5033,
1489.024,6174.9292,
1486.113,6143.0585,
1483.203,6104.4601,
1480.292,6117.6937,
1477.382,6076.4213,
1474.471,5964.581,
1471.560,5975.238,
1468.650,5947.8288,
1465.739,5922.7511,
1462.829,5854.8219,
1459.918,5827.4497,
1457.008,5905.8604,
1454.097,5907.408,
1451.186,5847.5191,
1448.276,5881.9545,
1445.365,5911.5891,
1442.455,5887.8294,
1439.544,5838.3809,
1436.633,5861.3993,
1433.723,5854.4037,
1430.812,5784.698,
1427.902,5744.1083,
1424.991,5711.8844,
1422.081,5696.1954,
1419.170,5719.0687,
1416.259,5699.3832,
1413.349,5637.9872,
1410.438,5698.9501,
1407.528,5703.2629,
1404.617,5647.5374,
1401.707,5647.4319,
1398.796,5728.0462,
1395.885,5783.434,
1392.975,5778.8961,
1390.064,5779.2799,
1387.154,5736.1168,
1384.243,5684.9453,
1381.332,5722.6376,
1378.422,5761.2801,
1375.511,5924.28,
1372.601,6101.0518,
1369.690,6206.7406,
1366.780,6362.8573,
1363.869,6532.8203,
1360.958,6627.7697,
1358.048,6753.5179,
1355.137,6877.4948,
1352.227,6992.2153,
1349.316,7129.977,
1346.406,7273.007,
1343.495,7417.7427,
1340.584,7538.6602,
1337.674,7583.5967,
1334.763,7700.2391,
1331.853,7762.3636,
1328.942,7838.7005,
1326.032,7968.5869,
1323.121,8039.5919,
1320.210,8110.1464,
1317.300,8232.9024,
1314.389,8352.3205,
1311.479,8439.1369,
1308.568,8548.3743,
1305.657,8675.8896,
1302.747,8753.067,
1299.836,8916.0226,
1296.926,9065.8571,
1294.015,9194.5624,
1291.105,9433.2186,
1288.194,9643.7934,
1285.283,9755.4633,
1282.373,9957.7962,
1279.462,10086.776,
1276.552,10155.796,
1273.641,10251.632,
1270.731,10283.709,
1267.820,10200.407,
1264.909,10201.423,
1261.999,10115.569,
1259.088,10244.178,
1256.178,10014.637,
1253.267,9882.8115,
1250.356,9703.8474,
1247.446,9474.0454,
1244.535,9239.487,
1241.625,8982.268,
1238.714,8726.5367,
1235.804,8543.254,
1232.893,8364.6377,
1229.982,8303.226,
1227.072,8195.4939,
1224.161,8047.5109,
1221.251,7933.7674,
1218.340,7782.7342,
1215.430,7694.8536,
1212.519,7622.5439,
1209.608,7544.4719,
1206.698,7512.1726,
1203.787,7497.5836,
1200.877,7580.4003,
1197.966,7717.9717,
1195.055,7780.3362,
1192.145,7937.1383,
1189.234,8067.6228,
1186.324,8164.2437,
1183.413,8248.0629,
1180.503,8297.1887,
1177.592,8264.834,
1174.681,8152.9093,
1171.771,8039.0836,
1168.860,7874.7552,
1165.950,7797.597,
1163.039,7733.9868,
1160.129,7702.2576,
1157.218,7622.7646,
1154.307,7521.8714,
1151.397,7439.3416,
1148.486,7316.1747,
1145.576,7312.2856,
1142.665,7183.5382,
1139.754,7189.9612,
1136.844,7078.325,
1133.933,6997.2037,
1131.023,6964.4889,
1128.112,6950.7325,
1125.202,6964.0247,
1122.291,7015.4936,
1119.380,6998.5459,
1116.470,6965.0098,
1113.559,7069.1299,
1110.649,7088.4329,
1107.738,7102.2361,
1104.828,7096.5734,
1101.917,7062.9874,
1099.006,7061.9265,
1096.096,7067.305,
1093.185,7074.329,
1090.275,7002.0407,
1087.364,7035.6481,
1084.453,6993.0667,
1081.543,6943.1897,
1078.632,6936.4134,
1075.722,6928.2183,
1072.811,6973.8678,
1069.901,6987.84,
1066.990,7043.8415,
1064.079,7109.9551,
1061.169,7201.7034,
1058.258,7264.3447,
1055.348,7298.2158,
1052.437,7351.711,
1049.527,7353.124,
1046.616,7411.3355,
1043.705,7449.4764,
1040.795,7442.9124,
1037.884,7474.334,
1034.974,7506.799,
1032.063,7517.7665,
1029.153,7589.6287,
1026.242,7579.2492,
1023.331,7633.8715,
1020.421,7695.7634,
1017.510,7736.9244,
1014.600,7784.0177,
1011.689,7873.4862,
1008.778,8012.0658,
1005.868,8155.5778,
1002.957,8456.7018,
1000.047,8788.9791,
997.136,9046.2304,
994.226,9196.0435,
991.315,9178.4147,
988.404,8987.2584,
985.494,8853.379,
982.583,8786.5676,
979.673,8680.2976,
976.762,8692.4303,
973.852,8675.4858,
970.941,8625.5085,
968.030,8664.7884,
965.120,8703.6387,
962.209,8647.3709,
959.299,8631.5008,
956.388,8639.5143,
953.477,8647.0529,
950.567,8649.0121,
947.656,8660.6603,
944.746,8681.8992,
941.835,8747.6601,
938.925,8764.8492,
936.014,8771.9449,
933.103,8787.4085,
930.193,8767.7202,
927.282,8616.6294,
924.372,8575.1947,
921.461,8426.2769,
918.551,8301.0965,
915.640,8206.2305,
912.729,8136.7255,
909.819,8101.6534,
906.908,8107.5504,
903.998,8107.0796,
901.087,8133.6083,
898.176,8172.2576,
895.266,8223.5843,
892.355,8308.4022,
889.445,8466.1845,
886.534,8518.6371,
883.624,8600.868,
880.713,8641.9993,
877.802,8673.2346,
874.892,8704.145,
871.981,8627.4485,
869.071,8524.6927,
866.160,8564.1417,
863.250,8589.875,
860.339,8593.4547,
857.428,8582.4659,
854.518,8507.9121,
851.607,8474.6294,
848.697,8475.7532,
845.786,8434.7629,
842.875,8410.6533,
839.965,8465.2252,
837.054,8571.9773,
834.144,8581.0936,
831.233,8634.8712,
828.323,8623.7821,
825.412,8569.7769,
822.501,8528.2791,
819.591,8486.1327,
816.680,8347.8555,
813.770,8245.5862,
810.859,8180.9592,
807.949,8118.8017,
805.038,8031.875,
802.127,8031.875,
799.217,7981.9338,
796.306,7942.7397,
793.396,7910.3023,
790.485,7865.2381,
787.574,7789.8989,
784.664,7843.2062,
781.753,7865.6237,
778.843,7884.6171,
775.932,7910.2205,
773.022,7933.5639,
770.111,7905.7662,
767.200,7959.4508,
764.290,7931.2226,
761.379,7885.2712,
758.469,7861.2711,
755.558,7842.0029,
752.648,7779.2784,
749.737,7766.2222,
746.826,7761.2128,
743.916,7693.0494,
741.005,7515.1935,
738.095,7376.3625,
735.184,7110.3192,
732.274,7061.3612,
729.363,7221.1934,
726.452,7478.7417,
723.542,7655.1895,
720.631,7774.2041,
717.721,7765.4844,
714.810,7759.3805,
711.899,7804.073,
708.989,7817.7908,
706.078,7772.2007,
703.168,7691.6518,
700.257,7669.979,
697.347,7672.4434,
694.436,7563.1805,
691.525,7574.4338,
688.615,7602.6604,
685.704,7601.9023,
682.794,7588.5983,
679.883,7614.1273,
676.973,7619.7369,
674.062,7630.4462,
671.151,7621.8484,
668.241,7616.7404,
665.330,7658.2532,
662.420,7666.2405,
659.509,7693.2722,
656.598,7697.0563,
653.688,7678.7342,
650.777,7665.253,
647.867,7676.4016,
644.956,7639.2494,
642.046,7631.4589,
639.135,7658.4384,
636.224,7671.7596,
633.314,7648.7354,
630.403,7726.8269,
627.493,7792.1724,
624.582,7807.7596,
621.672,7825.1834,
618.761,7862.3521,
615.850,7895.3635,
612.940,7953.5176,
610.029,8035.5576,
607.119,8057.6673,
604.208,8049.2248,
601.297,8064.8157,
598.387,8082.5819,
595.476,8083.5601,
592.566,8154.3963,
589.655,8151.9735,
586.745,8120.8747,
583.834,8077.2608,
580.923,8029.074,
578.013,8062.0329,
575.102,8029.0031,
572.192,8050.0385,
569.281,8147.39,
566.371,8166.9556,
563.460,8233.7781,
560.549,8273.057,
557.639,8288.0235,
554.728,8295.5995,
551.818,8322.9106,
548.907,8341.0633,
545.996,8347.7086,
543.086,8351.0756,
540.175,8375.2137,
537.265,8468.8585,
534.354,8510.8987,
531.444,8537.6597,
528.533,8591.1927,
525.622,8623.7824,
522.712,8720.0677,
519.801,8801.1697,
516.891,8858.5946,
513.980,8956.1559,
511.070,9068.4141,
508.159,9171.0932,
505.248,9285.4468,
502.338,9435.7501,
499.427,9499.8122,
496.517,9580.2285,
493.606,9670.9365,
490.695,9757.2985,
487.785,9781.9318,
484.874,9785.875,
481.964,9775.0778,
479.053,9747.9242,
476.143,9698.0067,
473.232,9707.1049,
470.321,9685.5999,
467.411,9650.5305,
464.500,9628.7586,
461.590,9624.1642,
458.679,9637.1827,
455.769,9663.683,
452.858,9701.2834,
449.947,9753.2307,
447.037,9817.2699,
444.126,9853.3538,
441.216,9852.0386,
438.305,9829.9426,
435.395,9807.8615,
432.484,9810.7943,
429.573,9814.8523,
426.663,9754.8012,
423.752,9764.5208,
420.842,9774.5285,
417.931,9801.0683,
415.020,9879.1792,
412.110,10057.462,
409.199,10160.995,
406.289,10199.661,
403.378,10193.006,
400.468,10231.561,
397.557,10205.828,
394.646,10204.89,
391.736,10296.302,
388.825,10184.675,
385.915,10182.21,
383.004,10234.288,
380.094,10303.633,
377.183,10416.505,
374.272,10495.64,
371.362,10593.269,
368.451,10730.373,
365.541,10722.118,
362.630,10757.019,
359.719,10810.369,
356.809,10868.632,
353.898,10947.256,
350.988,10980.267,
348.077,10978.839,
345.167,10958.876,
342.256,11097.083,
339.345,11135.281,
336.435,11150.808,
333.524,11196.19,
330.614,11237.919,
327.703,11305.296,
324.793,11362.289,
321.882,11378.095,
318.971,11468.795,
316.061,11504.758,
313.150,11539.899,
310.240,11636.374,
307.329,11802.812,
304.418,11842.342,
301.508,11818.964,
298.597,11845.619,
295.687,11843.812,
292.776,11975.209,
289.866,12206.247,
286.955,12416.784,
284.044,12704.935,
281.134,12993.363,
278.223,13276.299,
275.313,13600.515,
272.402,13776.342,
269.492,13943.544,
266.581,14155.583,
263.670,14417.307,
260.760,14603.62,
257.849,14774.678,
254.939,14974.294,
252.028,15102.824,
249.117,15163.209,
246.207,15193.407,
243.296,15253.434,
240.386,15317.991,
237.475,15334.66,
234.565,15301.867,
231.654,15238.324,
228.743,15219.697,
225.833,15202.46,
222.922,15169.259,
220.012,15113.16,
217.101,15111.559,
214.191,15081.447,
211.280,14923.588,
208.369,15051.82,
205.459,15097.916,
202.548,15073.524,
199.638,15123.594,
196.727,15165.567,
193.816,15224.998,
190.906,15309.408,
187.995,15324.613,
185.085,15387.563,
182.174,15435.029,
179.264,15372.871,
176.353,15429.953,
173.442,15458.261,
170.532,15428.746,
167.621,15290.318,
164.711,14986.412,
161.800,14578.509,
158.890,14088.375,
155.979,13094.638,
153.068,11893.13,
150.158,10518.19,
147.247,8991.823,
144.337,7421.7227,
141.426,5848.0601,
138.516,4288.8217,
135.605,3073.7444,
132.694,2096.3019,
129.784,1354.2776,
126.873,920.19376,
123.963,636.68394,
121.052,442.69886,
118.141,326.33283,
115.231,261.92367,
112.320,212.57502,
109.410,174.87537,
106.499,143.54054,
103.589,127.91093,
100.678,117.61554,
97.767,109.08429,
94.857,99.173153,
91.946,90.03767,
89.036,81.971817,
86.125,76.298175,
83.215,75.936841,
80.304,73.28351,
77.393,62.660961,
74.483,60.56473,
71.572,59.150296,
68.662,57.251593,
65.751,50.893533,
62.840,47.911596,
59.930,44.814852,
57.019,37.05895,
54.109,32.889196,
51.198,32.684656,
48.288,36.875,
45.377,36.875,
42.466,36.462781,
39.556,35.875,
36.645,35.875,
33.735,31.721012,
30.824,27.875,
27.914,27.875,
25.003,30.36555,
22.092,29.614668,
19.182,25.286892,
16.271,37.877714,
13.361,60.997693,
10.450,54.024714,
7.539,-131.02886,
4.629,-493.56691,
1.718,-853.12539,
-1.192,-1065.0573,
-4.103,-768.84483,
-7.013,-390.48052,
-9.924,-2.125,
