,PL5993~1,
Wavenumbers [1/cm],Intensity,
3014.167,0.125,
3011.256,2.6750107,
3008.346,39.884377,
3005.435,17.665639,
3002.525,33.672539,
2999.614,36.600327,
2996.704,42.213658,
2993.793,37.620392,
2990.882,33.216645,
2987.972,55.08464,
2985.061,43.134847,
2982.151,48.693076,
2979.240,48.290391,
2976.329,65.644111,
2973.419,67.510111,
2970.508,52.67497,
2967.598,44.029418,
2964.687,51.67663,
2961.777,44.91115,
2958.866,60.793646,
2955.955,59.642697,
2953.045,49.527706,
2950.134,53.964618,
2947.224,53.83672,
2944.313,77.67557,
2941.403,65.8271,
2938.492,79.539627,
2935.581,74.533586,
2932.671,84.004827,
2929.760,80.986535,
2926.850,70.595301,
2923.939,73.162363,
2921.028,87.519172,
2918.118,77.845404,
2915.207,79.359155,
2912.297,79.120769,
2909.386,87.935216,
2906.476,74.389068,
2903.565,70.479068,
2900.654,92.912649,
2897.744,87.23815,
2894.833,92.413729,
2891.923,73.339694,
2889.012,84.240609,
2886.102,97.607451,
2883.191,85.125944,
2880.280,154.14893,
2877.370,198.73537,
2874.459,131.00553,
2871.549,94.953451,
2868.638,67.943554,
2865.727,77.440388,
2862.817,74.667782,
2859.906,74.290235,
2856.996,91.125,
2854.085,121.05363,
2851.175,89.862954,
2848.264,88.482834,
2845.353,79.49164,
2842.443,91.732659,
2839.532,84.348885,
2836.622,82.338541,
2833.711,85.443676,
2830.801,99.211035,
2827.890,79.712449,
2824.979,89.211075,
2822.069,84.318326,
2819.158,99.604783,
2816.248,91.148159,
2813.337,101.21769,
2810.427,95.558883,
2807.516,85.340939,
2804.605,101.28605,
2801.695,93.559209,
2798.784,93.125,
2795.874,91.845325,
2792.963,96.41096,
2790.052,95.126501,
2787.142,94.454039,
2784.231,96.319109,
2781.321,96.496397,
2778.410,90.444791,
2775.500,100.48603,
2772.589,90.817658,
2769.678,100.76662,
2766.768,99.631787,
2763.857,91.704963,
2760.947,100.125,
2758.036,113.67922,
2755.126,100.03312,
2752.215,98.570546,
2749.304,100.76349,
2746.394,111.46779,
2743.483,99.624977,
2740.573,99.68914,
2737.662,99.571745,
2734.751,92.751339,
2731.841,102.17995,
2728.930,97.942704,
2726.020,104.45139,
2723.109,105.33108,
2720.199,113.38137,
2717.288,107.00092,
2714.377,113.51254,
2711.467,116.17445,
2708.556,103.08247,
2705.646,107.19544,
2702.735,112.29768,
2699.825,111.2777,
2696.914,125.17321,
2694.003,124.73964,
2691.093,121.2321,
2688.182,110.19685,
2685.272,122.56739,
2682.361,112.57806,
2679.450,110.66408,
2676.540,122.00306,
2673.629,112.14296,
2670.719,116.32926,
2667.808,120.27091,
2664.898,123.64445,
2661.987,119.45822,
2659.076,115.99784,
2656.166,124.23757,
2653.255,118.68112,
2650.345,135.15767,
2647.434,114.81091,
2644.524,121.73891,
2641.613,128.66806,
2638.702,125.23547,
2635.792,124.37426,
2632.881,123.77392,
2629.971,125.23242,
2627.060,119.95594,
2624.149,136.36875,
2621.239,133.87648,
2618.328,124.61635,
2615.418,115.77955,
2612.507,124.22776,
2609.597,133.39047,
2606.686,129.95632,
2603.775,127.5258,
2600.865,140.82811,
2597.954,138.02917,
2595.044,133.81233,
2592.133,127.90206,
2589.223,138.71554,
2586.312,150.125,
2583.401,143.84031,
2580.491,154.27399,
2577.580,135.1316,
2574.670,137.46458,
2571.759,143.03424,
2568.848,137.95366,
2565.938,157.07745,
2563.027,139.80686,
2560.117,129.03155,
2557.206,158.15083,
2554.296,147.4385,
2551.385,145.00101,
2548.474,170.0514,
2545.564,162.6948,
2542.653,153.0713,
2539.743,166.24823,
2536.832,134.22593,
2533.922,162.10923,
2531.011,162.77486,
2528.100,160.72777,
2525.190,159.86844,
2522.279,163.28084,
2519.369,147.63434,
2516.458,142.22982,
2513.548,169.91542,
2510.637,168.18648,
2507.726,166.31458,
2504.816,158.43729,
2501.905,161.18293,
2498.995,153.0805,
2496.084,168.125,
2493.173,158.17732,
2490.263,170.86628,
2487.352,172.8746,
2484.442,167.125,
2481.531,170.81113,
2478.621,169.51835,
2475.710,182.04832,
2472.799,169.90529,
2469.889,170.39648,
2466.978,165.85707,
2464.068,164.9557,
2461.157,172.58504,
2458.247,170.38976,
2455.336,180.08195,
2452.425,169.64385,
2449.515,183.37032,
2446.604,176.3117,
2443.694,162.45066,
2440.783,185.1768,
2437.872,180.34379,
2434.962,184.02362,
2432.051,185.92761,
2429.141,182.73691,
2426.230,178.125,
2423.320,191.26745,
2420.409,197.15726,
2417.498,189.89468,
2414.588,184.8627,
2411.677,167.9856,
2408.767,194.16043,
2405.856,202.18691,
2402.946,179.90427,
2400.035,182.71186,
2397.124,190.92178,
2394.214,198.31261,
2391.303,188.41226,
2388.393,174.95519,
2385.482,176.77251,
2382.571,186.78313,
2379.661,183.42745,
2376.750,178.49196,
2373.840,176.85003,
2370.929,208.75679,
2368.019,214.07761,
2365.108,198.70615,
2362.197,190.37427,
2359.287,215.85648,
2356.376,207.15494,
2353.466,219.23298,
2350.555,191.52001,
2347.645,196.86142,
2344.734,215.09739,
2341.823,215.19133,
2338.913,228.50706,
2336.002,204.52933,
2333.092,214.76842,
2330.181,211.03553,
2327.270,206.125,
2324.360,195.2924,
2321.449,217.60118,
2318.539,210.67852,
2315.628,215.21733,
2312.718,222.30782,
2309.807,222.60319,
2306.896,223.07804,
2303.986,205.56007,
2301.075,215.99731,
2298.165,226.91355,
2295.254,214.4266,
2292.344,235.01708,
2289.433,234.03999,
2286.522,220.85261,
2283.612,237.40562,
2280.701,248.04875,
2277.791,236.04485,
2274.880,229.41709,
2271.969,217.54064,
2269.059,242.88252,
2266.148,228.40213,
2263.238,218.125,
2260.327,229.91808,
2257.417,228.78555,
2254.506,244.64356,
2251.595,238.43058,
2248.685,241.27493,
2245.774,237.312,
2242.864,245.86565,
2239.953,243.49049,
2237.043,248.125,
2234.132,241.51724,
2231.221,250.33696,
2228.311,250.90593,
2225.400,255.78726,
2222.490,246.72441,
2219.579,252.99644,
2216.669,254.57015,
2213.758,259.60212,
2210.847,259.34918,
2207.937,273.55495,
2205.026,266.56873,
2202.116,276.68553,
2199.205,262.08665,
2196.294,268.44703,
2193.384,271.49302,
2190.473,242.66373,
2187.563,295.04283,
2184.652,277.97439,
2181.742,275.64754,
2178.831,276.08222,
2175.920,277.62773,
2173.010,300.50198,
2170.099,295.39335,
2167.189,300.29721,
2164.278,325.0054,
2161.368,327.2682,
2158.457,312.49971,
2155.546,320.62407,
2152.636,310.73677,
2149.725,341.7357,
2146.815,351.09163,
2143.904,349.41869,
2140.993,338.08262,
2138.083,348.57182,
2135.172,363.95706,
2132.262,366.60035,
2129.351,360.65606,
2126.441,355.05702,
2123.530,372.19234,
2120.619,371.24456,
2117.709,326.54287,
2114.798,317.85188,
2111.888,317.27473,
2108.977,322.48924,
2106.067,315.2996,
2103.156,320.16368,
2100.245,308.12688,
2097.335,310.16165,
2094.424,298.57736,
2091.514,292.70572,
2088.603,301.47987,
2085.692,295.89822,
2082.782,307.72734,
2079.871,319.51823,
2076.961,295.8686,
2074.050,309.27045,
2071.140,312.76863,
2068.229,314.76433,
2065.318,309.97675,
2062.408,305.17039,
2059.497,315.9524,
2056.587,326.54358,
2053.676,320.59207,
2050.766,324.66312,
2047.855,309.63762,
2044.944,324.59776,
2042.034,309.07299,
2039.123,315.86574,
2036.213,315.60719,
2033.302,323.51604,
2030.391,313.00704,
2027.481,308.79564,
2024.570,306.22516,
2021.660,306.06587,
2018.749,344.56739,
2015.839,305.93209,
2012.928,315.26259,
2010.017,328.47571,
2007.107,317.91377,
2004.196,314.85122,
2001.286,341.0437,
1998.375,331.94487,
1995.465,305.03304,
1992.554,315.90133,
1989.643,295.91997,
1986.733,300.73377,
1983.822,285.29413,
1980.912,327.23279,
1978.001,283.57398,
1975.090,292.32042,
1972.180,294.125,
1969.269,295.82328,
1966.359,297.77366,
1963.448,309.08273,
1960.538,300.95235,
1957.627,297.23336,
1954.716,301.98137,
1951.806,305.23079,
1948.895,284.93679,
1945.985,269.25245,
1943.074,290.04018,
1940.164,280.70189,
1937.253,265.64266,
1934.342,247.61217,
1931.432,277.87579,
1928.521,302.42379,
1925.611,287.98879,
1922.700,279.75069,
1919.790,269.65112,
1916.879,273.7065,
1913.968,274.125,
1911.058,296.39827,
1908.147,288.64911,
1905.237,298.17642,
1902.326,275.92647,
1899.415,273.42619,
1896.505,234.73343,
1893.594,252.75007,
1890.684,263.7656,
1887.773,250.81471,
1884.863,271.44846,
1881.952,300.86483,
1879.041,292.2387,
1876.131,288.75376,
1873.220,265.58951,
1870.310,289.97248,
1867.399,299.99705,
1864.489,244.73422,
1861.578,308.8448,
1858.667,304.21783,
1855.757,287.94362,
1852.846,268.13013,
1849.936,268.10198,
1847.025,268.18095,
1844.114,285.5509,
1841.204,294.83129,
1838.293,298.62417,
1835.383,289.83451,
1832.472,293.98587,
1829.562,312.98464,
1826.651,310.91967,
1823.740,293.29356,
1820.830,306.64485,
1817.919,306.42436,
1815.009,288.85656,
1812.098,317.5423,
1809.188,335.19473,
1806.277,300.92175,
1803.366,303.55937,
1800.456,272.8179,
1797.545,323.08934,
1794.635,361.73799,
1791.724,359.45509,
1788.813,359.12243,
1785.903,339.86926,
1782.992,318.95217,
1780.082,350.37576,
1777.171,299.44565,
1774.261,276.21549,
1771.350,329.99751,
1768.439,349.82737,
1765.529,353.48889,
1762.618,376.38254,
1759.708,355.70065,
1756.797,332.41288,
1753.887,352.07398,
1750.976,372.22513,
1748.065,374.29397,
1745.155,380.2604,
1742.244,371.89586,
1739.334,349.06148,
1736.423,364.73431,
1733.512,374.125,
1730.602,413.7699,
1727.691,402.55986,
1724.781,390.40554,
1721.870,377.0535,
1718.960,414.41437,
1716.049,376.98139,
1713.138,400.61484,
1710.228,425.27153,
1707.317,372.397,
1704.407,416.33364,
1701.496,392.04392,
1698.586,427.00836,
1695.675,426.38217,
1692.764,397.72335,
1689.854,387.51476,
1686.943,408.38304,
1684.033,414.97598,
1681.122,443.63222,
1678.211,449.07741,
1675.301,447.13117,
1672.390,438.05322,
1669.480,414.58225,
1666.569,471.69632,
1663.659,515.65136,
1660.748,487.24069,
1657.837,493.14687,
1654.927,494.33586,
1652.016,503.58668,
1649.106,521.6109,
1646.195,501.98815,
1643.285,537.8086,
1640.374,566.89504,
1637.463,556.35919,
1634.553,569.98212,
1631.642,627.20101,
1628.732,634.48053,
1625.821,694.10995,
1622.911,671.25461,
1620.000,714.57066,
1617.089,762.16977,
1614.179,780.61738,
1611.268,835.04304,
1608.358,860.00125,
1605.447,896.011,
1602.536,867.37273,
1599.626,937.7997,
1596.715,936.86419,
1593.805,970.10961,
1590.894,944.18222,
1587.984,971.30431,
1585.073,893.59577,
1582.162,899.16226,
1579.252,881.03087,
1576.341,868.91543,
1573.431,862.42596,
1570.520,852.71685,
1567.610,845.65434,
1564.699,838.32476,
1561.788,817.1111,
1558.878,828.92513,
1555.967,787.25382,
1553.057,761.76292,
1550.146,759.05228,
1547.235,757.125,
1544.325,766.73904,
1541.414,763.86391,
1538.504,752.55599,
1535.593,757.42872,
1532.683,746.74923,
1529.772,747.98089,
1526.861,756.39926,
1523.951,751.3336,
1521.040,789.24587,
1518.130,792.19704,
1515.219,822.88569,
1512.309,791.44479,
1509.398,759.10234,
1506.487,729.20358,
1503.577,746.65188,
1500.666,765.89383,
1497.756,756.43012,
1494.845,757.96382,
1491.934,706.1124,
1489.024,702.26243,
1486.113,741.06805,
1483.203,742.34866,
1480.292,678.48664,
1477.382,705.11266,
1474.471,668.08226,
1471.560,642.51434,
1468.650,666.13922,
1465.739,650.30294,
1462.829,677.69267,
1459.918,713.2024,
1457.008,686.64768,
1454.097,653.35205,
1451.186,663.43254,
1448.276,657.40406,
1445.365,592.94254,
1442.455,558.15106,
1439.544,584.74078,
1436.633,568.22232,
1433.723,580.49283,
1430.812,595.05629,
1427.902,569.125,
1424.991,569.125,
1422.081,552.61041,
1419.170,572.72651,
1416.259,563.97405,
1413.349,565.65645,
1410.438,568.52456,
1407.528,577.49364,
1404.617,586.2349,
1401.707,532.95131,
1398.796,499.17391,
1395.885,524.9794,
1392.975,521.60356,
1390.064,506.30875,
1387.154,536.86357,
1384.243,538.77825,
1381.332,489.01433,
1378.422,487.30381,
1375.511,471.37854,
1372.601,497.85054,
1369.690,546.41501,
1366.780,526.40377,
1363.869,541.64579,
1360.958,567.29062,
1358.048,567.22532,
1355.137,582.67805,
1352.227,620.88328,
1349.316,664.89942,
1346.406,693.05807,
1343.495,686.10411,
1340.584,708.05329,
1337.674,726.5538,
1334.763,730.97185,
1331.853,753.22539,
1328.942,748.78822,
1326.032,762.80617,
1323.121,738.70932,
1320.210,791.72155,
1317.300,820.17384,
1314.389,822.75009,
1311.479,840.66859,
1308.568,857.04743,
1305.657,852.03447,
1302.747,868.99439,
1299.836,967.49355,
1296.926,970.72321,
1294.015,983.59374,
1291.105,985.88608,
1288.194,994.91117,
1285.283,1009.2971,
1282.373,997.67194,
1279.462,1018.8695,
1276.552,1064.1015,
1273.641,1070.8019,
1270.731,1046.7713,
1267.820,1051.8786,
1264.909,1044.7072,
1261.999,1025.8268,
1259.088,990.25405,
1256.178,1060.9238,
1253.267,1023.2573,
1250.356,1004.7387,
1247.446,1006.6454,
1244.535,1005.6563,
1241.625,1006.5657,
1238.714,1007.8318,
1235.804,994.59588,
1232.893,986.25443,
1229.982,966.61562,
1227.072,981.10062,
1224.161,1017.4262,
1221.251,966.79779,
1218.340,934.16876,
1215.430,937.58517,
1212.519,942.05016,
1209.608,934.28999,
1206.698,930.40163,
1203.787,935.68279,
1200.877,941.95188,
1197.966,906.88467,
1195.055,940.96144,
1192.145,987.69754,
1189.234,1038.1062,
1186.324,1075.0357,
1183.413,1079.8509,
1180.503,1092.0701,
1177.592,1127.0439,
1174.681,1085.6045,
1171.771,1075.1044,
1168.860,1074.2113,
1165.950,1057.1929,
1163.039,1054.5218,
1160.129,1036.2496,
1157.218,1056.7765,
1154.307,1086.8176,
1151.397,1069.3473,
1148.486,1063.9118,
1145.576,1140.0049,
1142.665,1091.1697,
1139.754,1110.7202,
1136.844,1110.5226,
1133.933,1090.5298,
1131.023,1065.8505,
1128.112,1060.3381,
1125.202,1073.4342,
1122.291,1069.629,
1119.380,1079.8045,
1116.470,1047.151,
1113.559,1043.8982,
1110.649,1033.6475,
1107.738,1033.4832,
1104.828,1026.4742,
1101.917,1017.2259,
1099.006,1034.826,
1096.096,1036.5662,
1093.185,1011.1041,
1090.275,1066.5832,
1087.364,1060.2274,
1084.453,1081.4981,
1081.543,1093.293,
1078.632,1077.1848,
1075.722,1081.8952,
1072.811,1109.8219,
1069.901,1091.4834,
1066.990,1088.5083,
1064.079,1090.8471,
1061.169,1087.1543,
1058.258,1081.0076,
1055.348,1082.5344,
1052.437,1085.9095,
1049.527,1049.7628,
1046.616,1066.2705,
1043.705,1067.3542,
1040.795,1065.848,
1037.884,1083.8373,
1034.974,1092.0696,
1032.063,1075.125,
1029.153,1071.386,
1026.242,1040.2475,
1023.331,1044.958,
1020.421,1121.412,
1017.510,1118.2673,
1014.600,1113.8091,
1011.689,1133.5819,
1008.778,1104.4708,
1005.868,1118.0323,
1002.957,1107.7081,
1000.047,1134.517,
997.136,1179.7772,
994.226,1201.4481,
991.315,1206.0408,
988.404,1219.2611,
985.494,1194.0675,
982.583,1191.4978,
979.673,1147.9578,
976.762,1148.5639,
973.852,1152.6108,
970.941,1135.1227,
968.030,1115.9747,
965.120,1115.2539,
962.209,1145.9454,
959.299,1139.0848,
956.388,1147.5641,
953.477,1160.1801,
950.567,1171.2291,
947.656,1196.576,
944.746,1215.2663,
941.835,1212.0759,
938.925,1217.7055,
936.014,1211.5143,
933.103,1197.5348,
930.193,1188.5257,
927.282,1184.7043,
924.372,1158.4905,
921.461,1172.7986,
918.551,1166.3445,
915.640,1159.2497,
912.729,1165.3453,
909.819,1172.6793,
906.908,1161.7278,
903.998,1161.9204,
901.087,1167.8536,
898.176,1165.3987,
895.266,1164.5208,
892.355,1179.5803,
889.445,1198.0442,
886.534,1192.2809,
883.624,1203.9088,
880.713,1228.4978,
877.802,1231.1872,
874.892,1191.5427,
871.981,1138.4087,
869.071,1065.7277,
866.160,1035.876,
863.250,1070.0612,
860.339,1145.7123,
857.428,1217.1425,
854.518,1232.3196,
851.607,1169.9144,
848.697,1130.9245,
845.786,1103.5939,
842.875,1111.4475,
839.965,1163.6982,
837.054,1221.2459,
834.144,1232.0197,
831.233,1260.7897,
828.323,1252.3638,
825.412,1236.8862,
822.501,1257.3805,
819.591,1292.0892,
816.680,1258.6698,
813.770,1241.9805,
810.859,1222.2341,
807.949,1213.4958,
805.038,1235.7356,
802.127,1215.9806,
799.217,1196.2356,
796.306,1188.4223,
793.396,1209.3161,
790.485,1238.8605,
787.574,1219.7789,
784.664,1237.0012,
781.753,1252.2027,
778.843,1255.6746,
775.932,1252.1991,
773.022,1249.7446,
770.111,1247.2919,
767.200,1239.5119,
764.290,1259.6622,
761.379,1257.6132,
758.469,1233.3103,
755.558,1249.2952,
752.648,1254.9974,
749.737,1256.125,
746.826,1242.1384,
743.916,1237.8524,
741.005,1270.3259,
738.095,1289.811,
735.184,1279.969,
732.274,1244.623,
729.363,1211.0729,
726.452,1201.1715,
723.542,1212.503,
720.631,1276.5817,
717.721,1294.4065,
714.810,1301.4999,
711.899,1315.125,
708.989,1315.125,
706.078,1318.3302,
703.168,1311.2311,
700.257,1288.797,
697.347,1267.6029,
694.436,1279.8413,
691.525,1269.3918,
688.615,1275.9298,
685.704,1283.2835,
682.794,1291.5079,
679.883,1309.3052,
676.973,1313.3121,
674.062,1332.6294,
671.151,1332.1667,
668.241,1314.7895,
665.330,1302.688,
662.420,1272.3362,
659.509,1307.3955,
656.598,1327.2303,
653.688,1334.0872,
650.777,1374.7191,
647.867,1392.2383,
644.956,1381.2654,
642.046,1342.6885,
639.135,1292.9502,
636.224,1262.1926,
633.314,1275.6896,
630.403,1305.7295,
627.493,1324.5091,
624.582,1325.125,
621.672,1325.125,
618.761,1319.0455,
615.850,1345.7764,
612.940,1391.6663,
610.029,1424.9978,
607.119,1364.1962,
604.208,1378.0054,
601.297,1397.5909,
598.387,1396.2266,
595.476,1363.6793,
592.566,1358.9569,
589.655,1361.3645,
586.745,1370.0685,
583.834,1372.3179,
580.923,1348.2387,
578.013,1367.0723,
575.102,1369.2571,
572.192,1376.4144,
569.281,1396.7806,
566.371,1417.1288,
563.460,1391.6117,
560.549,1379.1504,
557.639,1399.6101,
554.728,1457.3859,
551.818,1445.6812,
548.907,1447.3909,
545.996,1443.5156,
543.086,1426.5823,
540.175,1396.2151,
537.265,1416.5777,
534.354,1420.1081,
531.444,1416.7969,
528.533,1423.3323,
525.622,1454.3702,
522.712,1435.6414,
519.801,1390.484,
516.891,1351.1677,
513.980,1386.011,
511.070,1373.6294,
508.159,1379.5417,
505.248,1389.3696,
502.338,1378.5542,
499.427,1393.2191,
496.517,1394.2967,
493.606,1395.1534,
490.695,1405.8323,
487.785,1439.7031,
484.874,1420.5685,
481.964,1400.0653,
479.053,1393.6183,
476.143,1408.2096,
473.232,1373.8742,
470.321,1365.9639,
467.411,1373.138,
464.500,1376.4159,
461.590,1387.902,
458.679,1402.1309,
455.769,1406.084,
452.858,1400.6129,
449.947,1453.3242,
447.037,1420.4382,
444.126,1413.1977,
441.216,1446.2147,
438.305,1429.4522,
435.395,1416.6348,
432.484,1407.3742,
429.573,1398.0425,
426.663,1380.5592,
423.752,1305.896,
420.842,1241.2436,
417.931,1171.313,
415.020,1062.8678,
412.110,1173.9883,
409.199,1331.0393,
406.289,1437.1042,
403.378,1394.0456,
400.468,1370.6098,
397.557,1355.9269,
394.646,1371.2113,
391.736,1431.4147,
388.825,1440.4655,
385.915,1448.4469,
383.004,1441.9888,
380.094,1414.5473,
377.183,1422.8245,
374.272,1431.6384,
371.362,1447.4265,
368.451,1471.7147,
365.541,1464.9599,
362.630,1448.3765,
359.719,1439.0847,
356.809,1445.4907,
353.898,1435.0075,
350.988,1441.3473,
348.077,1436.9278,
345.167,1408.563,
342.256,1436.9516,
339.345,1441.405,
336.435,1449.7839,
333.524,1479.0915,
330.614,1446.3047,
327.703,1442.2859,
324.793,1462.0457,
321.882,1502.116,
318.971,1498.3988,
316.061,1476.1275,
313.150,1467.9821,
310.240,1512.5091,
307.329,1545.569,
304.418,1549.4619,
301.508,1556.6512,
298.597,1622.5483,
295.687,1619.9981,
292.776,1621.5417,
289.866,1630.3705,
286.955,1636.2803,
284.044,1679.5025,
281.134,1726.7126,
278.223,1757.1492,
275.313,1702.6219,
272.402,1731.7882,
269.492,1772.8486,
266.581,1791.8189,
263.670,1703.5973,
260.760,1741.3334,
257.849,1795.7888,
254.939,1786.2484,
252.028,1794.8111,
249.117,1788.9885,
246.207,1785.512,
243.296,1814.0615,
240.386,1845.2036,
237.475,1845.9101,
234.565,1824.7355,
231.654,1834.9608,
228.743,1805.4798,
225.833,1772.6732,
222.922,1748.9167,
220.012,1701.5606,
217.101,1706.2443,
214.191,1713.5743,
211.280,1668.4716,
208.369,1640.2309,
205.459,1625.7295,
202.548,1625.7601,
199.638,1646.8039,
196.727,1628.0764,
193.816,1617.1455,
190.906,1627.8491,
187.995,1534.4499,
185.085,1505.9078,
182.174,1513.2591,
179.264,1524.8234,
176.353,1520.358,
173.442,1528.3643,
170.532,1537.2041,
167.621,1443.4773,
164.711,1407.6136,
161.800,1355.8535,
158.890,1232.0603,
155.979,1172.7175,
153.068,1075.4758,
150.158,943.20692,
147.247,796.74466,
144.337,691.07425,
141.426,565.51008,
138.516,389.15483,
135.605,258.27948,
132.694,173.76268,
129.784,122.76282,
126.873,79.855025,
123.963,50.638475,
121.052,30.592372,
118.141,19.16994,
115.231,21.256711,
112.320,18.735913,
109.410,14.397711,
106.499,15.822021,
103.589,12.203219,
100.678,9.3966217,
97.767,10.107559,
94.857,8.7390219,
91.946,12.156109,
89.036,17.221817,
86.125,11.548175,
83.215,10.65592,
80.304,7.0546444,
77.393,-4.9842446,
74.483,5.2622943,
71.572,8.2261831,
68.662,3.0557325,
65.751,2.3492814,
62.840,3.088404,
59.930,4.125,
57.019,4.125,
54.109,1.1391958,
51.198,0.029827825,
48.288,2.1363249,
45.377,3.543081,
42.466,2.0639033,
39.556,-0.41452569,
36.645,2.3942352,
33.735,1.0480061,
30.824,-1.7585479,
27.914,-4.5632489,
25.003,-6.7429124,
22.092,-9.4895228,
19.182,-12.55464,
16.271,-2.7617781,
13.361,2.3893739,
10.450,-26.042629,
7.539,-201.31979,
4.629,-586.10051,
1.718,-997.52687,
-1.192,-1302.8762,
-4.103,-1004.0108,
-7.013,-547.21744,
-9.924,-0.875,
