,PLB88C~1,
Wavenumbers [1/cm],Intensity,
3014.167,1,
3011.256,0.55001074,
3008.346,35.961312,
3005.435,18.848059,
3002.525,31.962528,
2999.614,40.237664,
2996.704,28.052582,
2993.793,30.371544,
2990.882,36.954177,
2987.972,38.98991,
2985.061,40.546803,
2982.151,29.147886,
2979.240,24.366922,
2976.329,38.027301,
2973.419,45.077022,
2970.508,34.216703,
2967.598,37.330923,
2964.687,39.282608,
2961.777,32.444205,
2958.866,39.008908,
2955.955,37.62388,
2953.045,47.201353,
2950.134,57.606415,
2947.224,51.085406,
2944.313,58.044872,
2941.403,49.963961,
2938.492,58.861791,
2935.581,61.704293,
2932.671,57.201732,
2929.760,54.77306,
2926.850,55.425187,
2923.939,57.724332,
2921.028,53.788344,
2918.118,52.819899,
2915.207,52.588615,
2912.297,70.923836,
2909.386,63.211675,
2906.476,54.294962,
2903.565,70.436302,
2900.654,51.494447,
2897.744,69.987428,
2894.833,64.051638,
2891.923,47.269196,
2889.012,48.208093,
2886.102,47.18784,
2883.191,26.01888,
2880.280,20.052622,
2877.370,-112.23802,
2874.459,-239.90535,
2871.549,-136.51252,
2868.638,-11.082546,
2865.727,4.7384487,
2862.817,34.044097,
2859.906,37.025638,
2856.996,51.470563,
2854.085,72.964313,
2851.175,52.620459,
2848.264,58.715667,
2845.353,49.301938,
2842.443,63,
2839.532,58.343312,
2836.622,71.938152,
2833.711,70.207227,
2830.801,76.697795,
2827.890,68.877646,
2824.979,74.938048,
2822.069,81.965884,
2819.158,78.619946,
2816.248,80.241315,
2813.337,84.597575,
2810.427,67.081259,
2807.516,73.633125,
2804.605,78.978363,
2801.695,72.171047,
2798.784,73.704308,
2795.874,66.704472,
2792.963,63.785423,
2790.052,81.994638,
2787.142,89.881732,
2784.231,86.840086,
2781.321,69.628603,
2778.410,77.755078,
2775.500,79.063447,
2772.589,80.038987,
2769.678,90.320808,
2766.768,84.071832,
2763.857,79.894026,
2760.947,82.050434,
2758.036,95.929972,
2755.126,87.337604,
2752.215,87.168319,
2749.304,92.638494,
2746.394,83.328603,
2743.483,90.350007,
2740.573,79.241108,
2737.662,87.542903,
2734.751,86.815417,
2731.841,83.188641,
2728.930,79.449142,
2726.020,86.561343,
2723.109,80.361001,
2720.199,92.765706,
2717.288,89.156941,
2714.377,96,
2711.467,96.196704,
2708.556,87.096001,
2705.646,88.140872,
2702.735,104.16753,
2699.825,102.55454,
2696.914,100.80955,
2694.003,98.669914,
2691.093,108.66065,
2688.182,104.70889,
2685.272,108.72546,
2682.361,90.058951,
2679.450,93.201611,
2676.540,96.020324,
2673.629,94.345306,
2670.719,96.707953,
2667.808,105.75682,
2664.898,106.93482,
2661.987,113.06651,
2659.076,104.38147,
2656.166,99.692685,
2653.255,95.256805,
2650.345,93.37568,
2647.434,82.515293,
2644.524,115.75298,
2641.613,110.37146,
2638.702,120.84219,
2635.792,111.43769,
2632.881,112.30948,
2629.971,107.02009,
2627.060,106.83032,
2624.149,124.56876,
2621.239,105.72777,
2618.328,102.04239,
2615.418,105.32273,
2612.507,111.2411,
2609.597,117.4491,
2606.686,120.80522,
2603.775,111.35714,
2600.865,109.64508,
2597.954,117.76663,
2595.044,124.74047,
2592.133,108,
2589.223,109.78316,
2586.312,140.0704,
2583.401,114.2664,
2580.491,119.79323,
2577.580,119.97524,
2574.670,107.76737,
2571.759,127.11129,
2568.848,111.48053,
2565.938,119.71431,
2563.027,117,
2560.117,108.7383,
2557.206,131.12177,
2554.296,136.40275,
2551.385,137.9259,
2548.474,147.51896,
2545.564,125.04463,
2542.653,148.24161,
2539.743,144.67868,
2536.832,111.87663,
2533.922,135.01577,
2531.011,137.92484,
2528.100,136.60277,
2525.190,143.64918,
2522.279,148.24963,
2519.369,132.69813,
2516.458,129.22026,
2513.548,143.99067,
2510.637,147.55334,
2507.726,151.0037,
2504.816,137.74972,
2501.905,137.62317,
2498.995,137.11944,
2496.084,138.69338,
2493.173,131.92086,
2490.263,146.94353,
2487.352,158.70627,
2484.442,132.70234,
2481.531,129.88842,
2478.621,145.10436,
2475.710,161.01534,
2472.799,160.78029,
2469.889,148.66758,
2466.978,145.88657,
2464.068,154.6614,
2461.157,158.84503,
2458.247,154,
2455.336,159.27594,
2452.425,147.73583,
2449.515,157.20791,
2446.604,167.00695,
2443.694,149.02301,
2440.783,148.85811,
2437.872,146.65637,
2434.962,160.84793,
2432.051,158.82729,
2429.141,168.84702,
2426.230,160.65191,
2423.320,168.29958,
2420.409,173.89767,
2417.498,169.5562,
2414.588,160.38031,
2411.677,159.60959,
2408.767,172.96457,
2405.856,169.62854,
2402.946,168.47006,
2400.035,176.6878,
2397.124,169.4492,
2394.214,175.5952,
2391.303,177.78455,
2388.393,173.50697,
2385.482,171.08812,
2382.571,139.98719,
2379.661,145,
2376.750,156.57628,
2373.840,184.60929,
2370.929,197.91336,
2368.019,191.8436,
2365.108,183.04712,
2362.197,182.37537,
2359.287,188.39499,
2356.376,199.98063,
2353.466,198.6216,
2350.555,193,
2347.645,188.85563,
2344.734,176.54376,
2341.823,195.63517,
2338.913,200.40148,
2336.002,196.7081,
2333.092,201.87358,
2330.181,204.77237,
2327.270,186.15511,
2324.360,203.5967,
2321.449,201,
2318.539,208.66057,
2315.628,213.90767,
2312.718,210.35022,
2309.807,199.81976,
2306.896,207.72457,
2303.986,199.30521,
2301.075,205.31913,
2298.165,222.36565,
2295.254,215.23697,
2292.344,218.3651,
2289.433,216.89181,
2286.522,210.04894,
2283.612,241.73088,
2280.701,234.01796,
2277.791,228.43895,
2274.880,214.35801,
2271.969,216.25515,
2269.059,225.79292,
2266.148,210.49082,
2263.238,217.4942,
2260.327,223.93103,
2257.417,221.57667,
2254.506,222.25928,
2251.595,219.7237,
2248.685,230.4134,
2245.774,225.28592,
2242.864,239.67582,
2239.953,232.95176,
2237.043,221.71393,
2234.132,222.70905,
2231.221,238.94837,
2228.311,224.73327,
2225.400,241.05629,
2222.490,242.07164,
2219.579,241.07714,
2216.669,243.51669,
2213.758,243.91373,
2210.847,235.52142,
2207.937,263.69703,
2205.026,260.44402,
2202.116,268.32909,
2199.205,256.35012,
2196.294,259.61998,
2193.384,257.60549,
2190.473,255.85798,
2187.563,283.03867,
2184.652,288.4396,
2181.742,270.15861,
2178.831,269.79381,
2175.920,271.09107,
2173.010,287.20181,
2170.099,276.93551,
2167.189,290.85649,
2164.278,275.84221,
2161.368,301.42888,
2158.457,299.6599,
2155.546,311.0452,
2152.636,296.88303,
2149.725,291.49664,
2146.815,325.83209,
2143.904,333.40148,
2140.993,340.95762,
2138.083,353.27052,
2135.172,357.45382,
2132.262,339.21655,
2129.351,337.83801,
2126.441,353.48547,
2123.530,357.12346,
2120.619,363.18369,
2117.709,325.88044,
2114.798,317.26551,
2111.888,324.75045,
2108.977,335.34438,
2106.067,317.42327,
2103.156,318.55802,
2100.245,283.01945,
2097.335,314.24084,
2094.424,315.5213,
2091.514,305.41928,
2088.603,301.39166,
2085.692,312.81785,
2082.782,307.05224,
2079.871,331.28704,
2076.961,323.90409,
2074.050,333.44848,
2071.140,303.48272,
2068.229,311.98697,
2065.318,326.08625,
2062.408,319.06052,
2059.497,324.61906,
2056.587,331,
2053.676,331.81662,
2050.766,338.46114,
2047.855,335.11392,
2044.944,333.94553,
2042.034,307.39893,
2039.123,332.42087,
2036.213,336.13553,
2033.302,344.67369,
2030.391,353.1357,
2027.481,350.2561,
2024.570,360.11402,
2021.660,335.65562,
2018.749,367.24019,
2015.839,346.1168,
2012.928,340.43625,
2010.017,349.33875,
2007.107,327.60562,
2004.196,334,
2001.286,347.29326,
1998.375,351.8248,
1995.465,343.70714,
1992.554,338.49415,
1989.643,369.8594,
1986.733,356.1807,
1983.822,329.64254,
1980.912,358.53421,
1978.001,342.50835,
1975.090,348.79695,
1972.180,351.93085,
1969.269,356.26438,
1966.359,341.78357,
1963.448,354.91546,
1960.538,352.45037,
1957.627,341.08358,
1954.716,341.94255,
1951.806,374.45354,
1948.895,364.25506,
1945.985,367.42974,
1943.074,366.26948,
1940.164,350.42311,
1937.253,356.01298,
1934.342,348.90589,
1931.432,344.35016,
1928.521,356.14335,
1925.611,344.14302,
1922.700,362.53453,
1919.790,357.80359,
1916.879,363.442,
1913.968,351.01598,
1911.058,371.4054,
1908.147,364.32848,
1905.237,367.8382,
1902.326,347.2637,
1899.415,338.48657,
1896.505,315.86743,
1893.594,318.26832,
1890.684,336.29406,
1887.773,363.48229,
1884.863,389.11845,
1881.952,391.81504,
1879.041,378.65265,
1876.131,357.89805,
1873.220,367.07527,
1870.310,398.70398,
1867.399,378.36785,
1864.489,360.67457,
1861.578,399.57162,
1858.667,376.29341,
1855.757,376.8043,
1852.846,373.00513,
1849.936,374.18619,
1847.025,373.52798,
1844.114,390.46121,
1841.204,412.76573,
1838.293,404.02827,
1835.383,382.0815,
1832.472,421.88522,
1829.562,439.22396,
1826.651,416.9569,
1823.740,405.63218,
1820.830,397.05506,
1817.919,399.88626,
1815.009,387.30026,
1812.098,392.1811,
1809.188,438.02315,
1806.277,372.54923,
1803.366,397.41591,
1800.456,422.16487,
1797.545,426.84388,
1794.635,442.80697,
1791.724,426.51458,
1788.813,430.2144,
1785.903,461.86831,
1782.992,427.04772,
1780.082,423.09143,
1777.171,317.64237,
1774.261,253.28053,
1771.350,331.84726,
1768.439,413.91936,
1765.529,452.45369,
1762.618,457.62877,
1759.708,441.41277,
1756.797,440.81818,
1753.887,460.1793,
1750.976,473.92081,
1748.065,470.8679,
1745.155,468.38705,
1742.244,485.90487,
1739.334,472.45883,
1736.423,492.67473,
1733.512,470.80072,
1730.602,502.133,
1727.691,513.92936,
1724.781,523.2255,
1721.870,496.22364,
1718.960,535.86723,
1716.049,528.38153,
1713.138,536.11495,
1710.228,513.63168,
1707.317,490.53943,
1704.407,522.13909,
1701.496,550.61179,
1698.586,553,
1695.675,553.93571,
1692.764,499.09013,
1689.854,479.73621,
1686.943,535.04391,
1684.033,518.47189,
1681.122,563.21835,
1678.211,572.91434,
1675.301,594.93216,
1672.390,536.95215,
1669.480,521.60967,
1666.569,597.29201,
1663.659,619.59169,
1660.748,595.4242,
1657.837,617.503,
1654.927,639.2737,
1652.016,608.44112,
1649.106,587.27301,
1646.195,638.86315,
1643.285,673.88607,
1640.374,667.87109,
1637.463,616.17095,
1634.553,680.17733,
1631.642,692.27145,
1628.732,717.17184,
1625.821,746.00589,
1622.911,754.94928,
1620.000,761.91181,
1617.089,820.80597,
1614.179,847.26677,
1611.268,842.22307,
1608.358,916.3478,
1605.447,944.51448,
1602.536,934.81735,
1599.626,970.79731,
1596.715,981.26081,
1593.805,950.69838,
1590.894,953.16469,
1587.984,996.43851,
1585.073,945.14446,
1582.162,964.22101,
1579.252,942.99606,
1576.341,903.35534,
1573.431,899.69904,
1570.520,886.47684,
1567.610,877.52934,
1564.699,857.87426,
1561.788,864.38015,
1558.878,877.51039,
1555.967,866.46538,
1553.057,836.67264,
1550.146,841.82178,
1547.235,836.47086,
1544.325,852.71106,
1541.414,862.6588,
1538.504,853.5138,
1535.593,833.54959,
1532.683,802.81212,
1529.772,804.9373,
1526.861,815.16042,
1523.951,819.90882,
1521.040,840.88915,
1518.130,847.02141,
1515.219,888.91918,
1512.309,896.43687,
1509.398,833.1407,
1506.487,831.08656,
1503.577,840.99641,
1500.666,868.76883,
1497.756,857.93207,
1494.845,845.64035,
1491.934,860.83622,
1489.024,810.78659,
1486.113,844.23419,
1483.203,803.47978,
1480.292,815.81874,
1477.382,865.87839,
1474.471,798.72734,
1471.560,783.70799,
1468.650,778.11744,
1465.739,758.62824,
1462.829,764.32362,
1459.918,793.33718,
1457.008,805.44611,
1454.097,808.93237,
1451.186,809.93037,
1448.276,807.37939,
1445.365,798.46051,
1442.455,751.36008,
1439.544,757.09541,
1436.633,786.75671,
1433.723,765.98793,
1430.812,791.78352,
1427.902,765.28533,
1424.991,819.30779,
1422.081,762.28147,
1419.170,802.7952,
1416.259,822.96101,
1413.349,790.50367,
1410.438,799.29361,
1407.528,820.23109,
1404.617,816.43169,
1401.707,792.57185,
1398.796,770.9196,
1395.885,812.60672,
1392.975,841.91495,
1390.064,781.12684,
1387.154,825.51474,
1384.243,854.13684,
1381.332,826.99599,
1378.422,830.89407,
1375.511,751.26769,
1372.601,786.86281,
1369.690,797.715,
1366.780,775.23895,
1363.869,836.56236,
1360.958,838.23221,
1358.048,834.30637,
1355.137,862.07873,
1352.227,890.69286,
1349.316,912.27604,
1346.406,931.91587,
1343.495,913.3292,
1340.584,861.42742,
1337.674,934.42718,
1334.763,914.48198,
1331.853,953.42569,
1328.942,916.75304,
1326.032,935.653,
1323.121,945.44579,
1320.210,947.66592,
1317.300,950.95116,
1314.389,972.52816,
1311.479,995.80579,
1308.568,1002,
1305.657,993.00936,
1302.747,991.63435,
1299.836,1071.9631,
1296.926,1036,
1294.015,1036,
1291.105,1040.4027,
1288.194,1048.1887,
1285.283,1042.84,
1282.373,1060.2499,
1279.462,1078.0391,
1276.552,1093.2205,
1273.641,1093.2322,
1270.731,1069.8836,
1267.820,1066.0244,
1264.909,1081.263,
1261.999,1026.2316,
1259.088,1059.9801,
1256.178,1083.4114,
1253.267,1077.7937,
1250.356,1086.5133,
1247.446,1072.0513,
1244.535,1060.4777,
1241.625,1052.5037,
1238.714,1037.3114,
1235.804,1039.7476,
1232.893,1050.7427,
1229.982,1082.7121,
1227.072,1044.689,
1224.161,1042,
1221.251,1033.0659,
1218.340,1013.1569,
1215.430,1025.4709,
1212.519,1026.2479,
1209.608,1013.4419,
1206.698,1017.0423,
1203.787,995.94474,
1200.877,1038.8328,
1197.966,1036.1354,
1195.055,1008.696,
1192.145,1079.8857,
1189.234,1108.244,
1186.324,1106.727,
1183.413,1122.1066,
1180.503,1144.6627,
1177.592,1128.434,
1174.681,1079.7877,
1171.771,1099.2473,
1168.860,1109.9643,
1165.950,1130.3509,
1163.039,1092.3974,
1160.129,1082.8478,
1157.218,1115.4405,
1154.307,1129.901,
1151.397,1103.3932,
1148.486,1094.0519,
1145.576,1083.2313,
1142.665,1088.5588,
1139.754,1097.9499,
1136.844,1124.5106,
1133.933,1132.654,
1131.023,1098.8975,
1128.112,1073.7127,
1125.202,1095.657,
1122.291,1103.7493,
1119.380,1101.8181,
1116.470,1083.285,
1113.559,1082.5465,
1110.649,1068.5934,
1107.738,1092.0774,
1104.828,1097.3628,
1101.917,1067,
1099.006,1071.3813,
1096.096,1088.291,
1093.185,1027.7088,
1090.275,1054.5615,
1087.364,1079.1531,
1084.453,1081.3754,
1081.543,1080.0675,
1078.632,1105.3108,
1075.722,1150.8716,
1072.811,1142.8353,
1069.901,1098.299,
1066.990,1106.3166,
1064.079,1098.1118,
1061.169,1096.3138,
1058.258,1096.4591,
1055.348,1105.3463,
1052.437,1123.6848,
1049.527,1068.551,
1046.616,1134.5821,
1043.705,1133.5216,
1040.795,1130.3615,
1037.884,1117.8623,
1034.974,1112.3312,
1032.063,1128.4844,
1029.153,1145.0652,
1026.242,1137.2806,
1023.331,1099.5024,
1020.421,1148.4652,
1017.510,1162.3548,
1014.600,1154.4229,
1011.689,1148.4434,
1008.778,1136.3983,
1005.868,1161.8687,
1002.957,1147.2427,
1000.047,1180.672,
997.136,1188.1267,
994.226,1212.9995,
991.315,1245.9554,
988.404,1231.8663,
985.494,1194.7123,
982.583,1181.864,
979.673,1173.4152,
976.762,1183.9162,
973.852,1190.3479,
970.941,1176.3303,
968.030,1158.9654,
965.120,1204.0752,
962.209,1221.9786,
959.299,1208.002,
956.388,1195.4004,
953.477,1192.6441,
950.567,1202.5813,
947.656,1224.1114,
944.746,1224.961,
941.835,1224.1902,
938.925,1243.0835,
936.014,1249.965,
933.103,1237.8195,
930.193,1220.0012,
927.282,1214.5335,
924.372,1187.4741,
921.461,1242.912,
918.551,1233.2105,
915.640,1209.3002,
912.729,1203.7797,
909.819,1200.5602,
906.908,1242.6815,
903.998,1196.4828,
901.087,1189.7286,
898.176,1203.4983,
895.266,1233.4091,
892.355,1270.487,
889.445,1257.0588,
886.534,1249.4862,
883.624,1268.185,
880.713,1295.8625,
877.802,1289.03,
874.892,1225.2476,
871.981,1137.6993,
869.071,955.57929,
866.160,959.8779,
863.250,1068.7839,
860.339,1181.28,
857.428,1245.9656,
854.518,1303.7483,
851.607,1260.4807,
848.697,1176.6523,
845.786,1115.5327,
842.875,1109.1765,
839.965,1165.8113,
837.054,1270.4094,
834.144,1306.8745,
831.233,1325.9991,
828.323,1321.1194,
825.412,1322.2346,
822.501,1346.5106,
819.591,1338.2466,
816.680,1358.8334,
813.770,1364,
810.859,1331.5107,
807.949,1295.8586,
805.038,1307.3938,
802.127,1318.9176,
799.217,1311.8007,
796.306,1303.3243,
793.396,1300.168,
790.485,1305.1587,
787.574,1317.218,
784.664,1322.9587,
781.753,1349.4974,
778.843,1347.7876,
775.932,1344.7282,
773.022,1365.5477,
770.111,1330.3918,
767.200,1347.7941,
764.290,1340.1309,
761.379,1337.4835,
758.469,1345.861,
755.558,1335.0941,
752.648,1371.7512,
749.737,1365.2914,
746.826,1378.0475,
743.916,1397.9285,
741.005,1398.8954,
738.095,1477.6474,
735.184,1503.4464,
732.274,1456.8844,
729.363,1395.5508,
726.452,1362.1297,
723.542,1324.0882,
720.631,1328.8809,
717.721,1332.1457,
714.810,1348.9885,
711.899,1382.1485,
708.989,1412.8117,
706.078,1431.43,
703.168,1398.3523,
700.257,1378.1257,
697.347,1378.3484,
694.436,1358.7201,
691.525,1385.2457,
688.615,1383.4531,
685.704,1377.2732,
682.794,1384.8297,
679.883,1416.4233,
676.973,1403.6014,
674.062,1401.6381,
671.151,1392.7951,
668.241,1389.8152,
665.330,1416.2983,
662.420,1380.3553,
659.509,1397.7623,
656.598,1415.0292,
653.688,1431.6523,
650.777,1472.5959,
647.867,1431.1868,
644.956,1414.5702,
642.046,1379.3197,
639.135,1340.1922,
636.224,1356.3621,
633.314,1428.6105,
630.403,1441.0879,
627.493,1436.2319,
624.582,1424.7589,
621.672,1378.8232,
618.761,1402.8379,
615.850,1451.2221,
612.940,1490.8307,
610.029,1496.8978,
607.119,1454.2577,
604.208,1467.0403,
601.297,1478.9852,
598.387,1481.9936,
595.476,1478.9313,
592.566,1499.395,
589.655,1493.9295,
586.745,1477.7168,
583.834,1467.8308,
580.923,1485.1232,
578.013,1505.5263,
575.102,1509.2792,
572.192,1505.499,
569.281,1507.7488,
566.371,1545.3147,
563.460,1521.4867,
560.549,1526.0802,
557.639,1548.3713,
554.728,1562.4087,
551.818,1553.045,
548.907,1527.2329,
545.996,1510.8336,
543.086,1507.6579,
540.175,1501.4287,
537.265,1506.7942,
534.354,1500.4713,
531.444,1498.6878,
528.533,1519.3661,
525.622,1566.6989,
522.712,1538.7745,
519.801,1496.4335,
516.891,1473.9472,
513.980,1503.3704,
511.070,1516.5652,
508.159,1526.7308,
505.248,1535.2533,
502.338,1542.4067,
499.427,1556.2996,
496.517,1558.8687,
493.606,1559.346,
490.695,1560.9302,
487.785,1553.2322,
484.874,1554.5849,
481.964,1543.9569,
479.053,1523.6906,
476.143,1509.8672,
473.232,1509,
470.321,1509.4866,
467.411,1519.8771,
464.500,1548.4958,
461.590,1528.5865,
458.679,1519.6982,
455.769,1531.1779,
452.858,1560.4888,
449.947,1545.9741,
447.037,1519.3363,
444.126,1546.8848,
441.216,1611.5335,
438.305,1562.7699,
435.395,1558.6225,
432.484,1535.4116,
429.573,1499.935,
426.663,1495.3741,
423.752,1375.7413,
420.842,1171.9236,
417.931,956.95593,
415.020,837.13535,
412.110,1123.4504,
409.199,1340.0243,
406.289,1456.2299,
403.378,1459.6593,
400.468,1359.1121,
397.557,1370.1886,
394.646,1446.5536,
391.736,1544.4004,
388.825,1588.1458,
385.915,1606.8541,
383.004,1612,
380.094,1609.8118,
377.183,1566.9207,
374.272,1548.4866,
371.362,1550.6525,
368.451,1571.1884,
365.541,1607.2141,
362.630,1597.3353,
359.719,1575.6726,
356.809,1562.7281,
353.898,1558.2354,
350.988,1581.4119,
348.077,1596.1918,
345.167,1582.3784,
342.256,1589.8491,
339.345,1569.6798,
336.435,1550.2776,
333.524,1550.2719,
330.614,1527.172,
327.703,1547.2105,
324.793,1569.1331,
321.882,1558.0595,
318.971,1582.5931,
316.061,1590.0234,
313.150,1595.4667,
310.240,1616.2459,
307.329,1640.583,
304.418,1661.3988,
301.508,1694.4954,
298.597,1767.7967,
295.687,1737.429,
292.776,1720,
289.866,1722.6467,
286.955,1735.2051,
284.044,1751.5475,
281.134,1769.6275,
278.223,1781.2576,
275.313,1748.836,
272.402,1769.8834,
269.492,1780.1776,
266.581,1751.6955,
263.670,1649.5054,
260.760,1682.686,
257.849,1753.8579,
254.939,1793.4875,
252.028,1765.0462,
249.117,1775.0141,
246.207,1800.9471,
243.296,1804.6072,
240.386,1829.8137,
237.475,1838.0056,
234.565,1833.1059,
231.654,1852.8263,
228.743,1848.9448,
225.833,1833.2433,
222.922,1808.7917,
220.012,1761.4356,
217.101,1783.7851,
214.191,1815.5689,
211.280,1790.8352,
208.369,1760.7418,
205.459,1739.015,
202.548,1733.1421,
199.638,1768.6989,
196.727,1742.5795,
193.816,1737.5665,
190.906,1779.3685,
187.995,1675.833,
185.085,1682.0842,
182.174,1712.9376,
179.264,1653.6707,
176.353,1652.767,
173.442,1663.9763,
170.532,1664.3068,
167.621,1546.7878,
164.711,1480.3125,
161.800,1406.7285,
158.890,1282.9353,
155.979,1159.9143,
153.068,1059.5852,
150.158,966.44836,
147.247,822.13996,
144.337,684.60617,
141.426,538.88223,
138.516,376.86481,
135.605,259.60539,
132.694,177.67097,
129.784,121.24412,
126.873,71.18503,
123.963,54.171158,
121.052,41.351191,
118.141,22.075837,
115.231,21.28943,
112.320,20.576364,
109.410,19.454579,
106.499,16.605958,
103.589,10.95771,
100.678,7.2716217,
97.767,7.9825593,
94.857,7.307011,
91.946,9.0155544,
89.036,11.661306,
86.125,9.5336905,
83.215,7.4072389,
80.304,5.2817019,
77.393,3.1571921,
74.483,6.2756748,
71.572,5.1011831,
68.662,0.415605,
65.751,4.6543115,
62.840,6.963404,
59.930,6.5017104,
57.019,0.86105453,
54.109,-2.3886434,
51.198,-1.8887351,
48.288,2.9830127,
45.377,0.87287847,
42.466,0,
39.556,-0.23023716,
36.645,-1.6346176,
33.735,0.59624233,
30.824,1.0120172,
27.914,-5.29856,
25.003,-5.3773625,
22.092,-3.7083818,
19.182,-0.88558569,
16.271,2.611865,
13.361,8.2145798,
10.450,-20.85503,
7.539,-223.36649,
4.629,-559.97874,
1.718,-914.9479,
-1.192,-1204.96,
-4.103,-952.14165,
-7.013,-532.11886,
-9.924,1,
