,PL1DEA~1,
Wavenumbers [1/cm],Intensity,
3014.167,-2.125,
3011.256,2.4250107,
3008.346,13.562426,
3005.435,9.376769,
3002.525,17.082494,
2999.614,9.7269635,
2996.704,10.697683,
2993.793,12.627304,
2990.882,17.088707,
2987.972,26.769056,
2985.061,8.9784523,
2982.151,23.443076,
2979.240,10.788477,
2976.329,24.118175,
2973.419,33.921471,
2970.508,27.041634,
2967.598,11.588253,
2964.687,14.471467,
2961.777,13.909087,
2958.866,24.875,
2955.955,21.839606,
2953.045,19.875,
2950.134,22.907076,
2947.224,19.732656,
2944.313,20.268163,
2941.403,21.660585,
2938.492,28.449527,
2935.581,31.987879,
2932.671,30.033787,
2929.760,23.875,
2926.850,31.456954,
2923.939,19.234812,
2921.028,39.910496,
2918.118,38.571467,
2915.207,12.22946,
2912.297,21.84115,
2909.386,33.502729,
2906.476,20.689638,
2903.565,31.359449,
2900.654,21.263272,
2897.744,25.963005,
2894.833,29.988456,
2891.923,12.089694,
2889.012,14.909684,
2886.102,16.73313,
2883.191,-12.11084,
2880.280,2.9802435,
2877.370,-105.40967,
2874.459,-193.31972,
2871.549,-113.08504,
2868.638,-34.438443,
2865.727,-18.098082,
2862.817,5.7332703,
2859.906,12.242517,
2856.996,23.870471,
2854.085,40.719566,
2851.175,21.847945,
2848.264,15.791829,
2845.353,18.09067,
2842.443,31.06943,
2839.532,18.800477,
2836.622,20.875,
2833.711,24.556324,
2830.801,32.371325,
2827.890,26.294606,
2824.979,48.578947,
2822.069,42.897744,
2819.158,42.21462,
2816.248,38.622105,
2813.337,52.720131,
2810.427,41.132571,
2807.516,40.141251,
2804.605,35.079327,
2801.695,33.046047,
2798.784,23.466385,
2795.874,20.579472,
2792.963,29.232128,
2790.052,51.870067,
2787.142,35.533078,
2784.231,37.843966,
2781.321,35.120677,
2778.410,22.215105,
2775.500,32.89465,
2772.589,33.452215,
2769.678,39.267485,
2766.768,40.875,
2763.857,37.453034,
2760.947,35.409673,
2758.036,39.180722,
2755.126,39.304487,
2752.215,43.256897,
2749.304,52.364205,
2746.394,39.721765,
2743.483,46.174986,
2740.573,35.56742,
2737.662,30.311393,
2734.751,38.831102,
2731.841,34.711991,
2728.930,33.446996,
2726.020,45.548611,
2723.109,37.576252,
2720.199,57.268891,
2717.288,36.875,
2714.377,46.454022,
2711.467,44.531039,
2708.556,29.311211,
2705.646,35.480654,
2702.735,44.539947,
2699.825,47.765929,
2696.914,47.208174,
2694.003,59.288004,
2691.093,59.94601,
2688.182,42.76537,
2685.272,53.998757,
2682.361,40.722161,
2679.450,42.953162,
2676.540,44.915648,
2673.629,43.888469,
2670.719,40.444318,
2667.808,55.194102,
2664.898,57.654182,
2661.987,55.341578,
2659.076,51.002156,
2656.166,46.714772,
2653.255,56.505951,
2650.345,52.875,
2647.434,41.932732,
2644.524,54.994864,
2641.613,49.103788,
2638.702,56.811876,
2635.792,51.344588,
2632.881,52.380826,
2629.971,69.217351,
2627.060,47.374064,
2624.149,58.090621,
2621.239,58.117589,
2618.328,31.680357,
2615.418,51.202274,
2612.507,56.357204,
2609.597,53.334082,
2606.686,56.26456,
2603.775,53.07341,
2600.865,47.875,
2597.954,56.497883,
2595.044,67.553476,
2592.133,58.148817,
2589.223,58.332899,
2586.312,62.679034,
2583.401,48.794681,
2580.491,51.942271,
2577.580,45.868399,
2574.670,48.793431,
2571.759,63.021407,
2568.848,56.582165,
2565.938,51.874859,
2563.027,66.850025,
2560.117,49.071239,
2557.206,51.915589,
2554.296,70.188501,
2551.385,68.627018,
2548.474,82.8382,
2545.564,71.413144,
2542.653,81.717283,
2539.743,68.492065,
2536.832,51.323595,
2533.922,67.701538,
2531.011,64.299372,
2528.100,68.415022,
2525.190,73.848768,
2522.279,85.374264,
2519.369,53.667526,
2516.458,51.986898,
2513.548,60.156716,
2510.637,85.120931,
2507.726,84.81551,
2504.816,67.99901,
2501.905,63.498171,
2498.995,66.00966,
2496.084,79.275669,
2493.173,63.901158,
2490.263,74.234345,
2487.352,67.1254,
2484.442,78.286118,
2481.531,76.603876,
2478.621,51.35837,
2475.710,92.80599,
2472.799,76.722613,
2469.889,64.57031,
2466.978,81.369784,
2464.068,77.171273,
2461.157,82.757552,
2458.247,74.727951,
2455.336,77.853476,
2452.425,68.176875,
2449.515,71.978955,
2446.604,77.759808,
2443.694,77.363496,
2440.783,76.636261,
2437.872,70.057325,
2434.962,72.510948,
2432.051,71.239297,
2429.141,76.875,
2426.230,87.157897,
2423.320,79.074718,
2420.409,86.336626,
2417.498,84.858153,
2414.588,74.160235,
2411.677,64.879033,
2408.767,91.369095,
2405.856,95.503542,
2402.946,88.184206,
2400.035,88.168432,
2397.124,83.324195,
2394.214,90.767795,
2391.303,92.444107,
2388.393,83.142433,
2385.482,64.668113,
2382.571,59.697659,
2379.661,59.409964,
2376.750,66.345354,
2373.840,76.090629,
2370.929,100.60426,
2368.019,91.453199,
2365.108,100.19961,
2362.197,90.165324,
2359.287,94.438235,
2356.376,104.86443,
2353.466,97.48117,
2350.555,92.319872,
2347.645,89.243209,
2344.734,95.603122,
2341.823,90.974499,
2338.913,108.67796,
2336.002,100.92039,
2333.092,93.725911,
2330.181,91.701052,
2327.270,91.150027,
2324.360,99.33727,
2321.449,95.875,
2318.539,99.449931,
2315.628,99.387789,
2312.718,102.2913,
2309.807,104.44621,
2306.896,122.34761,
2303.986,104.9139,
2301.075,101.42817,
2298.165,116.84638,
2295.254,92.478205,
2292.344,121.34802,
2289.433,112.11818,
2286.522,106.33022,
2283.612,129.08547,
2280.701,127.54765,
2277.791,121.99335,
2274.880,101.94498,
2271.969,107.03549,
2269.059,120.04668,
2266.148,101.15213,
2263.238,97.172293,
2260.327,123.80576,
2257.417,98.484443,
2254.506,117.79812,
2251.595,114.46421,
2248.685,116.81532,
2245.774,105.75442,
2242.864,131.00467,
2239.953,129.23369,
2237.043,112.58893,
2234.132,110.83082,
2231.221,126.24457,
2228.311,135.22422,
2225.400,147.59355,
2222.490,138.06067,
2219.579,139.2169,
2216.669,139.37738,
2213.758,120.61093,
2210.847,118.1294,
2207.937,125.63069,
2205.026,137.20853,
2202.116,131.08838,
2199.205,132.99971,
2196.294,132.13102,
2193.384,141.79552,
2190.473,136.72124,
2187.563,150.92334,
2184.652,159.06766,
2181.742,143.85165,
2178.831,143.30695,
2175.920,145.05168,
2173.010,159.80187,
2170.099,145.47767,
2167.189,159.89653,
2164.278,165.22274,
2161.368,173.73276,
2158.457,160.45137,
2155.546,168.84425,
2152.636,161.93887,
2149.725,170.85485,
2146.815,197.07415,
2143.904,201.06832,
2140.993,179.28777,
2138.083,168.53454,
2135.172,197.24485,
2132.262,204.73856,
2129.351,210.44748,
2126.441,206.80702,
2123.530,195.96479,
2120.619,201.53565,
2117.709,187.66606,
2114.798,185.99034,
2111.888,173.21279,
2108.977,182.13329,
2106.067,171.91556,
2103.156,172.03385,
2100.245,175.87563,
2097.335,176.15249,
2094.424,171.11435,
2091.514,170.44488,
2088.603,175.94409,
2085.692,187.2393,
2082.782,181.09995,
2079.871,179.51794,
2076.961,199.51886,
2074.050,174.53561,
2071.140,170.44951,
2068.229,187.68489,
2065.318,195.19575,
2062.408,174.62464,
2059.497,180.72027,
2056.587,196.58429,
2053.676,195.24177,
2050.766,206.87425,
2047.855,171.33067,
2044.944,185.41186,
2042.034,178.71897,
2039.123,192.63594,
2036.213,190.37717,
2033.302,200.33115,
2030.391,205.41779,
2027.481,205.05785,
2024.570,201.13232,
2021.660,199.875,
2018.749,225.53309,
2015.839,214.18471,
2012.928,197.5646,
2010.017,201.82288,
2007.107,204.20023,
2004.196,204.43453,
2001.286,213.52163,
1998.375,224.1378,
1995.465,192.26429,
1992.554,203.03365,
1989.643,219.39111,
1986.733,217.16272,
1983.822,196.18519,
1980.912,243.76535,
1978.001,211.62082,
1975.090,211.26584,
1972.180,207.63432,
1969.269,219.68828,
1966.359,220.60455,
1963.448,231.8684,
1960.538,226.70235,
1957.627,213.1753,
1954.716,226.4441,
1951.806,229.57693,
1948.895,224.64017,
1945.985,228.44526,
1943.074,217.82711,
1940.164,206.29811,
1937.253,208.875,
1934.342,207.86644,
1931.432,227.08005,
1928.521,235.38104,
1925.611,213.85571,
1922.700,231.40953,
1919.790,228.40112,
1916.879,218.50275,
1913.968,227.8627,
1911.058,264.28941,
1908.147,241.34361,
1905.237,238.07353,
1902.326,245.46758,
1899.415,232.71032,
1896.505,176.31485,
1893.594,187.875,
1890.684,187.875,
1887.773,223.10687,
1884.863,264.18252,
1881.952,254.74018,
1879.041,261.24832,
1876.131,255.28808,
1873.220,238.92804,
1870.310,249.87049,
1867.399,262.68308,
1864.489,235.1476,
1861.578,244.39678,
1858.667,265.35407,
1855.757,240.49075,
1852.846,231.92113,
1849.936,248.59673,
1847.025,231.93095,
1844.114,253.32444,
1841.204,271.73864,
1838.293,265.39745,
1835.383,245.31701,
1832.472,273.67848,
1829.562,278.34974,
1826.651,263.77234,
1823.740,282.98615,
1820.830,244.57538,
1817.919,256.12067,
1815.009,263.58747,
1812.098,262.97736,
1809.188,285.38658,
1806.277,254.60535,
1803.366,262.07646,
1800.456,216.68859,
1797.545,251.37837,
1794.635,283.55296,
1791.724,270.18565,
1788.813,287.88271,
1785.903,299.2123,
1782.992,268.33703,
1780.082,266.14623,
1777.171,161.5238,
1774.261,112.76036,
1771.350,184.24152,
1768.439,261.62188,
1765.529,287.42131,
1762.618,314.61567,
1759.708,298.02677,
1756.797,296.45076,
1753.887,335.77296,
1750.976,341.28534,
1748.065,340.875,
1745.155,330.65572,
1742.244,342.75269,
1739.334,321.06324,
1736.423,323.83199,
1733.512,332.33029,
1730.602,348.58336,
1727.691,352.33968,
1724.781,335.35689,
1721.870,339.72743,
1718.960,369.00866,
1716.049,354.73961,
1713.138,373.10489,
1710.228,355.98787,
1707.317,362.60529,
1704.407,380.94455,
1701.496,358.26321,
1698.586,392.83438,
1695.675,394.93929,
1692.764,382.56762,
1689.854,342.65057,
1686.943,368.89696,
1684.033,425.45933,
1681.122,398.36778,
1678.211,384.99873,
1675.301,407.80408,
1672.390,366.85406,
1669.480,360.21192,
1666.569,402.56058,
1663.659,455.53202,
1660.748,435.49202,
1657.837,466.19704,
1654.927,435.47671,
1652.016,419.77407,
1649.106,455.18953,
1646.195,428.57032,
1643.285,457.01172,
1640.374,462.45688,
1637.463,443.77573,
1634.553,492.37255,
1631.642,459.81964,
1628.732,545.75649,
1625.821,525.86584,
1622.911,511.95389,
1620.000,579.01829,
1617.089,556.35261,
1614.179,593.77516,
1611.268,614.13144,
1608.358,600.57735,
1605.447,669.64699,
1602.536,623.5531,
1599.626,679.67064,
1596.715,703.93462,
1593.805,670.99606,
1590.894,693.2951,
1587.984,692.54454,
1585.073,666.3505,
1582.162,671.05875,
1579.252,663.87369,
1576.341,652.26224,
1573.431,670.23753,
1570.520,667.46685,
1567.610,649.2277,
1564.699,629.3744,
1561.788,628.80453,
1558.878,611.75763,
1555.967,579.75174,
1553.057,587.01274,
1550.146,612.00951,
1547.235,614.97174,
1544.325,604.65415,
1541.414,594.47443,
1538.504,608.88569,
1535.593,615.18905,
1532.683,583.58044,
1529.772,566.04992,
1526.861,578.90993,
1523.951,599.05662,
1521.040,623.35613,
1518.130,652.8818,
1515.219,697.11483,
1512.309,689.24883,
1509.398,642.07472,
1506.487,619.42626,
1503.577,618.01836,
1500.666,646.5319,
1497.756,634.80707,
1494.845,622.35526,
1491.934,633.67657,
1489.024,573.03952,
1486.113,619.09021,
1483.203,584.68379,
1480.292,596.84523,
1477.382,643.5204,
1474.471,610.1344,
1471.560,612.83965,
1468.650,607.25935,
1465.739,592.26765,
1462.829,596.42408,
1459.918,618.89724,
1457.008,614.61324,
1454.097,602.49658,
1451.186,626.58873,
1448.276,628.892,
1445.365,577.266,
1442.455,563.07459,
1439.544,584.65066,
1436.633,583.17589,
1433.723,583.23981,
1430.812,605.91453,
1427.902,594.34854,
1424.991,614.25156,
1422.081,596.52546,
1419.170,588.82658,
1416.259,605.69639,
1413.349,587.21777,
1410.438,610.6653,
1407.528,631.5999,
1404.617,642.92054,
1401.707,641.51571,
1398.796,604.72124,
1395.885,589.71769,
1392.975,612.56228,
1390.064,595.81158,
1387.154,592.89465,
1384.243,636.80565,
1381.332,618.68576,
1378.422,552.44025,
1375.511,544.00923,
1372.601,561.38484,
1369.690,586.87723,
1366.780,590.08296,
1363.869,644.36078,
1360.958,616.67921,
1358.048,609.67435,
1355.137,649.21057,
1352.227,659.69191,
1349.316,663.48293,
1346.406,699.70674,
1343.495,693.17635,
1340.584,654.58888,
1337.674,679.80299,
1334.763,670.94557,
1331.853,672.80003,
1328.942,669.31714,
1326.032,689.26552,
1323.121,664.97739,
1320.210,681.51183,
1317.300,691.92384,
1314.389,715.56995,
1311.479,707.98203,
1308.568,677.29154,
1305.657,687.72723,
1302.747,683.25241,
1299.836,743.82091,
1296.926,715.04592,
1294.015,718.72321,
1291.105,721.51663,
1288.194,762.61089,
1285.283,739.93886,
1282.373,711.68756,
1279.462,727.58041,
1276.552,745.08759,
1273.641,741.11579,
1270.731,741.34515,
1267.820,733.86483,
1264.909,697.55689,
1261.999,737.64335,
1259.088,703.89487,
1256.178,731.85097,
1253.267,713.09194,
1250.356,699.10246,
1247.446,703.50245,
1244.535,693.51344,
1241.625,674.64538,
1238.714,681.70675,
1235.804,705.4721,
1232.893,697.49904,
1229.982,702.76425,
1227.072,729.0183,
1224.161,728.35349,
1221.251,705.53972,
1218.340,677.14502,
1215.430,675.78464,
1212.519,675.27257,
1209.608,665.58375,
1206.698,667.13033,
1203.787,668.03078,
1200.877,669.43221,
1197.966,678.4238,
1195.055,656.69054,
1192.145,685.93411,
1189.234,747.4808,
1186.324,761.23733,
1183.413,745.90038,
1180.503,755.37699,
1177.592,772.49092,
1174.681,737.02911,
1171.771,751.85439,
1168.860,750.96131,
1165.950,725.07374,
1163.039,737.03347,
1160.129,744.28514,
1157.218,744.35574,
1154.307,750.06935,
1151.397,751.31531,
1148.486,734.97013,
1145.576,762.68002,
1142.665,735.15473,
1139.754,758.09749,
1136.844,760.37349,
1133.933,768.8456,
1131.023,751.79811,
1128.112,717.019,
1125.202,710.3629,
1122.291,733.12298,
1119.380,727.95295,
1116.470,735.89571,
1113.559,719.86352,
1110.649,700.4684,
1107.738,708.94954,
1104.828,707.06322,
1101.917,686.35435,
1099.006,691.27703,
1096.096,698.35878,
1093.185,706.2608,
1090.275,716.58624,
1087.364,709.26928,
1084.453,717.24921,
1081.543,722.49279,
1078.632,722.2027,
1075.722,738.01233,
1072.811,753.39291,
1069.901,718.46248,
1066.990,719.91666,
1064.079,727.68014,
1061.169,724.24739,
1058.258,722.68637,
1055.348,731.99042,
1052.437,736.79136,
1049.527,711.04283,
1046.616,715.38698,
1043.705,731.2903,
1040.795,730.12846,
1037.884,731.93238,
1034.974,734.64046,
1032.063,733.73644,
1029.153,741.73251,
1026.242,732.21799,
1023.331,694.3774,
1020.421,751.70544,
1017.510,764.74755,
1014.600,757.52723,
1011.689,753.04233,
1008.778,730.27333,
1005.868,755.55839,
1002.957,720.28387,
1000.047,735.25901,
997.136,775.17791,
994.226,790.2905,
991.315,788.48638,
988.404,799.06552,
985.494,763.7791,
982.583,759.49632,
979.673,755.21677,
976.762,767.96545,
973.852,771.68686,
970.941,760.31843,
968.030,747.51655,
965.120,723.10412,
962.209,777.66681,
959.299,795.37399,
956.388,783.75597,
953.477,762.42137,
950.567,762.99188,
947.656,805.77168,
944.746,827.86013,
941.835,819.96705,
938.925,835.64236,
936.014,837.79343,
933.103,831.93428,
930.193,829.28059,
927.282,809.54597,
924.372,785.02337,
921.461,812.06741,
918.551,812.99913,
915.640,795.25141,
912.729,787.58391,
909.819,802.53885,
906.908,777.2661,
903.998,790.19156,
901.087,793.23849,
898.176,795.26098,
895.266,802.31859,
892.355,810.14734,
889.445,800.9154,
886.534,830.93039,
883.624,816.01721,
880.713,829.35137,
877.802,828.94715,
874.892,770.61573,
871.981,699.6396,
869.071,562.63189,
866.160,573.37298,
863.250,673.27165,
860.339,765.26789,
857.428,804.35353,
854.518,850.70854,
851.607,775.8223,
848.697,724.35724,
845.786,677.29393,
842.875,683.43165,
839.965,764.01628,
837.054,847.01455,
834.144,859.44584,
831.233,901.20549,
828.323,882.2984,
825.412,848.34837,
822.501,868.81139,
819.591,918.39535,
816.680,902.24676,
813.770,880.33293,
810.859,877.54609,
807.949,879.15789,
805.038,862.55864,
802.127,893.01435,
799.217,888.42109,
796.306,879.63171,
793.396,886.94383,
790.485,899.97875,
787.574,878.74685,
784.664,901.71,
781.753,905.875,
778.843,919.10722,
775.932,920.83817,
773.022,897.29853,
770.111,919.37315,
767.200,910.97794,
764.290,913.0759,
761.379,918.84434,
758.469,918.52673,
755.558,906.11813,
752.648,914.26416,
749.737,925.66684,
746.826,924.81413,
743.916,930.44012,
741.005,966.35979,
738.095,997.21111,
735.184,1012.316,
732.274,964.81116,
729.363,915.18516,
726.452,907.82851,
723.542,896.49701,
720.631,913.4594,
717.721,925.74915,
714.810,938.10791,
711.899,951.75619,
708.989,959.82544,
706.078,939.04112,
703.168,927.80279,
700.257,946.56646,
697.347,977.78816,
694.436,972.36928,
691.525,916.90673,
688.615,948.26987,
685.704,960.4925,
682.794,950.36428,
679.883,973.7937,
676.973,949.75258,
674.062,955.08431,
671.151,954.30005,
668.241,947.78099,
665.330,953.26994,
662.420,940.49024,
659.509,930.25583,
656.598,942.3195,
653.688,976.75738,
650.777,1018.3359,
647.867,972.94517,
644.956,965.3516,
642.046,939.09692,
639.135,890.23298,
636.224,854.19728,
633.314,918.5063,
630.403,957.93221,
627.493,976.9476,
624.582,979.57957,
621.672,969.28365,
618.761,967.35512,
615.850,1008.7501,
612.940,1036.7274,
610.029,1022.5076,
607.119,1008.2942,
604.208,1024.6253,
601.297,1038.8542,
598.387,1041.8621,
595.476,1030.6865,
592.566,1018.0934,
589.655,1003.5651,
586.745,1014.2337,
583.834,1034.0204,
580.923,1023.9982,
578.013,1044.4013,
575.102,1029.2258,
572.192,1024.5935,
569.281,1047.8118,
566.371,1069.7253,
563.460,1038.0125,
560.549,1039.4679,
557.639,1056.1436,
554.728,1055.791,
551.818,1038.6241,
548.907,1028.1715,
545.996,1027.3741,
543.086,1032.5395,
540.175,1030.9822,
537.265,1044.6363,
534.354,1033.8209,
531.444,1020.6616,
528.533,1030.1375,
525.622,1061.9513,
522.712,1067.0547,
519.801,1045.6354,
516.891,1022.5783,
513.980,1070.5847,
511.070,1058.675,
508.159,1042.8012,
505.248,1033.1254,
502.338,1034.1461,
499.427,1043.4081,
496.517,1052.0972,
493.606,1073.0266,
490.695,1098.6699,
487.785,1054.022,
484.874,1059.7995,
481.964,1060.6458,
479.053,1052.4266,
476.143,1054.7305,
473.232,1039.7675,
470.321,1033.3884,
467.411,1026.037,
464.500,1006.1853,
461.590,1018.4371,
458.679,1051.0406,
455.769,1069.834,
452.858,1062.7722,
449.947,1100.2048,
447.037,1054.4801,
444.126,1045.3841,
441.216,1088.0813,
438.305,1083.5097,
435.395,1069.7623,
432.484,1050.7892,
429.573,1032.9875,
426.663,1029.1868,
423.752,917.98537,
420.842,724.64886,
417.931,527.52703,
415.020,441.83256,
412.110,672.99121,
409.199,868.41033,
406.289,973.03582,
403.378,942.8417,
400.468,933.01377,
397.557,928.8467,
394.646,953.73218,
391.736,1025.372,
388.825,1072.1343,
385.915,1083.7462,
383.004,1087.8714,
380.094,1103.0669,
377.183,1106.8293,
374.272,1087.7921,
371.362,1064.9885,
368.451,1051.4677,
365.541,1061.2247,
362.630,1091.187,
359.719,1104.996,
356.809,1082.9235,
353.898,1067.1987,
350.988,1076.4372,
348.077,1081.486,
345.167,1064.2857,
342.256,1032.9088,
339.345,1046.1952,
336.435,1059.4904,
333.524,1043.4152,
330.614,1060.5538,
327.703,1083.8442,
324.793,1096.2348,
321.882,1082.9399,
318.971,1109.7038,
316.061,1105.6905,
313.150,1090.9512,
310.240,1087.9827,
307.329,1090.0189,
304.418,1115.9524,
301.508,1157.4935,
298.597,1201.1781,
295.687,1193.3619,
292.776,1161.2082,
289.866,1129.7912,
286.955,1157.8628,
284.044,1161.2425,
281.134,1191.9792,
278.223,1238.8393,
275.313,1197.5754,
272.402,1219.082,
269.492,1223.7649,
266.581,1181.147,
263.670,1101.0123,
260.760,1120.7104,
257.849,1186.051,
254.939,1260.907,
252.028,1224.2351,
249.117,1199.8248,
246.207,1189.2009,
243.296,1194.3251,
240.386,1224.2596,
237.475,1236.8015,
234.565,1234.1757,
231.654,1248.7834,
228.743,1252.4504,
225.833,1231.2274,
222.922,1181.5013,
220.012,1173.4872,
217.101,1192.9572,
214.191,1198.3902,
211.280,1140.1932,
208.369,1167.4972,
205.459,1170.099,
202.548,1160.6522,
199.638,1217.2528,
196.727,1168.9485,
193.816,1153.1711,
190.906,1215.0658,
187.995,1106.4621,
185.085,1091.0992,
182.174,1108.4314,
179.264,1080.9663,
176.353,1095.176,
173.442,1115.0266,
170.532,1118.0898,
167.621,991.19805,
164.711,982.10225,
161.800,958.17973,
158.890,821.43148,
155.979,752.56622,
153.068,673.02055,
150.158,587.85891,
147.247,528.98682,
144.337,455.09232,
141.426,357.12581,
138.516,227.36849,
135.605,180.56669,
132.694,133.05557,
129.784,86.070295,
126.873,46.023024,
123.963,29.908018,
121.052,20.758819,
118.141,12.905897,
115.231,15.717281,
112.320,13.909549,
109.410,9.875,
106.499,9.875,
103.589,6.5134731,
100.678,4.4182434,
97.767,5.8401186,
94.857,2.4100548,
91.946,6.5185522,
89.036,13.746021,
86.125,6.6539682,
83.215,10.715124,
80.304,10.368048,
77.393,-5.9198603,
74.483,-3.8493252,
71.572,-1.0379437,
68.662,0.2515925,
65.751,-6.1064672,
62.840,-2.3445762,
59.930,3.875,
57.019,3.875,
54.109,-3.2909302,
51.198,-5.4105165,
48.288,0.85235023,
45.377,-1.961162,
42.466,-1.4761226,
39.556,0.64476284,
36.645,-0.75961759,
33.735,-1.6442485,
30.824,-3.6712088,
27.914,-8.5794355,
25.003,-12.238187,
22.092,-10.250145,
19.182,-2.28518,
16.271,-7.181611,
13.361,-5.7533362,
10.450,-43.551985,
7.539,-290.05731,
4.629,-779.57678,
1.718,-1230.5102,
-1.192,-1401.3106,
-4.103,-1063.3847,
-7.013,-579.39448,
-9.924,-3.125,
