,PL6F2C~1,
Wavenumbers [1/cm],Intensity,
3014.167,-1.75,
3011.256,0.25,
3008.346,24.523885,
3005.435,17.32774,
3002.525,19.664989,
2999.614,19.814954,
2996.704,17.621139,
2993.793,16.621544,
2990.882,23.204177,
2987.972,26.139011,
2985.061,11.786956,
2982.151,15.085289,
2979.240,24.365008,
2976.329,27.239079,
2973.419,30.172978,
2970.508,35.483327,
2967.598,24.393374,
2964.687,30.59307,
2961.777,17.942142,
2958.866,32.255939,
2955.955,31.838486,
2953.045,36.001691,
2950.134,44.005093,
2947.224,23.161002,
2944.313,40.317662,
2941.403,45.8458,
2938.492,47.973582,
2935.581,46.615656,
2932.671,46.052599,
2929.760,50.161524,
2926.850,46.988721,
2923.939,42.848117,
2921.028,55.414768,
2918.118,60.647981,
2915.207,42.484155,
2912.297,48.220381,
2909.386,64.651459,
2906.476,55.575855,
2903.565,53.459629,
2900.654,57.30864,
2897.744,51.338005,
2894.833,58.662363,
2891.923,47.086495,
2889.012,34.197979,
2886.102,67.645947,
2883.191,41.274544,
2880.280,122.99641,
2877.370,114.6919,
2874.459,92.872178,
2871.549,36.618673,
2868.638,55.113915,
2865.727,41.646143,
2862.817,41.149737,
2859.906,53.529195,
2856.996,63.28623,
2854.085,72.855074,
2851.175,62.747037,
2848.264,59.451162,
2845.353,54.46567,
2842.443,62.253482,
2839.532,51.488853,
2836.622,51.884767,
2833.711,54.242164,
2830.801,52.45882,
2827.890,59.353138,
2824.979,52.324013,
2822.069,60.352349,
2819.158,67.729783,
2816.248,59.273159,
2813.337,77.868303,
2810.427,59.25,
2807.516,61.775156,
2804.605,60.024035,
2801.695,63.171069,
2798.784,57.211,
2795.874,60.680081,
2792.963,59.892872,
2790.052,61.249786,
2787.142,67.289578,
2784.231,56.961207,
2781.321,56.501441,
2778.410,57.345183,
2775.500,51.718276,
2772.589,62.211013,
2769.678,60.284101,
2766.768,57.510181,
2763.857,63.25,
2760.947,61.740544,
2758.036,61.097139,
2755.126,63.489315,
2752.215,65.036423,
2749.304,71.866903,
2746.394,64.038309,
2743.483,64.349995,
2740.573,81.219096,
2737.662,66.239648,
2734.751,64.832441,
2731.841,64.790291,
2728.930,54.393991,
2726.020,70.255208,
2723.109,76.023166,
2720.199,73.015706,
2717.288,71.582125,
2714.377,84.604101,
2711.467,73.463186,
2708.556,63.47358,
2705.646,70.771162,
2702.735,88.90463,
2699.825,73.337257,
2696.914,83.012291,
2694.003,86.350815,
2691.093,72.660359,
2688.182,69.35963,
2685.272,79.134782,
2682.361,72.949783,
2679.450,83.25,
2676.540,72.371944,
2673.629,73.936122,
2670.719,72.957953,
2667.808,76.298636,
2664.898,85.21109,
2661.987,84.516711,
2659.076,74.903025,
2656.166,76.362571,
2653.255,70.324829,
2650.345,78.442379,
2647.434,92.620962,
2644.524,79.497022,
2641.613,97.90745,
2638.702,84.54984,
2635.792,81.844215,
2632.881,88.065311,
2629.971,89.14258,
2627.060,79.414067,
2624.149,96.115631,
2621.239,89.747036,
2618.328,63.334774,
2615.418,68.236367,
2612.507,82.317164,
2609.597,82.709082,
2606.686,85.782139,
2603.775,94.329364,
2600.865,95.30803,
2597.954,77.399938,
2595.044,93.972759,
2592.133,79.415587,
2589.223,80.924739,
2586.312,91.104262,
2583.401,90.312027,
2580.491,98.76919,
2577.580,87.254951,
2574.670,94.677796,
2571.759,99.093326,
2568.848,103.95171,
2565.938,95.297545,
2563.027,95.736424,
2560.117,83.063092,
2557.206,98.810884,
2554.296,98.220252,
2551.385,97.630044,
2548.474,118.73179,
2545.564,100.07304,
2542.653,105.34395,
2539.743,108.42252,
2536.832,88.208876,
2533.922,104.40769,
2531.011,118.09967,
2528.100,117.58795,
2525.190,109.83115,
2522.279,102.48449,
2519.369,106.64626,
2516.458,109.69759,
2513.548,114.05908,
2510.637,119.57369,
2507.726,109.87454,
2504.816,115.75057,
2501.905,108.69939,
2498.995,104.2055,
2496.084,116.18378,
2493.173,107.0394,
2490.263,116.41838,
2487.352,101.29173,
2484.442,106.23714,
2481.531,127.3084,
2478.621,114.21674,
2475.710,135.11198,
2472.799,115.03029,
2469.889,116.97578,
2466.978,125.52836,
2464.068,131.95373,
2461.157,114.86501,
2458.247,114.52943,
2455.336,130.75882,
2452.425,121.3113,
2449.515,131.14604,
2446.604,118.31455,
2443.694,113.90133,
2440.783,142.35023,
2437.872,109.54172,
2434.962,116.98733,
2432.051,117.22533,
2429.141,124.6558,
2426.230,133.79366,
2423.320,125.47765,
2420.409,151.39127,
2417.498,130.84832,
2414.588,123.07513,
2411.677,113.85959,
2408.767,129.49114,
2405.856,132.87854,
2402.946,133.08914,
2400.035,128.45188,
2397.124,115.92379,
2394.214,126.76479,
2391.303,126.46003,
2388.393,119.23605,
2385.482,126.94157,
2382.571,123.11109,
2379.661,101.83158,
2376.750,100.4568,
2373.840,113.81874,
2370.929,139.96843,
2368.019,131.8282,
2365.108,139.78403,
2362.197,132.72116,
2359.287,132.62828,
2356.376,154.21654,
2353.466,149.11479,
2350.555,134.62009,
2347.645,137.0659,
2344.734,147.28228,
2341.823,127.63141,
2338.913,133.42761,
2336.002,139.81215,
2333.092,141.92829,
2330.181,140.02237,
2327.270,148.80996,
2324.360,137.23351,
2321.449,130.7126,
2318.539,145.78211,
2315.628,137.48581,
2312.718,150.91521,
2309.807,144.59157,
2306.896,148.99804,
2303.986,148.25,
2301.075,144.54789,
2298.165,155.81756,
2295.254,138.7024,
2292.344,157.66906,
2289.433,160.54727,
2286.522,148.16967,
2283.612,152.84057,
2280.701,170.09751,
2277.791,165.68895,
2274.880,150.32404,
2271.969,142.08951,
2269.059,151.42168,
2266.148,141.28172,
2263.238,139.64768,
2260.327,165.83615,
2257.417,160.01278,
2254.506,162.48648,
2251.595,153.54826,
2248.685,153.5615,
2245.774,158.15108,
2242.864,160.22255,
2239.953,171.06385,
2237.043,164.14642,
2234.132,171.35129,
2231.221,167.27582,
2228.311,173.0786,
2225.400,170.27815,
2222.490,170.50731,
2219.579,168.95952,
2216.669,178.719,
2213.758,185.90229,
2210.847,184.63791,
2207.937,190.96497,
2205.026,194.13863,
2202.116,197.05468,
2199.205,185.25,
2196.294,184.688,
2193.384,185.671,
2190.473,174.23826,
2187.563,229.192,
2184.652,216.0451,
2181.742,199.49879,
2178.831,186.80257,
2175.920,196.16985,
2173.010,205.57596,
2170.099,209.38343,
2167.189,219.20695,
2164.278,215.59774,
2161.368,233.82088,
2158.457,238.04834,
2155.546,232.73462,
2152.636,218.13303,
2149.725,241.04192,
2146.815,258.84957,
2143.904,256.94518,
2140.993,244.31879,
2138.083,241.61474,
2135.172,251.67023,
2132.262,246.85475,
2129.351,270.72261,
2126.441,249.44408,
2123.530,259.21633,
2120.619,252.12173,
2117.709,228.09581,
2114.798,223.14989,
2111.888,221.08689,
2108.977,222.80628,
2106.067,223.0754,
2103.156,225.25,
2100.245,193.26506,
2097.335,217.97251,
2094.424,217.02691,
2091.514,199.03765,
2088.603,201.77535,
2085.692,220.75546,
2082.782,227.88859,
2079.871,226.07147,
2076.961,219.70205,
2074.050,224.91061,
2071.140,216.31912,
2068.229,212.23697,
2065.318,224.80525,
2062.408,211.86347,
2059.497,213.26787,
2056.587,230.59865,
2053.676,239.33308,
2050.766,227.32773,
2047.855,202.81958,
2044.944,224.51121,
2042.034,234.98405,
2039.123,224.65067,
2036.213,218.4255,
2033.302,232.14085,
2030.391,230.19989,
2027.481,218.96948,
2024.570,219.40717,
2021.660,216.42739,
2018.749,242.75612,
2015.839,227.96325,
2012.928,220.14598,
2010.017,238.38029,
2007.107,221.96961,
2004.196,227.07148,
2001.286,238.43728,
1998.375,221.94094,
1995.465,238.84821,
1992.554,212.82087,
1989.643,205.35369,
1986.733,198.17982,
1983.822,187.71381,
1980.912,233.32873,
1978.001,218.89379,
1975.090,210.92784,
1972.180,188.4561,
1969.269,188.1925,
1966.359,166.33089,
1963.448,201.35041,
1960.538,208.32339,
1957.627,175.04255,
1954.716,167.36491,
1951.806,182.79002,
1948.895,207.14886,
1945.985,180.82843,
1943.074,199.38677,
1940.164,165.8751,
1937.253,180.70638,
1934.342,177.65161,
1931.432,187.60962,
1928.521,187.66451,
1925.611,177.80846,
1922.700,191.49585,
1919.790,178.88602,
1916.879,166.01724,
1913.968,177.23525,
1911.058,214.95569,
1908.147,155.97702,
1905.237,163.47792,
1902.326,155.63369,
1899.415,174.60975,
1896.505,150.10517,
1893.594,132.24091,
1890.684,150.76634,
1887.773,151.82757,
1884.863,157.99032,
1881.952,184.96476,
1879.041,177.85072,
1876.131,179.57941,
1873.220,169.04641,
1870.310,174.676,
1867.399,211.65824,
1864.489,161.1457,
1861.578,185.39819,
1858.667,197.88778,
1855.757,155.82637,
1852.846,179.73719,
1849.936,175.87762,
1847.025,179.66363,
1844.114,175.27354,
1841.204,188.01573,
1838.293,184.26996,
1835.383,185.36599,
1832.472,200.99435,
1829.562,204.8888,
1826.651,192.94201,
1823.740,198.16956,
1820.830,182.18683,
1817.919,190.90878,
1815.009,190.82506,
1812.098,194.73819,
1809.188,231.83131,
1806.277,153.08694,
1803.366,220.2851,
1800.456,165.61316,
1797.545,206.52658,
1794.635,211.44303,
1791.724,226.91019,
1788.813,231.05103,
1785.903,232.84303,
1782.992,224.22614,
1780.082,224.69797,
1777.171,205.55886,
1774.261,135.05542,
1771.350,169.667,
1768.439,183.84807,
1765.529,221.70745,
1762.618,230.58748,
1759.708,208.49988,
1756.797,223.06818,
1753.887,240.17274,
1750.976,261.60536,
1748.065,265.1179,
1745.155,265.83058,
1742.244,240.12958,
1739.334,233.83588,
1736.423,246.02195,
1733.512,249.25,
1730.602,276.17861,
1727.691,240.72569,
1724.781,258.71306,
1721.870,270.46907,
1718.960,300.85036,
1716.049,277.04691,
1713.138,269.54001,
1710.228,287.52624,
1707.317,275.21229,
1704.407,263.36763,
1701.496,308.73894,
1698.586,279.06258,
1695.675,303.38555,
1692.764,281.58195,
1689.854,286.94685,
1686.943,289.18255,
1684.033,300.95197,
1681.122,315.99511,
1678.211,288.51649,
1675.301,287.25308,
1672.390,287.20813,
1669.480,273.52275,
1666.569,307.99906,
1663.659,365.93968,
1660.748,347.0379,
1657.837,337.27788,
1654.927,383.01571,
1652.016,372.69112,
1649.106,349.56453,
1646.195,324.00028,
1643.285,395.47787,
1640.374,404.5183,
1637.463,371.38492,
1634.553,433.30911,
1631.642,437.35858,
1628.732,447.30925,
1625.821,457.27421,
1622.911,494.0415,
1620.000,506.09882,
1617.089,554.27487,
1614.179,530.95503,
1611.268,549.50644,
1608.358,600.76838,
1605.447,662.65048,
1602.536,660.65868,
1599.626,658.41013,
1596.715,698.18445,
1593.805,673.63138,
1590.894,679.93737,
1587.984,651.80287,
1585.073,655.75817,
1582.162,663.0942,
1579.252,642.15587,
1576.341,622.0298,
1573.431,634.69666,
1570.520,610.96805,
1567.610,566.48474,
1564.699,549.89982,
1561.788,605.99593,
1558.878,596.11184,
1555.967,541.27078,
1553.057,519.33623,
1550.146,523.7809,
1547.235,509.54021,
1544.325,529.48532,
1541.414,536.96817,
1538.504,521.22239,
1535.593,511.97245,
1532.683,505.08758,
1529.772,522.34351,
1526.861,525.3522,
1523.951,536.03117,
1521.040,576.03832,
1518.130,545.35126,
1515.219,557.9304,
1512.309,543.01126,
1509.398,535.38314,
1506.487,523.06093,
1503.577,536.98117,
1500.666,564.65376,
1497.756,525.58965,
1494.845,587.16832,
1491.934,513.06102,
1489.024,455.31145,
1486.113,533.91775,
1483.203,526.92748,
1480.292,490.46103,
1477.382,512.53869,
1474.471,477.81154,
1471.560,475.40933,
1468.650,466.95107,
1465.739,437.55186,
1462.829,455.88132,
1459.918,480.56495,
1457.008,487.81929,
1454.097,474.68799,
1451.186,454.25,
1448.276,449.08443,
1445.365,418.38902,
1442.455,373.34328,
1439.544,376.02566,
1436.633,368.43372,
1433.723,342.60576,
1430.812,386.73282,
1427.902,380.76864,
1424.991,402.56718,
1422.081,360.12858,
1419.170,383.03587,
1416.259,433.42359,
1413.349,409.50891,
1410.438,397.55022,
1407.528,383.73142,
1404.617,396.79949,
1401.707,374.15417,
1398.796,329.44933,
1395.885,322.45084,
1392.975,354.27179,
1390.064,401.25326,
1387.154,411.61437,
1384.243,400.73173,
1381.332,372.81135,
1378.422,360.38051,
1375.511,343.51845,
1372.601,344.17157,
1369.690,351.965,
1366.780,358.79425,
1363.869,377.68545,
1360.958,361.80265,
1358.048,368.64267,
1355.137,419.09925,
1352.227,432.66164,
1349.316,431.19091,
1346.406,474.91349,
1343.495,480.03916,
1340.584,453.39235,
1337.674,489.35883,
1334.763,515.99099,
1331.853,535.46284,
1328.942,542.47625,
1326.032,570.16548,
1323.121,550.31624,
1320.210,589.19629,
1317.300,579.01654,
1314.389,600.47311,
1311.479,638.8811,
1308.568,646.54007,
1305.657,669.40713,
1302.747,683.62741,
1299.836,746.89864,
1296.926,737.63456,
1294.015,745.90847,
1291.105,749.77217,
1288.194,775.80978,
1285.283,771.50995,
1282.373,757.12504,
1279.462,767.72027,
1276.552,791.93509,
1273.641,797.03748,
1270.731,789.66045,
1267.820,801.91191,
1264.909,807.04109,
1261.999,796.95178,
1259.088,761.37905,
1256.178,795.22117,
1253.267,732.9696,
1250.356,735.95389,
1247.446,753.11727,
1244.535,751.30359,
1241.625,740.40557,
1238.714,741.65677,
1235.804,756.31799,
1232.893,739.50424,
1229.982,720.98593,
1227.072,742.71342,
1224.161,777.02965,
1221.251,744.53552,
1218.340,722.18063,
1215.430,745.87784,
1212.519,756.57273,
1209.608,730.97311,
1206.698,714.03728,
1203.787,719.09422,
1200.877,719.81019,
1197.966,744.98664,
1195.055,738.57076,
1192.145,786.83866,
1189.234,801.95242,
1186.324,819.79723,
1183.413,816.26013,
1180.503,808.10101,
1177.592,840.17931,
1174.681,838.43494,
1171.771,805.86816,
1168.860,832.66085,
1165.950,827.18711,
1163.039,836.42444,
1160.129,834.76159,
1157.218,837.46104,
1154.307,846.7341,
1151.397,850.55339,
1148.486,858.59584,
1145.576,881.55391,
1142.665,842.48574,
1139.754,870.16789,
1136.844,863.94425,
1133.933,866.46109,
1131.023,856.67084,
1128.112,843.178,
1125.202,851.69927,
1122.291,855.62331,
1119.380,851.31063,
1116.470,857.48833,
1113.559,831.95953,
1110.649,827.52423,
1107.738,816.39037,
1104.828,813.15589,
1101.917,813.00692,
1099.006,797.64146,
1096.096,847.64852,
1093.185,788.82235,
1090.275,832.80621,
1087.364,822.98019,
1084.453,828.43653,
1081.543,849.89086,
1078.632,858.80266,
1075.722,852.56642,
1072.811,858.00179,
1069.901,854.50875,
1066.990,836.46671,
1064.079,862.19261,
1061.169,853.60565,
1058.258,842.87274,
1055.348,840.31583,
1052.437,806.79017,
1049.527,795.92832,
1046.616,839.36979,
1043.705,824.98087,
1040.795,835.21261,
1037.884,838.18115,
1034.974,831.50515,
1032.063,835.25752,
1029.153,850.73069,
1026.242,846.40591,
1023.331,828.75112,
1020.421,849.64855,
1017.510,851.28559,
1014.600,863.70478,
1011.689,885.68888,
1008.778,873.66356,
1005.868,870.111,
1002.957,854.62462,
1000.047,909.03402,
997.136,926.72605,
994.226,933.17294,
991.315,944.85891,
988.404,934.41448,
985.494,873.6336,
982.583,890.76472,
979.673,894.71329,
976.762,904.64363,
973.852,898.4317,
970.941,880.47172,
968.030,876.09971,
965.120,875.41468,
962.209,914.63162,
959.299,929.04074,
956.388,930.01014,
953.477,923.31767,
950.567,924.35413,
947.656,947.69564,
944.746,951.09387,
941.835,941.53224,
938.925,958.33346,
936.014,959.14513,
933.103,949.89691,
930.193,946.05389,
927.282,930.77526,
924.372,885.11249,
921.461,921.22482,
918.551,930.44067,
915.640,920.72573,
912.729,913.25,
909.819,911.47072,
906.908,897.99192,
903.998,932.24603,
901.087,927.88337,
898.176,895.91305,
895.266,888.29394,
892.355,926.42292,
889.445,911.31612,
886.534,937.9659,
883.624,963.43496,
880.713,965.59466,
877.802,962.76609,
874.892,959.11612,
871.981,902.784,
869.071,798.35739,
866.160,771.28052,
863.250,835.39636,
860.339,914.07479,
857.428,946.16309,
854.518,953.72042,
851.607,935.4149,
848.697,916.43021,
845.786,872.92237,
842.875,848.33826,
839.965,884.10975,
837.054,970.56632,
834.144,998.7439,
831.233,1014.9159,
828.323,1005.4128,
825.412,1005.3823,
822.501,1035.0159,
819.591,1022.6199,
816.680,1002.2179,
813.770,1014.1656,
810.859,1012.5177,
807.949,993.56461,
805.038,981.84735,
802.127,986.78611,
799.217,951.47123,
796.306,951.16901,
793.396,980.10517,
790.485,1008.9336,
787.574,1000.0009,
784.664,993.44,
781.753,998.28886,
778.843,1013.9921,
775.932,1022.6204,
773.022,1007.3049,
770.111,975.41934,
767.200,1017.4061,
764.290,1024.8933,
761.379,1016.3113,
758.469,1012.9705,
755.558,1023.639,
752.648,1036.6727,
749.737,1062.0976,
746.826,1071.4527,
743.916,1090.8672,
741.005,1155.3025,
738.095,1208.8864,
735.184,1274.6,
732.274,1220.4172,
729.363,1111.9197,
726.452,1034.2035,
723.542,1022.872,
720.631,1059.7124,
717.721,1072.9685,
714.810,1083.3863,
711.899,1098.0619,
708.989,1097.255,
706.078,1040.3575,
703.168,1049.3244,
700.257,1072.0889,
697.347,1071.9468,
694.436,1032.1665,
691.525,1065.9263,
688.615,1051.2381,
685.704,1035.2281,
682.794,1047.8668,
679.883,1101.5652,
676.973,1086.3391,
674.062,1083.8881,
671.151,1068.4701,
668.241,1054.2062,
665.330,1072.1155,
662.420,1048.1536,
659.509,1052.139,
656.598,1062.8757,
653.688,1089.3435,
650.777,1152.899,
647.867,1142.5467,
644.956,1113.0074,
642.046,1081.3245,
639.135,1056.0578,
636.224,1040.4688,
633.314,1084.1354,
630.403,1099.9797,
627.493,1093.6481,
624.582,1076.4843,
621.672,1068.5643,
618.761,1062.1705,
615.850,1087.7994,
612.940,1120.8376,
610.029,1139.2772,
607.119,1127.4327,
604.208,1156.0706,
601.297,1168.7485,
598.387,1153.1986,
595.476,1112.6558,
592.566,1106.3592,
589.655,1142.1797,
586.745,1155.3065,
583.834,1147.3479,
580.923,1151.269,
578.013,1154.4079,
575.102,1135.1744,
572.192,1152.4056,
569.281,1204.7666,
566.371,1174.2443,
563.460,1181.1266,
560.549,1178.4281,
557.639,1169.3701,
554.728,1163.3138,
551.818,1148.4878,
548.907,1173.283,
545.996,1183.863,
543.086,1170.7401,
540.175,1163.7323,
537.265,1153.1101,
534.354,1166.8092,
531.444,1180.0701,
528.533,1170.6847,
525.622,1190.8594,
522.712,1160.6651,
519.801,1143.2144,
516.891,1148.7459,
513.980,1136.3572,
511.070,1154.2674,
508.159,1150.3108,
505.248,1139.0025,
502.338,1144.9729,
499.427,1169.6716,
496.517,1161.5429,
493.606,1168.0841,
490.695,1199.5055,
487.785,1172.5629,
484.874,1165.6651,
481.964,1153.0375,
479.053,1140.0079,
476.143,1151.5273,
473.232,1124.9127,
470.321,1117.656,
467.411,1126.3152,
464.500,1141.3858,
461.590,1146.7459,
458.679,1149.9009,
455.769,1161.9622,
452.858,1187.2384,
449.947,1206.3367,
447.037,1164.1362,
444.126,1144.9712,
441.216,1160.8688,
438.305,1147.154,
435.395,1174.098,
432.484,1182.582,
429.573,1175.5575,
426.663,1185.4394,
423.752,1087.9139,
420.842,980.40059,
417.931,878.47109,
415.020,791.25991,
412.110,917.74553,
409.199,1041.5335,
406.289,1132.811,
403.378,1167.9939,
400.468,1092.3944,
397.557,1099.099,
394.646,1149.259,
391.736,1207.0951,
388.825,1233.4932,
385.915,1242.8466,
383.004,1240.8235,
380.094,1230.7144,
377.183,1200.6154,
374.272,1197.6778,
371.362,1203.4273,
368.451,1205.4749,
365.541,1192.7158,
362.630,1176.1402,
359.719,1168.5056,
356.809,1176.4312,
353.898,1179.4264,
350.988,1192.1847,
348.077,1210.3814,
345.167,1227.7525,
342.256,1178.446,
339.345,1170.6272,
336.435,1179.5811,
333.524,1188.344,
330.614,1191.3246,
327.703,1196.8706,
324.793,1207.6948,
321.882,1226.2915,
318.971,1243.3906,
316.061,1231.6707,
313.150,1225.0285,
310.240,1262.8765,
307.329,1277.1135,
304.418,1310.9751,
301.508,1348.5977,
298.597,1361.1848,
295.687,1384.5989,
292.776,1396.9167,
289.866,1399.5614,
286.955,1401.0388,
284.044,1399.985,
281.134,1419.9861,
278.223,1448.7831,
275.313,1404.5718,
272.402,1424.8761,
269.492,1446.5669,
266.581,1442.4153,
263.670,1374.7788,
260.760,1423.1598,
257.849,1473.9584,
254.939,1441.6676,
252.028,1464.413,
249.117,1450.4086,
246.207,1440.4864,
243.296,1507.1017,
240.386,1497.9252,
237.475,1488.4816,
234.565,1485.2944,
231.654,1472.8779,
228.743,1471.9761,
225.833,1461.9688,
222.922,1437.9147,
220.012,1473.6139,
217.101,1459.2421,
214.191,1431.1572,
211.280,1427.5199,
208.369,1408.4112,
205.459,1402.444,
202.548,1411.6372,
199.638,1437.0349,
196.727,1407.677,
193.816,1385.2602,
190.906,1390.6247,
187.995,1344.2872,
185.085,1329.6686,
182.174,1334.1883,
179.264,1345.0297,
176.353,1316.7742,
173.442,1312.2144,
170.532,1329.3857,
167.621,1296.2208,
164.711,1252.037,
161.800,1178.2243,
158.890,1055.1508,
155.979,947.22793,
153.068,871.99753,
150.158,807.16413,
147.247,671.47116,
144.337,563.1805,
141.426,450.67624,
138.516,318.76825,
135.605,226.63337,
132.694,159.58294,
129.784,110.74845,
126.873,67.125526,
123.963,41.746966,
121.052,24.150794,
118.141,11.300558,
115.231,10.53943,
112.320,8.9790922,
109.410,8.340842,
106.499,14.038084,
103.589,10.767964,
100.678,7.25,
97.767,7.25,
94.857,5.1710329,
91.946,7.0717761,
89.036,11.25,
86.125,11.25,
83.215,12.311841,
80.304,9.419077,
77.393,-1.9116419,
74.483,7.0770244,
71.572,10.075887,
68.662,6.0421975,
65.751,3.9228443,
62.840,3.731702,
59.930,4.25,
57.019,4.25,
54.109,-0.52728678,
51.198,-2.8451722,
48.288,-0.74433756,
45.377,-0.040959491,
42.466,0.66221934,
39.556,1.4802372,
36.645,2.8846176,
33.735,0.1345092,
30.824,-4.2962088,
27.914,-9.2044355,
25.003,-12.863187,
22.092,-10.552241,
19.182,-1.7957657,
16.271,-3.194746,
13.361,-24.401441,
10.450,-102.74894,
7.539,-393.24813,
4.629,-877.67938,
1.718,-1322.7569,
-1.192,-1524.9289,
-4.103,-1135.1041,
-7.013,-602.85858,
-9.924,1.25,
