,PL6D1D~1,
Wavenumbers [1/cm],Intensity,
3014.167,1.625,
3011.256,0.074989263,
3008.346,26.696951,
3005.435,21.741609,
3002.525,33.172539,
2999.614,36.714627,
2996.704,38.447683,
2993.793,44.24424,
2990.882,43.541058,
2987.972,51.508966,
2985.061,35.275255,
2982.151,39.221635,
2979.240,41.373086,
2976.329,49.370905,
2973.419,59.702022,
2970.508,56.241663,
2967.598,37.338253,
2964.687,39.743885,
2961.777,58.590913,
2958.866,57.619061,
2955.955,59.554211,
2953.045,53.54223,
2950.134,60.050661,
2947.224,48.052032,
2944.313,60.377849,
2941.403,61.101277,
2938.492,72.061318,
2935.581,70.694949,
2932.671,58.749504,
2929.760,74.140373,
2926.850,78.997931,
2923.939,65.227825,
2921.028,74.119304,
2918.118,83.364293,
2915.207,69.973006,
2912.297,72.59115,
2909.386,72.632297,
2906.476,58.695247,
2903.565,63.157595,
2900.654,60.68364,
2897.744,65.51185,
2894.833,55.800273,
2891.923,47.326897,
2889.012,59.203036,
2886.102,59.711504,
2883.191,37.635384,
2880.280,36.577139,
2877.370,-83.990989,
2874.459,-156.25553,
2871.549,-104.36115,
2868.638,2.5857713,
2865.727,26.759591,
2862.817,46.825526,
2859.906,37.562316,
2856.996,59.593299,
2854.085,78.948551,
2851.175,68.811807,
2848.264,72.100824,
2845.353,48.099475,
2842.443,73.618037,
2839.532,64.878821,
2836.622,73.804689,
2833.711,71.51355,
2830.801,76.82647,
2827.890,73.147744,
2824.979,87.118969,
2822.069,85.636372,
2819.158,85.104783,
2816.248,73.659738,
2813.337,86.738414,
2810.427,90.492766,
2807.516,88.574688,
2804.605,93.173071,
2801.695,84.190791,
2798.784,79.994615,
2795.874,76.049797,
2792.963,75.767765,
2790.052,93.62071,
2787.142,86.440924,
2784.231,82.174713,
2781.321,74.750721,
2778.410,79.114843,
2775.500,91.04948,
2772.589,83.509557,
2769.678,91.44407,
2766.768,78.898755,
2763.857,93.782996,
2760.947,94.121848,
2758.036,93.625,
2755.126,87.575856,
2752.215,89.497701,
2749.304,88.497301,
2746.394,86.22375,
2743.483,93.575025,
2740.573,100.15824,
2737.662,89.614648,
2734.751,82.066756,
2731.841,84.300825,
2728.930,92.277575,
2726.020,93.186343,
2723.109,89.645751,
2720.199,96.115663,
2717.288,87.362224,
2714.377,95.945662,
2711.467,102.28104,
2708.556,88.625,
2705.646,94.540508,
2702.735,104.97037,
2699.825,106.84314,
2696.914,103.91092,
2694.003,111.65264,
2691.093,113.71406,
2688.182,103.80648,
2685.272,109.35046,
2682.361,95.807315,
2679.450,102.57971,
2676.540,100.7063,
2673.629,97.324592,
2670.719,100.61022,
2667.808,99.208627,
2664.898,108.85846,
2661.987,115.29145,
2659.076,99.642246,
2656.166,104.02763,
2653.255,109.13861,
2650.345,113.21665,
2647.434,108.56813,
2644.524,113.2197,
2641.613,107.36793,
2638.702,116.49875,
2635.792,117.21922,
2632.881,115.35711,
2629.971,119.24247,
2627.060,112.45844,
2624.149,110.70625,
2621.239,108.87352,
2618.328,118.2859,
2615.418,107.97045,
2612.507,115.65657,
2609.597,104.55314,
2606.686,122.50852,
2603.775,111.54564,
2600.865,109.80246,
2597.954,124.06242,
2595.044,139.07937,
2592.133,105.51029,
2589.223,120.34817,
2586.312,139.57477,
2583.401,127.82937,
2580.491,127.07692,
2577.580,136.59199,
2574.670,118.28542,
2571.759,131.98373,
2568.848,118.22157,
2565.938,132.72023,
2563.027,127.40458,
2560.117,116.625,
2557.206,124.76153,
2554.296,128.90875,
2551.385,123.69103,
2548.474,152.25512,
2545.564,135.51135,
2542.653,150.93037,
2539.743,140.22974,
2536.832,128.60444,
2533.922,135.75115,
2531.011,145.82481,
2528.100,141.49605,
2525.190,141.32131,
2522.279,146.01533,
2519.369,130.00258,
2516.458,128.29639,
2513.548,131.19776,
2510.637,157.13314,
2507.726,150.24954,
2504.816,143.18644,
2501.905,136.625,
2498.995,125.29713,
2496.084,151.93162,
2493.173,141.57202,
2490.263,147.78209,
2487.352,155.58327,
2484.442,146.93552,
2481.531,138.15681,
2478.621,139.17947,
2475.710,151.57133,
2472.799,145.85817,
2469.889,148.65547,
2466.978,141.85186,
2464.068,153.03245,
2461.157,146.89742,
2458.247,155.50729,
2455.336,164.45281,
2452.425,159.25234,
2449.515,157.2196,
2446.604,166.15728,
2443.694,149.99668,
2440.783,150.53153,
2437.872,158.73439,
2434.962,159.52362,
2432.051,160.45229,
2429.141,161.93096,
2426.230,159.625,
2423.320,179.31075,
2420.409,174.97761,
2417.498,176.60815,
2414.588,146.29055,
2411.677,151.19873,
2408.767,168.64862,
2405.856,180.72259,
2402.946,161.61249,
2400.035,155.91843,
2397.124,171.86029,
2394.214,179.6786,
2391.303,166.51457,
2388.393,174.30178,
2385.482,155.72655,
2382.571,157.61219,
2379.661,151.46241,
2376.750,152.30468,
2373.840,178.39057,
2370.929,184.59251,
2368.019,176.11947,
2365.108,172.74018,
2362.197,184.22226,
2359.287,184.625,
2356.376,193.60915,
2353.466,191.45894,
2350.555,181.43996,
2347.645,179.625,
2344.734,181.98906,
2341.823,189.50892,
2338.913,193.42796,
2336.002,185.67039,
2333.092,191.42971,
2330.181,194.16974,
2327.270,197.56999,
2324.360,189.23819,
2321.449,204.47195,
2318.539,212.07148,
2315.628,209.625,
2312.718,203.44218,
2309.807,192.60609,
2306.896,211.56239,
2303.986,202.41734,
2301.075,216.07183,
2298.165,222.2021,
2295.254,189.40055,
2292.344,209.25569,
2289.433,204.56318,
2286.522,206.08022,
2283.612,222.625,
2280.701,225.22141,
2277.791,214.74522,
2274.880,216.98301,
2271.969,215.78549,
2269.059,209.24624,
2266.148,209.19094,
2263.238,217.92229,
2260.327,214.3491,
2257.417,215.36944,
2254.506,237.50252,
2251.595,232.78145,
2248.685,222.36154,
2245.774,219.02067,
2242.864,231.24592,
2239.953,249.6182,
2237.043,222.88394,
2234.132,212.58082,
2231.221,221.59918,
2228.311,226.23453,
2225.400,233.90645,
2222.490,243.43933,
2219.579,243.65071,
2216.669,246.62023,
2213.758,242.40669,
2210.847,240.43104,
2207.937,250.21782,
2205.026,259.625,
2202.116,249.39891,
2199.205,232.17418,
2196.294,255.36898,
2193.384,259.9145,
2190.473,242.46537,
2187.563,268.6105,
2184.652,268.33602,
2181.742,278.89714,
2178.831,264.54717,
2175.920,276.36271,
2173.010,294.15051,
2170.099,284.49305,
2167.189,292.74698,
2164.278,308.7446,
2161.368,297.62572,
2158.457,286.86127,
2155.546,304.95771,
2152.636,313.23139,
2149.725,305.13507,
2146.815,338.42372,
2143.904,324.625,
2140.993,329.04823,
2138.083,341.43656,
2135.172,353.98645,
2132.262,346.84155,
2129.351,353.76995,
2126.441,362.392,
2123.530,340.84948,
2120.619,356.49673,
2117.709,332.99819,
2114.798,326.02869,
2111.888,304.625,
2108.977,313.52567,
2106.067,304.9742,
2103.156,302.38467,
2100.245,298.61308,
2097.335,282.8763,
2094.424,299.20517,
2091.514,285.27831,
2088.603,306.89687,
2085.692,301.57673,
2082.782,303.8137,
2079.871,308.44647,
2076.961,313.30211,
2074.050,318.84924,
2071.140,305.71679,
2068.229,312.81511,
2065.318,300.3285,
2062.408,299.57961,
2059.497,313.44644,
2056.587,307.14847,
2053.676,306.5247,
2050.766,320.54727,
2047.855,308.14086,
2044.944,291.75801,
2042.034,290.96602,
2039.123,303.64857,
2036.213,322.70493,
2033.302,311.32052,
2030.391,305.09994,
2027.481,315.47849,
2024.570,323.31067,
2021.660,316.09803,
2018.749,318.73897,
2015.839,323.23917,
2012.928,327.18875,
2010.017,308.87147,
2007.107,316.04369,
2004.196,314.06547,
2001.286,315.85467,
1998.375,314.4498,
1995.465,323.6375,
1992.554,316.10744,
1989.643,304.97064,
1986.733,305.41096,
1983.822,302.89457,
1980.912,307.89211,
1978.001,304.26879,
1975.090,316.625,
1972.180,312.28059,
1969.269,303.66234,
1966.359,289.59783,
1963.448,309.92356,
1960.538,299.33726,
1957.627,287.49187,
1954.716,285.65373,
1951.806,347.93594,
1948.895,312.9469,
1945.985,299.93546,
1943.074,315.01623,
1940.164,299.91345,
1937.253,300.77713,
1934.342,307.15494,
1931.432,319.86159,
1928.521,322.72863,
1925.611,307.65111,
1922.700,318.45373,
1919.790,308.84481,
1916.879,304.7645,
1913.968,290.64221,
1911.058,347.64301,
1908.147,319.3593,
1905.237,311.07349,
1902.326,289.10795,
1899.415,280.9579,
1896.505,245.67328,
1893.594,258.89635,
1890.684,276.59876,
1887.773,282.539,
1884.863,291.93252,
1881.952,306.20494,
1879.041,322.99832,
1876.131,326.81062,
1873.220,319.65152,
1870.310,322.338,
1867.399,359.03324,
1864.489,300.93655,
1861.578,309.93259,
1858.667,318.22383,
1855.757,296.4114,
1852.846,317.90703,
1849.936,322.11451,
1847.025,295.32815,
1844.114,312.0509,
1841.204,335.31381,
1838.293,347.13914,
1835.383,331.52051,
1832.472,362.98674,
1829.562,377.12656,
1826.651,364.471,
1823.740,347.79356,
1820.830,334.13674,
1817.919,337.32564,
1815.009,341.1937,
1812.098,339.82973,
1809.188,352.75675,
1806.277,310.5988,
1803.366,335.89118,
1800.456,350.52586,
1797.545,335.95811,
1794.635,377.72199,
1791.724,374.26574,
1788.813,380.41574,
1785.903,355.14242,
1782.992,359.91857,
1780.082,317.82526,
1777.171,229.60731,
1774.261,177.86029,
1771.350,248.53202,
1768.439,345.86285,
1765.529,387.62594,
1762.618,396.52376,
1759.708,377.65739,
1756.797,366.30682,
1753.887,391.5492,
1750.976,409.93194,
1748.065,403.79397,
1745.155,409.12169,
1742.244,400.39586,
1739.334,398.78735,
1736.423,422.11469,
1733.512,426.98678,
1730.602,434.6012,
1727.691,435.32202,
1724.781,450.35653,
1721.870,444.9678,
1718.960,437.69161,
1716.049,429.07423,
1713.138,448.1449,
1710.228,429.86758,
1707.317,422.20214,
1704.407,471.93524,
1701.496,484.00583,
1698.586,471.68922,
1695.675,502.43909,
1692.764,448.76841,
1689.854,423.62105,
1686.943,442.91676,
1684.033,453.37664,
1681.122,493.92831,
1678.211,489.67259,
1675.301,531.4955,
1672.390,519.45154,
1669.480,461.94588,
1666.569,502.29788,
1663.659,554.47801,
1660.748,545.66356,
1657.837,548.01866,
1654.927,565.625,
1652.016,565.5278,
1649.106,562.04118,
1646.195,578.625,
1643.285,579.78711,
1640.374,628.9142,
1637.463,596.50771,
1634.553,644.78756,
1631.642,655.85302,
1628.732,676.90942,
1625.821,724.60537,
1622.911,694.79405,
1620.000,727.20924,
1617.089,734.4857,
1614.179,802.65093,
1611.268,842.17506,
1608.358,889.37749,
1605.447,927.45386,
1602.536,884.89442,
1599.626,985.57741,
1596.715,973.75017,
1593.805,968.04767,
1590.894,967.625,
1587.984,952.90143,
1585.073,880.00721,
1582.162,956.95781,
1579.252,904.2511,
1576.341,901.44201,
1573.431,919.50531,
1570.520,891.52116,
1567.610,857.7815,
1564.699,822.7989,
1561.788,850.65281,
1558.878,839.31447,
1555.967,837.8563,
1553.057,846.81462,
1550.146,806.22146,
1547.235,783.75729,
1544.325,818.86032,
1541.414,807.44116,
1538.504,786.90105,
1535.593,805.87637,
1532.683,774.27952,
1529.772,757.537,
1526.861,792.78542,
1523.951,784.86132,
1521.040,799.92984,
1518.130,827.85674,
1515.219,843.30487,
1512.309,834.49433,
1509.398,800.21046,
1506.487,817.00315,
1503.577,808.70742,
1500.666,853.49843,
1497.756,835.93847,
1494.845,826.42434,
1491.934,797.47382,
1489.024,751.27416,
1486.113,803.4035,
1483.203,790.74981,
1480.292,776.74584,
1477.382,768.96726,
1474.471,739.99936,
1471.560,733.07633,
1468.650,724.74244,
1465.739,731.51333,
1462.829,747.17408,
1459.918,738.70774,
1457.008,730.68659,
1454.097,743.406,
1451.186,748.21881,
1448.276,724.39035,
1445.365,697.91094,
1442.455,699.80504,
1439.544,695.83026,
1436.633,684.73126,
1433.723,666.48529,
1430.812,699.73841,
1427.902,689.23384,
1424.991,714.82343,
1422.081,638.55692,
1419.170,677.4202,
1416.259,706.4967,
1413.349,676.12867,
1410.438,715.00913,
1407.528,708.94411,
1404.617,707.12895,
1401.707,683.76869,
1398.796,643.76839,
1395.885,637.82584,
1392.975,643.79155,
1390.064,641.56809,
1387.154,654.93384,
1384.243,672.00364,
1381.332,647.76375,
1378.422,594.89534,
1375.511,638.92404,
1372.601,633.17401,
1369.690,649.76945,
1366.780,672.42588,
1363.869,670.36023,
1360.958,683.47019,
1358.048,670.26578,
1355.137,720.80982,
1352.227,762.69679,
1349.316,764.78825,
1346.406,817.82578,
1343.495,833.20681,
1340.584,784.23062,
1337.674,877.30015,
1334.763,824.48386,
1331.853,820.77493,
1328.942,834.85643,
1326.032,871.69669,
1323.121,833.68521,
1320.210,855.58248,
1317.300,869.31291,
1314.389,909.30641,
1311.479,935.33385,
1308.568,920.65368,
1305.657,934.12032,
1302.747,955.73451,
1299.836,994.76504,
1296.926,988.83865,
1294.015,993.43526,
1291.105,982.17796,
1288.194,1047.7194,
1285.283,1032.4049,
1282.373,1013.9297,
1279.462,1036.4284,
1276.552,1063.6644,
1273.641,1059.996,
1270.731,1047.0355,
1267.820,1052.847,
1264.909,1028.8222,
1261.999,987.65692,
1259.088,1015.9327,
1256.178,1034.7541,
1253.267,1008.4716,
1250.356,1007.752,
1247.446,1010.4515,
1244.535,1006.1563,
1241.625,998.58797,
1238.714,985.15232,
1235.804,976.92592,
1232.893,1007.1242,
1229.982,1010.6557,
1227.072,1011.561,
1224.161,1010.7845,
1221.251,1000.2019,
1218.340,937.0263,
1215.430,918.38838,
1212.519,948.6409,
1209.608,953.19747,
1206.698,923.45488,
1203.787,937.58481,
1200.877,952.23198,
1197.966,929.753,
1195.055,962.75494,
1192.145,997.17605,
1189.234,1042.3086,
1186.324,1066.5346,
1183.413,1079.0159,
1180.503,1097.3819,
1177.592,1104.0289,
1174.681,1074.2312,
1171.771,1064.8517,
1168.860,1074.6756,
1165.950,1076.4313,
1163.039,1043.1017,
1160.129,1052.2192,
1157.218,1077.2782,
1154.307,1097.3847,
1151.397,1110.1507,
1148.486,1097.3224,
1145.576,1111.5071,
1142.665,1085.7576,
1139.754,1095.8294,
1136.844,1104.9277,
1133.933,1105.279,
1131.023,1080.0202,
1128.112,1060.4097,
1125.202,1076.7313,
1122.291,1086.3662,
1119.380,1063.8069,
1116.470,1082.34,
1113.559,1039.0033,
1110.649,1028.8992,
1107.738,1032.2325,
1104.828,1045.2758,
1101.917,1052.7489,
1099.006,1033.2023,
1096.096,1039.6574,
1093.185,1023.8534,
1090.275,1075.2276,
1087.364,1065.6691,
1084.453,1073.0614,
1081.543,1078.2988,
1078.632,1082.6679,
1075.722,1112.428,
1072.811,1098.7491,
1069.901,1100.4956,
1066.990,1080.4167,
1064.079,1078.3471,
1061.169,1058.6376,
1058.258,1062.7993,
1055.348,1084.57,
1052.437,1064.8372,
1049.527,1050.625,
1046.616,1050.625,
1043.705,1058.3327,
1040.795,1072.7566,
1037.884,1063.9471,
1034.974,1063.8943,
1032.063,1087.002,
1029.153,1080.3907,
1026.242,1095.0949,
1023.331,1085.6256,
1020.421,1092.6873,
1017.510,1115.1141,
1014.600,1106.3638,
1011.689,1080.0413,
1008.778,1090.986,
1005.868,1075.6482,
1002.957,1078.2292,
1000.047,1108.473,
997.136,1143.7054,
994.226,1174.9017,
991.315,1187.7537,
988.404,1167.3836,
985.494,1119.9127,
982.583,1132.761,
979.673,1133.8934,
976.762,1128.9282,
973.852,1129.1611,
970.941,1126.2155,
968.030,1109.677,
965.120,1115.7682,
962.209,1149.8699,
959.299,1133.6693,
956.388,1140.304,
953.477,1142.7603,
950.567,1141.1733,
947.656,1174.0626,
944.746,1154.5228,
941.835,1193.3059,
938.925,1209.8636,
936.014,1205.026,
933.103,1198.3905,
930.193,1197.0306,
927.282,1178.9916,
924.372,1185.7565,
921.461,1193.2526,
918.551,1175.2923,
915.640,1159.7751,
912.729,1159.1617,
909.819,1161.737,
906.908,1170.1613,
903.998,1171.4204,
901.087,1169.079,
898.176,1165.7162,
895.266,1174.734,
892.355,1197.0544,
889.445,1188.6617,
886.534,1189.4599,
883.624,1203.7545,
880.713,1203.48,
877.802,1181.3398,
874.892,1139.5719,
871.981,1077.0086,
869.071,881.52203,
866.160,900.06193,
863.250,1011.1669,
860.339,1122.8427,
857.428,1182.3468,
854.518,1187.6993,
851.607,1121.1337,
848.697,1064.9169,
845.786,1024.3853,
842.875,1050.7167,
839.965,1143.9651,
837.054,1187.3228,
834.144,1249.4792,
831.233,1300.2889,
828.323,1296.3801,
825.412,1275.2007,
822.501,1280.9229,
819.591,1282.5757,
816.680,1272.2083,
813.770,1256.4684,
810.859,1248.1738,
807.949,1256.4446,
805.038,1273.9502,
802.127,1227.0319,
799.217,1234.5513,
796.306,1247.1386,
793.396,1259.4648,
790.485,1262.097,
787.574,1238.2478,
784.664,1254.65,
781.753,1283.1224,
778.843,1302.4862,
775.932,1303.4523,
773.022,1285.8211,
770.111,1261.2937,
767.200,1259.625,
764.290,1268.2932,
761.379,1282.5024,
758.469,1289.1841,
755.558,1269.2814,
752.648,1291.2757,
749.737,1297.5834,
746.826,1291.6317,
743.916,1287.2549,
741.005,1298.6425,
738.095,1316.5038,
735.184,1301.4636,
732.274,1268.856,
729.363,1234.8656,
726.452,1220.4953,
723.542,1258.5368,
720.631,1263.6832,
717.721,1268.0621,
714.810,1288.1362,
711.899,1313.9913,
708.989,1302.6944,
706.078,1329.8693,
703.168,1336.625,
700.257,1329.6113,
697.347,1319.625,
694.436,1318.7303,
691.525,1285.7743,
688.615,1276.7383,
685.704,1279.0785,
682.794,1298.3695,
679.883,1347.0575,
676.973,1356.674,
674.062,1358.625,
671.151,1358.1867,
668.241,1344.0449,
665.330,1301.1544,
662.420,1312.3367,
659.509,1331.7681,
656.598,1342.9232,
653.688,1355.667,
650.777,1392.301,
647.867,1382.745,
644.956,1347.1909,
642.046,1283.9214,
639.135,1235.1535,
636.224,1278.7643,
633.314,1306.5521,
630.403,1332.5437,
627.493,1349.4657,
624.582,1350.3279,
621.672,1326.568,
618.761,1338.544,
615.850,1381.1941,
612.940,1423.2126,
610.029,1437.575,
607.119,1401.252,
604.208,1414.6653,
601.297,1417.1383,
598.387,1396.287,
595.476,1356.0707,
592.566,1360.7931,
589.655,1412.1604,
586.745,1404.0396,
583.834,1368.8238,
580.923,1408.5776,
578.013,1400.7303,
575.102,1369.9456,
572.192,1381.8525,
569.281,1448.9362,
566.371,1489.6326,
563.460,1452.0024,
560.549,1438.036,
557.639,1453.7103,
554.728,1486.0337,
551.818,1476.67,
548.907,1437.4508,
545.996,1419.4568,
543.086,1427.2829,
540.175,1421.0537,
537.265,1435.8349,
534.354,1425.5709,
531.444,1418.8207,
528.533,1440.6384,
525.622,1412.7043,
522.712,1429.6816,
519.801,1443.4794,
516.891,1434.8953,
513.980,1401.6006,
511.070,1408.4859,
508.159,1429.8174,
505.248,1452.8812,
502.338,1465.2861,
499.427,1453.7086,
496.517,1437.6149,
493.606,1435.3643,
490.695,1451.1599,
487.785,1455.0089,
484.874,1445.2854,
481.964,1433.3958,
479.053,1425.5443,
476.143,1429.3841,
473.232,1426.7474,
470.321,1444.1149,
467.411,1448.1761,
464.500,1403.0517,
461.590,1419.8979,
458.679,1435.6309,
455.769,1427.6115,
452.858,1395.7152,
449.947,1444.6068,
447.037,1434.6019,
444.126,1436.7826,
441.216,1464.8739,
438.305,1477.8267,
435.395,1463.2341,
432.484,1458.3758,
429.573,1448.5373,
426.663,1383.9254,
423.752,1225.8902,
420.842,1053.6739,
417.931,885.39312,
415.020,736.75493,
412.110,1031.5864,
409.199,1261.9183,
406.289,1379.9996,
403.378,1356.6096,
400.468,1352.0737,
397.557,1362.4504,
394.646,1395.9807,
391.736,1457.4459,
388.825,1483.0898,
385.915,1475.7236,
383.004,1461.7684,
380.094,1459.4714,
377.183,1456.4615,
374.272,1479.5073,
371.362,1493.1498,
368.451,1478.9016,
365.541,1499.9166,
362.630,1495.7927,
359.719,1495.6161,
356.809,1511.8158,
353.898,1465.3904,
350.988,1485.1742,
348.077,1520.466,
345.167,1536.7112,
342.256,1479.1869,
339.345,1464.2193,
336.435,1463.1267,
333.524,1456.8599,
330.614,1464.3114,
327.703,1519.5057,
324.793,1559.8289,
321.882,1531.5529,
318.971,1501.8152,
316.061,1515.5524,
313.150,1549.6321,
310.240,1578.5746,
307.329,1592.4885,
304.418,1606.7441,
301.508,1621.7604,
298.597,1637.3091,
295.687,1650.8153,
292.776,1633.7082,
289.866,1614.5473,
286.955,1675.8615,
284.044,1712.455,
281.134,1748.9908,
278.223,1776.6192,
275.313,1728.7237,
272.402,1765.6782,
269.492,1778.3959,
266.581,1729.5245,
263.670,1686.1489,
260.760,1702.3561,
257.849,1752.4913,
254.939,1820.7424,
252.028,1792.6712,
249.117,1799.8981,
246.207,1820.8674,
243.296,1817.9392,
240.386,1833.2968,
237.475,1842.7776,
234.565,1848.4211,
231.654,1872.5238,
228.743,1894.3107,
225.833,1890.1606,
222.922,1851.4359,
220.012,1825.9365,
217.101,1827.93,
214.191,1833.3796,
211.280,1815.9204,
208.369,1817.9891,
205.459,1796.8677,
202.548,1760.6194,
199.638,1749.009,
196.727,1750.0823,
193.816,1766.171,
190.906,1795.2633,
187.995,1727.929,
185.085,1723.5392,
182.174,1740.7073,
179.264,1726.252,
176.353,1725.2658,
173.442,1711.8478,
170.532,1679.0563,
167.621,1605.5168,
164.711,1549.3608,
161.800,1466.9806,
158.890,1321.5956,
155.979,1248.8927,
153.068,1151.6263,
150.158,1028.3177,
147.247,885.44516,
144.337,743.21242,
141.426,589.93408,
138.516,418.59707,
135.605,287.77948,
132.694,199.44834,
129.784,141.17227,
126.873,87.537532,
123.963,57.845686,
121.052,37.392637,
118.141,21.686793,
115.231,20.203859,
112.320,18.777728,
109.410,16.397803,
106.499,9.9884056,
103.589,10.866018,
100.678,10.180405,
97.767,3.7819665,
94.857,2.2390219,
91.946,8.8809957,
89.036,18.044429,
86.125,8.1155555,
83.215,5.0940796,
80.304,3.6672693,
77.393,0.83458951,
74.483,1.9352699,
71.572,2.9873521,
68.662,3.1401275,
65.751,-1.80503,
62.840,0.96031785,
59.930,4.5012828,
57.019,0.2707909,
54.109,0.8193217,
51.198,3.1330464,
48.288,6.5966878,
45.377,3.0797975,
42.466,0.80056132,
39.556,-0.72035573,
36.645,-2.8269264,
33.735,-2.8557515,
30.824,-3.0376609,
27.914,-5.1411867,
25.003,-8.4881874,
22.092,-8.1146681,
19.182,-3.2834685,
16.271,-0.48550802,
13.361,24.648105,
10.450,32.62553,
7.539,-112.62407,
4.629,-457.07204,
1.718,-816.43135,
-1.192,-1051.3691,
-4.103,-858.3603,
-7.013,-497.60705,
-9.924,-1.375,
