,Pliquid_AuCOFNPs-citrate13new_1E-1mgmL_100uL_mix_1E-1mgL_16h_785nm_133mW_3s_1acc_2_RamanShift__0__71,
Raman shift [1/cm],Intensity,
3014.167,-2.875,
3011.256,0.024978527,
3008.346,37.985345,
3005.435,47.315811,
3002.525,38.539989,
2999.614,61.223691,
2996.704,59.895101,
2993.793,57.991936,
2990.882,62.430353,
2987.972,54.13509,
2985.061,56.56835,
2982.151,49.198943,
2979.240,61.923469,
2976.329,65.61681,
2973.419,54.755809,
2970.508,62.37495,
2967.598,64.933835,
2964.687,58.737093,
2961.777,70.620874,
2958.866,64.120546,
2955.955,62.536514,
2953.045,60.858784,
2950.134,75.040475,
2947.224,66.352751,
2944.313,70.529558,
2941.403,65.255931,
2938.492,75.859427,
2935.581,73.152018,
2932.671,80.043441,
2929.760,67.84807,
2926.850,69.811466,
2923.939,67.199727,
2921.028,72.024868,
2918.118,80.205606,
2915.207,83.359155,
2912.297,81.129231,
2909.386,86.30019,
2906.476,68.063213,
2903.565,69.269439,
2900.654,76.842904,
2897.744,68.326155,
2894.833,78.764275,
2891.923,68.692299,
2889.012,78.373555,
2886.102,77.084466,
2883.191,73.125,
2880.280,49.885759,
2877.370,49.6831,
2874.459,36.125,
2871.549,64.98062,
2868.638,86.170362,
2865.727,93.125,
2862.817,90.939173,
2859.906,90.529563,
2856.996,82.604621,
2854.085,88.885507,
2851.175,94.387046,
2848.264,89.345502,
2845.353,98.081866,
2842.443,95.326393,
2839.532,98.781688,
2836.622,80.73177,
2833.711,89.909937,
2830.801,87.031615,
2827.890,81.273626,
2824.979,89.989035,
2822.069,102.01128,
2819.158,92.125,
2816.248,98.848946,
2813.337,101.23841,
2810.427,96.867429,
2807.516,79.340939,
2804.605,90.233186,
2801.695,100.50656,
2798.784,109.79438,
2795.874,84.109148,
2792.963,102.33936,
2790.052,105.12479,
2787.142,96.019615,
2784.231,81.705747,
2781.321,103.67921,
2778.410,92.084373,
2775.500,106.89086,
2772.589,98.086013,
2769.678,91.517485,
2766.768,108.54638,
2763.857,110.28107,
2760.947,96.131304,
2758.036,105.59639,
2755.126,103.59082,
2752.215,115.17026,
2749.304,99.380398,
2746.394,112.43147,
2743.483,106.125,
2740.573,103.46348,
2737.662,94.688607,
2734.751,109.61515,
2731.841,85.90704,
2728.930,116.10386,
2726.020,108.01273,
2723.109,100.03233,
2720.199,108.95013,
2717.288,99.369533,
2714.377,114.09156,
2711.467,96.255776,
2708.556,120.94395,
2705.646,120.51935,
2702.735,119.11984,
2699.825,115.59228,
2696.914,108.21999,
2694.003,123.09736,
2691.093,114.3392,
2688.182,123.58056,
2685.272,112.125,
2682.361,112.125,
2679.450,114.24845,
2676.540,117.2063,
2673.629,117.80663,
2670.719,116.26364,
2667.808,113.41681,
2664.898,112.94309,
2661.987,117.55832,
2659.076,123.23491,
2656.166,121.125,
2653.255,124.97534,
2650.345,133.04515,
2647.434,116.78204,
2644.524,116.98593,
2641.613,115.58194,
2638.702,139.68313,
2635.792,127.03227,
2632.881,128.36294,
2629.971,137.74247,
2627.060,134.29343,
2624.149,126.55624,
2621.239,128.86462,
2618.328,120.50648,
2615.418,130.78409,
2612.507,132.26335,
2609.597,120.2268,
2606.686,127.31978,
2603.775,134.84723,
2600.865,138.30246,
2597.954,138.02917,
2595.044,137.77691,
2592.133,141.73647,
2589.223,153.71554,
2586.312,144.56221,
2583.401,133.47172,
2580.491,141.65864,
2577.580,139.14811,
2574.670,153.125,
2571.759,149.82192,
2568.848,129.83762,
2565.938,150.17269,
2563.027,146.6136,
2560.117,149.76985,
2557.206,151.54935,
2554.296,154.32637,
2551.385,156.18296,
2548.474,154.64359,
2545.564,160.96672,
2542.653,146.18876,
2539.743,144.48329,
2536.832,152.3493,
2533.922,149.31423,
2531.011,157.82528,
2528.100,151.25741,
2525.190,149.17213,
2522.279,156.87537,
2519.369,167.59697,
2516.458,146.56197,
2513.548,162.39739,
2510.637,152.86279,
2507.726,158.1919,
2504.816,156.93898,
2501.905,156.38598,
2498.995,147.54303,
2496.084,155.96473,
2493.173,153.49321,
2490.263,160.88886,
2487.352,172.499,
2484.442,160.97296,
2481.531,171.81113,
2478.621,156.69839,
2475.710,175.125,
2472.799,176.11154,
2469.889,177.18594,
2466.978,178.01157,
2464.068,169.54825,
2461.157,168.125,
2458.247,168.97795,
2455.336,168.80602,
2452.425,177.0401,
2449.515,179.24766,
2446.604,176.59968,
2443.694,166.05509,
2440.783,174.46059,
2437.872,181.63551,
2434.962,191.44759,
2432.051,181.61266,
2429.141,185.68378,
2426.230,180.58134,
2423.320,181.75349,
2420.409,191.17617,
2417.498,183.77386,
2414.588,192.56217,
2411.677,191.37601,
2408.767,194.33071,
2405.856,193.91304,
2402.946,185.58881,
2400.035,189.61093,
2397.124,192.70787,
2394.214,208.25901,
2391.303,193.30183,
2388.393,185.39243,
2385.482,189.86063,
2382.571,200.07376,
2379.661,216.40414,
2376.750,215.91314,
2373.840,195.02511,
2370.929,184.16832,
2368.019,209.04127,
2365.108,206.79778,
2362.197,218.94416,
2359.287,215.32667,
2356.376,203.14613,
2353.466,208.91266,
2350.555,207.38483,
2347.645,209.00578,
2344.734,215.91302,
2341.823,215.14158,
2338.913,213.01307,
2336.002,222.31634,
2333.092,234.50425,
2330.181,240.14289,
2327.270,213.72015,
2324.360,205.02354,
2321.449,228.18622,
2318.539,216.97514,
2315.628,227.56106,
2312.718,230.7087,
2309.807,225.90115,
2306.896,245.33783,
2303.986,231.125,
2301.075,231.125,
2298.165,224.74027,
2295.254,251.50025,
2292.344,238.28688,
2289.433,227.49182,
2286.522,236.63839,
2283.612,246.09568,
2280.701,238.00843,
2277.791,236.64597,
2274.880,251.05096,
2271.969,256.96451,
2269.059,245.62907,
2266.148,241.0432,
2263.238,243.02461,
2260.327,244.78039,
2257.417,264.99,
2254.506,262.57516,
2251.595,275.40496,
2248.685,248.45396,
2245.774,228.11417,
2242.864,265.25467,
2239.953,263.48369,
2237.043,259.30749,
2234.132,263.31465,
2231.221,252.57201,
2228.311,260.69329,
2225.400,282.35016,
2222.490,285.29753,
2219.579,262.41548,
2216.669,263.60354,
2213.758,270.08187,
2210.847,287.24589,
2207.937,282.49146,
2205.026,290.34745,
2202.116,289.10694,
2199.205,294.05064,
2196.294,287.86898,
2193.384,289.57249,
2190.473,296.70481,
2187.563,286.19267,
2184.652,301.63112,
2181.742,307.76107,
2178.831,314.43634,
2175.920,323.71334,
2173.010,321.30017,
2170.099,328.19097,
2167.189,336.98867,
2164.278,319.15214,
2161.368,335.40947,
2158.457,362.81951,
2155.546,352.79229,
2152.636,366.11962,
2149.725,380.28607,
2146.815,369.52543,
2143.904,377.73465,
2140.993,400.19379,
2138.083,393.11286,
2135.172,389.09981,
2132.262,384.61444,
2129.351,401.26995,
2126.441,398.40652,
2123.530,392.05766,
2120.619,381.30869,
2117.709,359.563,
2114.798,380.01727,
2111.888,370.00023,
2108.977,365.125,
2106.067,339.34016,
2103.156,346.0822,
2100.245,340.12124,
2097.335,334.36584,
2094.424,334.6889,
2091.514,318.32651,
2088.603,310.88992,
2085.692,344.44831,
2082.782,328.85208,
2079.871,327.80411,
2076.961,319.83536,
2074.050,352.02803,
2071.140,348.99865,
2068.229,334.68882,
2065.318,322.45926,
2062.408,332.23091,
2059.497,327.52977,
2056.587,345.43869,
2053.676,331.70958,
2050.766,338.20123,
2047.855,314.6661,
2044.944,333.65705,
2042.034,337.362,
2039.123,344.92635,
2036.213,343.5316,
2033.302,339.25522,
2030.391,337.59994,
2027.481,325.66163,
2024.570,350.25288,
2021.660,344.77542,
2018.749,345.65687,
2015.839,356.97277,
2012.928,348.64178,
2010.017,363.22923,
2007.107,352.19415,
2004.196,345.05356,
2001.286,338.49956,
1998.375,347.95473,
1995.465,359.41786,
1992.554,322.56063,
1989.643,340.29547,
1986.733,353.76711,
1983.822,360.61097,
1980.912,337.90757,
1978.001,354.75209,
1975.090,345.76468,
1972.180,341.71009,
1969.269,368.27735,
1966.359,368.74649,
1963.448,375.54376,
1960.538,369.57537,
1957.627,380.49962,
1954.716,388.92391,
1951.806,349.41663,
1948.895,377.56827,
1945.985,385.39787,
1943.074,336.18385,
1940.164,366.76922,
1937.253,379.03777,
1934.342,383.51805,
1931.432,364.77484,
1928.521,372.46352,
1925.611,384.89117,
1922.700,372.87915,
1919.790,372.57005,
1916.879,374.05525,
1913.968,349.15574,
1911.058,355.37126,
1908.147,391.11044,
1905.237,405.01463,
1902.326,360.87166,
1899.415,370.51646,
1896.505,366.64914,
1893.594,367.5823,
1890.684,359.02698,
1887.773,378.65029,
1884.863,413.62158,
1881.952,399.01525,
1879.041,390.39447,
1876.131,374.83742,
1873.220,383.32859,
1870.310,415.75723,
1867.399,412.22096,
1864.489,419.83986,
1861.578,386.07021,
1858.667,371.69981,
1855.757,407.51283,
1852.846,411.82759,
1849.936,389.26413,
1847.025,400.4194,
1844.114,403.5509,
1841.204,409.2229,
1838.293,404.63082,
1835.383,412.60149,
1832.472,416.78761,
1829.562,431.01146,
1826.651,406.25235,
1823.740,413.42006,
1820.830,432.92824,
1817.919,430.42436,
1815.009,425.70006,
1812.098,449.36121,
1809.188,414.60571,
1806.277,432.66023,
1803.366,441.37637,
1800.456,396.46551,
1797.545,387.33765,
1794.635,408.73799,
1791.724,414.70741,
1788.813,449.31369,
1785.903,422.33231,
1782.992,433.02957,
1780.082,408.4058,
1777.171,444.12018,
1774.261,425.75999,
1771.350,424.72925,
1768.439,432.21124,
1765.529,434.94164,
1762.618,447.83192,
1759.708,461.90751,
1756.797,458.57955,
1753.887,478.2285,
1750.976,441.95224,
1748.065,434.31701,
1745.155,447.57018,
1742.244,424.27449,
1739.334,426.81911,
1736.423,438.77733,
1733.512,453.49495,
1730.602,470.84129,
1727.691,446.72156,
1724.781,467.22833,
1721.870,455.8106,
1718.960,467.56964,
1716.049,456.02346,
1713.138,501.85976,
1710.228,483.14579,
1707.317,472.04843,
1704.407,477.41378,
1701.496,486.32893,
1698.586,476.03719,
1695.675,475.125,
1692.764,499.73977,
1689.854,512.60532,
1686.943,513.125,
1684.033,538.47926,
1681.122,493.90665,
1678.211,523.82996,
1675.301,525.12192,
1672.390,513.23566,
1669.480,550.34962,
1666.569,577.92187,
1663.659,562.87629,
1660.748,606.91025,
1657.837,545.25622,
1654.927,551.52329,
1652.016,568.36799,
1649.106,579.81419,
1646.195,645.92618,
1643.285,597.69466,
1640.374,621.95775,
1637.463,614.19706,
1634.553,617.992,
1631.642,610.00449,
1628.732,689.93539,
1625.821,658.15902,
1622.911,709.83197,
1620.000,688.40217,
1617.089,772.41355,
1614.179,810.08156,
1611.268,805.34807,
1608.358,785.10829,
1605.447,868.98283,
1602.536,821.00743,
1599.626,877.84057,
1596.715,874.04899,
1593.805,839.14039,
1590.894,835.125,
1587.984,854.17903,
1585.073,795.01537,
1582.162,841.73214,
1579.252,843.30539,
1576.341,791.45907,
1573.431,798.70435,
1570.520,826.29193,
1567.610,822.69347,
1564.699,795.19902,
1561.788,817.81484,
1558.878,786.06263,
1555.967,765.78566,
1553.057,752.09066,
1550.146,737.97956,
1547.235,743.57022,
1544.325,742.20755,
1541.414,730.72443,
1538.504,740.51147,
1535.593,731.24002,
1532.683,712.63773,
1529.772,735.51224,
1526.861,733.78995,
1523.951,714.40654,
1521.040,734.64387,
1518.130,716.64691,
1515.219,695.92531,
1512.309,695.28269,
1509.398,726.125,
1506.487,726.30609,
1503.577,729.47625,
1500.666,739.9911,
1497.756,716.42177,
1494.845,732.72533,
1491.934,747.06831,
1489.024,729.74343,
1486.113,695.74524,
1483.203,700.23034,
1480.292,720.64076,
1477.382,719.27551,
1474.471,665.94323,
1471.560,698.01896,
1468.650,688.11078,
1465.739,666.15814,
1462.829,661.125,
1459.918,664.43995,
1457.008,679.81747,
1454.097,674.10084,
1451.186,656.03602,
1448.276,684.47697,
1445.365,712.30115,
1442.455,701.71073,
1439.544,727.79339,
1436.633,657.26203,
1433.723,706.2466,
1430.812,712.79511,
1427.902,696.41815,
1424.991,708.73906,
1422.081,682.51816,
1419.170,717.27959,
1416.259,698.82311,
1413.349,696.90121,
1410.438,697.42522,
1407.528,698.41248,
1404.617,715.56459,
1401.707,710.1669,
1398.796,691.82081,
1395.885,689.77856,
1392.975,701.33372,
1390.064,708.11849,
1387.154,668.23607,
1384.243,611.29652,
1381.332,587.35034,
1378.422,583.0089,
1375.511,619.54335,
1372.601,659.75252,
1369.690,747.1328,
1366.780,780.13384,
1363.869,766.2366,
1360.958,763.0863,
1358.048,772.24474,
1355.137,768.18837,
1352.227,767.90282,
1349.316,803.56537,
1346.406,845.76362,
1343.495,849.11804,
1340.584,851.73238,
1337.674,843.73626,
1334.763,906.48987,
1331.853,889.79971,
1328.942,891.79339,
1326.032,892.125,
1323.121,894.34789,
1320.210,915.10262,
1317.300,883.21852,
1314.389,885.47283,
1311.479,882.79514,
1308.568,842.20257,
1305.657,864.07298,
1302.747,910.67682,
1299.836,899.02186,
1296.926,939.58676,
1294.015,906.49111,
1291.105,898.96121,
1288.194,974.80433,
1285.283,1010.5931,
1282.373,1016.4922,
1279.462,1027.1052,
1276.552,1050.9912,
1273.641,1055.9776,
1270.731,1035.831,
1267.820,1044.4733,
1264.909,1073.5969,
1261.999,1028.788,
1259.088,1101.7577,
1256.178,1054.7376,
1253.267,1023.8763,
1250.356,1046.9242,
1247.446,1039.4161,
1244.535,1028.0893,
1241.625,1024.4547,
1238.714,1015.3045,
1235.804,1001.5572,
1232.893,945.10958,
1229.982,1014.7264,
1227.072,1002.9573,
1224.161,1005.487,
1221.251,959.96543,
1218.340,922.09939,
1215.430,941.50551,
1212.519,927.73492,
1209.608,901.03316,
1206.698,939.89098,
1203.787,943.99435,
1200.877,955.85235,
1197.966,983.72628,
1195.055,968.06003,
1192.145,1002.6922,
1189.234,1029.3984,
1186.324,1050.7627,
1183.413,1052.4093,
1180.503,1035.4034,
1177.592,1031.4685,
1174.681,1045.9572,
1171.771,1023.3214,
1168.860,988.4909,
1165.950,1017.3766,
1163.039,1028.617,
1160.129,1008.3004,
1157.218,987.35617,
1154.307,980.01192,
1151.397,973.43278,
1148.486,962.52271,
1145.576,976.125,
1142.665,976.125,
1139.754,1011.111,
1136.844,954.69714,
1133.933,947.06621,
1131.023,974.34368,
1128.112,993.76718,
1125.202,996.08637,
1122.291,980.63445,
1119.380,1004.8392,
1116.470,975.71574,
1113.559,999.96197,
1110.649,987.16994,
1107.738,991.66372,
1104.828,1009.286,
1101.917,1012.4622,
1099.006,1013.6609,
1096.096,1046.9211,
1093.185,1010.923,
1090.275,1055.0627,
1087.364,1024.2715,
1084.453,1018.6241,
1081.543,1022.1135,
1078.632,1017.1991,
1075.722,1023.4922,
1072.811,1015.1656,
1069.901,1057.9553,
1066.990,1045.7667,
1064.079,1077.5117,
1061.169,1085.8405,
1058.258,1083.3599,
1055.348,1098.2377,
1052.437,1109.3018,
1049.527,1054.5614,
1046.616,1065.8561,
1043.705,1084.8526,
1040.795,1097.1486,
1037.884,1115.2857,
1034.974,1107.1521,
1032.063,1067.2636,
1029.153,1063.1104,
1026.242,1104.6283,
1023.331,1117.7909,
1020.421,1079.6931,
1017.510,1093.5004,
1014.600,1121.9314,
1011.689,1132.8264,
1008.778,1146.3919,
1005.868,1142.0632,
1002.957,1135.1804,
1000.047,1180.717,
997.136,1201.649,
994.226,1232.2323,
991.315,1248.5532,
988.404,1204.828,
985.494,1197.703,
982.583,1178.8588,
979.673,1203.9276,
976.762,1171.2665,
973.852,1157.0374,
970.941,1176.2359,
968.030,1174.7262,
965.120,1178.1286,
962.209,1178.9811,
959.299,1210.288,
956.388,1181.1277,
953.477,1154.7014,
950.567,1165.4321,
947.656,1172.3559,
944.746,1196.993,
941.835,1185.9778,
938.925,1192.3377,
936.014,1204.7124,
933.103,1211.0657,
930.193,1206.9277,
927.282,1197.8042,
924.372,1191.885,
921.461,1205.853,
918.551,1181.4974,
915.640,1168.6239,
912.729,1181.4668,
909.819,1184.4578,
906.908,1179.4032,
903.998,1185.4879,
901.087,1196.0361,
898.176,1195.8759,
895.266,1204.408,
892.355,1238.5803,
889.445,1257.0442,
886.534,1240.4276,
883.624,1233.088,
880.713,1247.9667,
877.802,1250.5767,
874.892,1226.2281,
871.981,1230.9474,
869.071,1223.4287,
866.160,1221.435,
863.250,1233.1817,
860.339,1248.0627,
857.428,1247.8553,
854.518,1217.1491,
851.607,1217.9811,
848.697,1218.125,
845.786,1225.9095,
842.875,1234.5232,
839.965,1237.4842,
837.054,1239.5809,
834.144,1280.1897,
831.233,1245.4614,
828.323,1231.5436,
825.412,1237.5152,
822.501,1235.4655,
819.591,1242.9031,
816.680,1218.2852,
813.770,1228.4141,
810.859,1222.7828,
807.949,1206.8811,
805.038,1215.4193,
802.127,1226.1199,
799.217,1233.0881,
796.306,1243.071,
793.396,1246.0105,
790.485,1240.2827,
787.574,1237.6855,
784.664,1252.4475,
781.753,1260.4929,
778.843,1265.0853,
775.932,1262.8041,
773.022,1258.8309,
770.111,1295.6219,
767.200,1296.6024,
764.290,1299.5923,
761.379,1295.4293,
758.469,1284.2879,
755.558,1280.5172,
752.648,1260.1521,
749.737,1269.8336,
746.826,1244.0233,
743.916,1192.1638,
741.005,1149.7057,
738.095,1092.8743,
735.184,984.58652,
732.274,911.51936,
729.363,937.2668,
726.452,1068.7825,
723.542,1194.2385,
720.631,1234.7647,
717.721,1269.1845,
714.810,1290.1704,
711.899,1292.6794,
708.989,1282.1894,
706.078,1275.7146,
703.168,1275.9467,
700.257,1276.2999,
697.347,1276.2118,
694.436,1279.514,
691.525,1257.0074,
688.615,1234.5155,
685.704,1240.961,
682.794,1255.8698,
679.883,1233.0621,
676.973,1253.8978,
674.062,1253.0203,
671.151,1290.013,
668.241,1320.1592,
665.330,1255.1293,
662.420,1297.462,
659.509,1305.4901,
656.598,1310.318,
653.688,1312.2941,
650.777,1296.611,
647.867,1310.9449,
644.956,1317.2208,
642.046,1296.3221,
639.135,1276.0727,
636.224,1321.1608,
633.314,1328.3063,
630.403,1332.4898,
627.493,1329.9002,
624.582,1334.6021,
621.672,1386.0818,
618.761,1372.1663,
615.850,1347.2894,
612.940,1349.2263,
610.029,1381.363,
607.119,1364.7808,
604.208,1362.415,
601.297,1382.5642,
598.387,1396.8191,
595.476,1379.3423,
592.566,1360.4527,
589.655,1387.5758,
586.745,1396.7475,
583.834,1371.5345,
580.923,1316.0824,
578.013,1309.0197,
575.102,1306.5514,
572.192,1325.4184,
569.281,1363.7806,
566.371,1384.1288,
563.460,1373.4266,
560.549,1363.2522,
557.639,1354.9022,
554.728,1348.4408,
551.818,1385.1156,
548.907,1386.4215,
545.996,1385.2353,
543.086,1391.8026,
540.175,1399.5891,
537.265,1398.6764,
534.354,1405.6504,
531.444,1401.9787,
528.533,1373.6768,
525.622,1381.4363,
522.712,1350.9671,
519.801,1348.0734,
516.891,1385.1068,
513.980,1424.5958,
511.070,1442.2119,
508.159,1440.0064,
505.248,1435.1308,
502.338,1446.9443,
499.427,1440.7696,
496.517,1456.0947,
493.606,1452.6369,
490.695,1419.1621,
487.785,1412.234,
484.874,1453.7758,
481.964,1472.1417,
479.053,1457.9545,
476.143,1428.004,
473.232,1416.7728,
470.321,1436.4807,
467.411,1452.0076,
464.500,1425.125,
461.590,1425.125,
458.679,1453.7403,
455.769,1464.2074,
452.858,1434.5343,
449.947,1419.2557,
447.037,1430.6873,
444.126,1446.7795,
441.216,1458.6542,
438.305,1461.7019,
435.395,1482.4497,
432.484,1471.8706,
429.573,1438.7525,
426.663,1424.3098,
423.752,1415.4534,
420.842,1402.0779,
417.931,1386.893,
415.020,1375.5176,
412.110,1416.8269,
409.199,1432.125,
406.289,1440.4883,
403.378,1466.1993,
400.468,1488.1231,
397.557,1474.0449,
394.646,1442.2738,
391.736,1408.459,
388.825,1356.417,
385.915,1319.8373,
383.004,1298.8407,
380.094,1296.7336,
377.183,1367.4663,
374.272,1439.7747,
371.362,1481.4761,
368.451,1474.6235,
365.541,1466.3676,
362.630,1491.437,
359.719,1502.5823,
356.809,1478.1607,
353.898,1528.3302,
350.988,1521.5105,
348.077,1496.5744,
345.167,1479.3738,
342.256,1504.027,
339.345,1519.6279,
336.435,1532.3993,
333.524,1545.4438,
330.614,1523.8343,
327.703,1516.6116,
324.793,1512.0003,
321.882,1500.1719,
318.971,1519.5014,
316.061,1529.5432,
313.150,1536.8202,
310.240,1548.6941,
307.329,1509.82,
304.418,1502.3322,
301.508,1504.8388,
298.597,1477.4434,
295.687,1445.3264,
292.776,1427.7916,
289.866,1436.0473,
286.955,1497.3615,
284.044,1559.8874,
281.134,1621.4886,
278.223,1681.1008,
275.313,1735.6281,
272.402,1778.4938,
269.492,1786.8666,
266.581,1753.3398,
263.670,1714.3753,
260.760,1761.1095,
257.849,1809.2491,
254.939,1795.3053,
252.028,1834.9365,
249.117,1819.5176,
246.207,1778.958,
243.296,1762.8532,
240.386,1820.5472,
237.475,1830.6105,
234.565,1794.0544,
231.654,1780.9075,
228.743,1759.1379,
225.833,1738.4173,
222.922,1723.8384,
220.012,1739.1381,
217.101,1678.8598,
214.191,1640.6307,
211.280,1738.8381,
208.369,1735.36,
205.459,1689.8007,
202.548,1640.4064,
199.638,1705.7148,
196.727,1703.5672,
193.816,1704.768,
190.906,1733.5663,
187.995,1717.6378,
185.085,1710.7064,
182.174,1698.7432,
179.264,1660.4366,
176.353,1700.9795,
173.442,1689.8692,
170.532,1629.5693,
167.621,1659.1293,
164.711,1625.6052,
161.800,1537.989,
158.890,1391.1646,
155.979,1340.3034,
153.068,1221.645,
150.158,1057.5586,
147.247,948.42985,
144.337,752.92974,
141.426,562.15352,
138.516,418.77527,
135.605,298.19067,
132.694,200.38625,
129.784,124.64786,
126.873,76.019029,
123.963,52.467317,
121.052,40.425265,
118.141,36.141853,
115.231,27.598156,
112.320,24.548636,
109.410,23.761447,
106.499,16.639895,
103.589,15.685254,
100.678,14.49527,
97.767,10.229644,
94.857,7.3530438,
91.946,6.125,
89.036,7.1410812,
86.125,13.523929,
83.215,11.939478,
80.304,9.125,
77.393,9.125,
74.483,11.74554,
71.572,13.849704,
68.662,13.878185,
65.751,1.1620656,
62.840,2.9054238,
59.930,8.9377138,
57.019,8.2326318,
54.109,6.3335175,
51.198,5.4266093,
48.288,6.1986117,
45.377,15.342527,
42.466,17.476123,
39.556,14.779644,
36.645,12.673074,
33.735,15.240491,
30.824,17.241452,
27.914,14.436751,
25.003,14.747637,
22.092,19.645664,
19.182,30.429323,
16.271,70.300261,
13.361,292.21795,
10.450,734.49662,
7.539,1660.4628,
4.629,2398.8623,
1.718,2646.1763,
-1.192,1932.3003,
-4.103,1102.1989,
-7.013,435.71906,
-9.924,2.125,
