,PL3A49~1,
Wavenumbers [1/cm],Intensity,
3014.167,-2.25,
3011.256,0.75,
3008.346,57.389066,
3005.435,50.636929,
3002.525,61.75,
2999.614,66.216263,
2996.704,74.89124,
2993.793,72.13076,
2990.882,69.444647,
2987.972,83.684415,
2985.061,77.400255,
2982.151,77.823943,
2979.240,76.814626,
2976.329,99.771841,
2973.419,85.918676,
2970.508,109.98333,
2967.598,88.371285,
2964.687,98.362093,
2961.777,97.561984,
2958.866,116.08729,
2955.955,111.50885,
2953.045,119.11689,
2950.134,122.56925,
2947.224,107.12009,
2944.313,124.69373,
2941.403,128.14279,
2938.492,133.73915,
2935.581,125.22853,
2932.671,138.50965,
2929.760,135.68077,
2926.850,125.27256,
2923.939,133.46492,
2921.028,152.29119,
2918.118,151.76889,
2915.207,145.10446,
2912.297,144.75846,
2909.386,137.37773,
2906.476,137.4635,
2903.565,141.02482,
2900.654,126.4679,
2897.744,148.61171,
2894.833,142.286,
2891.923,147.1282,
2889.012,134.32804,
2886.102,145.10541,
2883.191,125.76416,
2880.280,182.92703,
2877.370,133.73272,
2874.459,90.165049,
2871.549,88.407965,
2868.638,115.66132,
2865.727,143.85004,
2862.817,141.32218,
2859.906,142.80128,
2856.996,156.75906,
2854.085,166.1933,
2851.175,153.12954,
2848.264,151.5295,
2845.353,136.98724,
2842.443,150.94443,
2839.532,151.09331,
2836.622,148.11523,
2833.711,157.32771,
2830.801,164.14559,
2827.890,163.20804,
2824.979,157.89803,
2822.069,158.81823,
2819.158,158.66913,
2816.248,155.47395,
2813.337,175.68782,
2810.427,162.26514,
2807.516,157.75735,
2804.605,160.56731,
2801.695,164.31579,
2798.784,167.52823,
2795.874,166.16951,
2792.963,156.74957,
2790.052,175.74378,
2787.142,175.01323,
2784.231,171.39598,
2781.321,157.00144,
2778.410,159.50508,
2775.500,163.11103,
2772.589,168.75,
2769.678,168.28584,
2766.768,176.67817,
2763.857,162.48796,
2760.947,171.24685,
2758.036,180.06853,
2755.126,188.17949,
2752.215,189.47277,
2749.304,189.2608,
2746.394,173.83059,
2743.483,183.40004,
2740.573,175.75,
2737.662,177.97337,
2734.751,179.30824,
2731.841,180.64194,
2728.930,166.30086,
2726.020,179.76563,
2723.109,174.90492,
2720.199,191.75,
2717.288,191.2062,
2714.377,196.84574,
2711.467,199.38956,
2708.556,184.01611,
2705.646,184.66551,
2702.735,196.91237,
2699.825,185.9027,
2696.914,202.22685,
2694.003,206.26382,
2691.093,203.05326,
2688.182,196.27741,
2685.272,188.86522,
2682.361,197.41485,
2679.450,194.9969,
2676.540,185.97356,
2673.629,187.79041,
2670.719,193.51619,
2667.808,196.28499,
2664.898,215.20428,
2661.987,222.24983,
2659.076,217.49569,
2656.166,201.44269,
2653.255,204.70749,
2650.345,204.85345,
2647.434,212.40704,
2644.524,208.36391,
2641.613,215.97879,
2638.702,202.03406,
2635.792,223.99926,
2632.881,219.93469,
2629.971,211.00502,
2627.060,221.58219,
2624.149,223.40001,
2621.239,223.0163,
2618.328,201.91955,
2615.418,208.73637,
2612.507,217.2322,
2609.597,225.10729,
2606.686,218.84038,
2603.775,227.10714,
2600.865,224.63057,
2597.954,226.0854,
2595.044,230.76771,
2592.133,229.19588,
2589.223,230.75,
2586.312,235.0917,
2583.401,233.15875,
2580.491,233.10576,
2577.580,226.74505,
2574.670,226.51737,
2571.759,238.70462,
2568.848,255.92134,
2565.938,239.89292,
2563.027,230.28637,
2560.117,235.37618,
2557.206,240.65406,
2554.296,254.92162,
2551.385,253.55998,
2548.474,266.93551,
2545.564,253.41477,
2542.653,262.53858,
2539.743,267.42868,
2536.832,242.17803,
2533.922,261.76577,
2531.011,266.87465,
2528.100,260.69071,
2525.190,264.72377,
2522.279,270.8438,
2519.369,267.31637,
2516.458,251.97026,
2513.548,261.07711,
2510.637,269.30334,
2507.726,271.8169,
2504.816,270.56398,
2501.905,279.75,
2498.995,266.16803,
2496.084,274.89635,
2493.173,271.46026,
2490.263,272.72741,
2487.352,268.54133,
2484.442,267.45234,
2481.531,278.32977,
2478.621,274.37557,
2475.710,281.71166,
2472.799,279.70961,
2469.889,286.81094,
2466.978,294.13135,
2464.068,290.0886,
2461.157,275.75,
2458.247,286.83836,
2455.336,294.49559,
2452.425,294.31604,
2449.515,306.52338,
2446.604,295.98734,
2443.694,291.00575,
2440.783,308.37275,
2437.872,292.85939,
2434.962,292.8606,
2432.051,294.0156,
2429.141,300.90298,
2426.230,318.44618,
2423.320,302.67807,
2420.409,306.7311,
2417.498,297.29778,
2414.588,295.03524,
2411.677,293.46717,
2408.767,316.03838,
2405.856,331.37854,
2402.946,302.15394,
2400.035,299.23593,
2397.124,326.49333,
2394.214,310.15759,
2391.303,327.60637,
2388.393,319.03138,
2385.482,287.11592,
2382.571,300.73719,
2379.661,300.16871,
2376.750,303.48391,
2373.840,320.59371,
2370.929,333.63087,
2368.019,329.5936,
2365.108,329.09817,
2362.197,338.13905,
2359.287,346.13663,
2356.376,344.75528,
2353.466,338.3716,
2350.555,334.33006,
2347.645,340.30231,
2344.734,337.23386,
2341.823,338.70025,
2338.913,360.48729,
2336.002,348.1662,
2333.092,355.11792,
2330.181,351.50447,
2327.270,347.02503,
2324.360,346.48114,
2321.449,348.62756,
2318.539,369.51761,
2315.628,365.70883,
2312.718,356.10022,
2309.807,368.97964,
2306.896,382.22261,
2303.986,360.87328,
2301.075,362.7925,
2298.165,379.13473,
2295.254,369.00852,
2292.344,385.48861,
2289.433,368.67272,
2286.522,369.79894,
2283.612,394.58036,
2280.701,374.2478,
2277.791,387.18895,
2274.880,373.964,
2271.969,381.71297,
2269.059,392.19142,
2266.148,380.80676,
2263.238,383.04729,
2260.327,384.09487,
2257.417,388.27556,
2254.506,387.15456,
2251.595,391.74634,
2248.685,401.37882,
2245.774,399.24458,
2242.864,399.39837,
2239.953,409.66033,
2237.043,411.19143,
2234.132,402.69289,
2231.221,404.85598,
2228.311,413.83891,
2225.400,426.86258,
2222.490,427.03656,
2219.579,419.2976,
2216.669,435.25238,
2213.758,419.74737,
2210.847,426.2588,
2207.937,432.62785,
2205.026,458.86166,
2202.116,442.43896,
2199.205,440.39988,
2196.294,451.17998,
2193.384,452.77649,
2190.473,440.45422,
2187.563,456.83217,
2184.652,475.40673,
2181.742,477.9537,
2178.831,469.66443,
2175.920,475.08697,
2173.010,505.10261,
2170.099,503.88492,
2167.189,503.73565,
2164.278,504.09774,
2161.368,520.89248,
2158.457,530.02088,
2155.546,546.32503,
2152.636,534.75538,
2149.725,563.86406,
2146.815,568.85011,
2143.904,558.85408,
2140.993,566.42199,
2138.083,569.69219,
2135.172,596.68283,
2132.262,587.85123,
2129.351,584.54659,
2126.441,582.33251,
2123.530,596.66021,
2120.619,585.17217,
2117.709,562.22262,
2114.798,549.87295,
2111.888,535.31239,
2108.977,542.20033,
2106.067,520.48191,
2103.156,518.90885,
2100.245,482.75376,
2097.335,491.76047,
2094.424,508.48431,
2091.514,487.45964,
2088.603,478.8007,
2085.692,493.70901,
2082.782,487.78625,
2079.871,507.85851,
2076.961,481.01023,
2074.050,518.36212,
2071.140,508.49731,
2068.229,497.29427,
2065.318,503.72576,
2062.408,518.15166,
2059.497,517.5357,
2056.587,512.75,
2053.676,520.91617,
2050.766,524.59604,
2047.855,468.03479,
2044.944,482.93749,
2042.034,512.01005,
2039.123,498.45034,
2036.213,502.19222,
2033.302,520.14104,
2030.391,521.22494,
2027.481,507.79884,
2024.570,491.42181,
2021.660,490.63174,
2018.749,525.06617,
2015.839,506.94291,
2012.928,503.1292,
2010.017,508.07465,
2007.107,504.56308,
2004.196,505.40478,
2001.286,523.83478,
1998.375,528.96653,
1995.465,501.79197,
1992.554,478.97367,
1989.643,491.23154,
1986.733,465.01754,
1983.822,473.13552,
1980.912,493.29452,
1978.001,488.61456,
1975.090,481.75,
1972.180,488.50797,
1969.269,484.99422,
1966.359,473.50671,
1963.448,500.2401,
1960.538,481.53565,
1957.627,467.61687,
1954.716,472.57764,
1951.806,456.94227,
1948.895,474.13875,
1945.985,445.96242,
1943.074,472.00852,
1940.164,443.15399,
1937.253,444.41978,
1934.342,436.29706,
1931.432,460.22319,
1928.521,463.35967,
1925.611,460.63309,
1922.700,450.66989,
1919.790,423.63467,
1916.879,462.54152,
1913.968,432.79058,
1911.058,482.03227,
1908.147,457.61715,
1905.237,451.19114,
1902.326,426.64037,
1899.415,422.0622,
1896.505,405.56302,
1893.594,386.65248,
1890.684,412.14207,
1887.773,418.55186,
1884.863,426.23064,
1881.952,455.06978,
1879.041,457.1851,
1876.131,445.79183,
1873.220,441.13495,
1870.310,453.74549,
1867.399,461.63804,
1864.489,422.17838,
1861.578,436.29918,
1858.667,464.29495,
1855.757,430.93496,
1852.846,447.75,
1849.936,439.28555,
1847.025,421.16119,
1844.114,443.86772,
1841.204,470.59266,
1838.293,460.26081,
1835.383,454.843,
1832.472,472.35522,
1829.562,476.08437,
1826.651,460.12578,
1823.740,475.86115,
1820.830,462.14351,
1817.919,484.25318,
1815.009,476.19402,
1812.098,453.10434,
1809.188,497.64912,
1806.277,497.8164,
1803.366,508.1511,
1800.456,474.72846,
1797.545,510.2251,
1794.635,522.16996,
1791.724,503.26458,
1788.813,499.35463,
1785.903,509.99809,
1782.992,496.94523,
1780.082,484.80834,
1777.171,421.72856,
1774.261,364.01545,
1771.350,428.86951,
1768.439,497.26463,
1765.529,538.93242,
1762.618,539.36812,
1759.708,517.35851,
1756.797,525.56818,
1753.887,543.80102,
1750.976,549.00523,
1748.065,546.14785,
1745.155,575.24008,
1742.244,560.98103,
1739.334,537.58765,
1736.423,547.46774,
1733.512,555.66058,
1730.602,592.65481,
1727.691,602.44702,
1724.781,584.44532,
1721.870,570.0928,
1718.960,625.30625,
1716.049,586.57254,
1713.138,615.22481,
1710.228,623.49059,
1707.317,565.36829,
1704.407,611.65383,
1701.496,631.42322,
1698.586,639.21789,
1695.675,663.14272,
1692.764,625.93441,
1689.854,617.05315,
1686.943,628.34529,
1684.033,649.22844,
1681.122,637.95391,
1678.211,670.43593,
1675.301,672.74383,
1672.390,661.77393,
1669.480,669.84626,
1666.569,682.61332,
1663.659,749.53768,
1660.748,736.36436,
1657.837,717.6904,
1654.927,760.45287,
1652.016,789.33692,
1649.106,772.55415,
1646.195,765.90087,
1643.285,813.41081,
1640.374,841.54094,
1637.463,832.21838,
1634.553,859.18345,
1631.642,954.92373,
1628.732,970.84481,
1625.821,986.77682,
1622.911,1027.519,
1620.000,1065.2712,
1617.089,1113.7749,
1614.179,1181.8041,
1611.268,1306.0284,
1608.358,1310.75,
1605.447,1353.1789,
1602.536,1338.976,
1599.626,1456.4213,
1596.715,1463.1196,
1593.805,1429.6597,
1590.894,1412.5399,
1587.984,1465.3138,
1585.073,1426.1043,
1582.162,1386.0243,
1579.252,1360.1108,
1576.341,1326.1107,
1573.431,1292.9053,
1570.520,1262.8187,
1567.610,1268.4169,
1564.699,1262.5996,
1561.788,1251.0036,
1558.878,1204.7359,
1555.967,1186.732,
1553.057,1163.5089,
1550.146,1137.4591,
1547.235,1130.9307,
1544.325,1137.4053,
1541.414,1148.7707,
1538.504,1134.7117,
1535.593,1117.2107,
1532.683,1129.7755,
1529.772,1135.4189,
1526.861,1127.7616,
1523.951,1150.1315,
1521.040,1179.6669,
1518.130,1194.3147,
1515.219,1230.2307,
1512.309,1196.5833,
1509.398,1169.6093,
1506.487,1165.3252,
1503.577,1140.1263,
1500.666,1184.4969,
1497.756,1152.0468,
1494.845,1166.1091,
1491.934,1126.539,
1489.024,1062.052,
1486.113,1094.057,
1483.203,1088.7565,
1480.292,1035.9908,
1477.382,1101.9171,
1474.471,1011.5496,
1471.560,989.63499,
1468.650,969.15215,
1465.739,975.68372,
1462.829,1003.6545,
1459.918,1021.8274,
1457.008,1040.4579,
1454.097,1026.4827,
1451.186,995.16586,
1448.276,962.1738,
1445.365,895.74842,
1442.455,869.64369,
1439.544,855.90988,
1436.633,863.43819,
1433.723,818.73793,
1430.812,847.34106,
1427.902,855.20099,
1424.991,874.15624,
1422.081,838.05092,
1419.170,864.12805,
1416.259,805.56508,
1413.349,817.93868,
1410.438,852.64185,
1407.528,865.68123,
1404.617,839.7421,
1401.707,807.50149,
1398.796,767.4284,
1395.885,770.06131,
1392.975,780.85259,
1390.064,732.64595,
1387.154,765.4591,
1384.243,709.26734,
1381.332,716.28728,
1378.422,749.9,
1375.511,694.62993,
1372.601,747.20108,
1369.690,771.46612,
1366.780,794.55088,
1363.869,826.62965,
1360.958,843.35216,
1358.048,876.41559,
1355.137,917.25168,
1352.227,938.95263,
1349.316,959.85847,
1346.406,998.88386,
1343.495,1019.02,
1340.584,1017.2846,
1337.674,1092.7164,
1334.763,1126.0676,
1331.853,1134.4126,
1328.942,1151.6498,
1326.032,1164.3531,
1323.121,1151.9307,
1320.210,1182.7097,
1317.300,1225.5397,
1314.389,1254.5697,
1311.479,1270.9927,
1308.568,1280.6235,
1305.657,1292.493,
1302.747,1326.734,
1299.836,1397.1898,
1296.926,1422.8182,
1294.015,1445.8013,
1291.105,1455.5554,
1288.194,1508.6683,
1285.283,1528.194,
1282.373,1532.6484,
1279.462,1546.3772,
1276.552,1586.0178,
1273.641,1600.3901,
1270.731,1566.1037,
1267.820,1560.3732,
1264.909,1562.8709,
1261.999,1562.2188,
1259.088,1520.2612,
1256.178,1557.147,
1253.267,1543.0357,
1250.356,1533.3637,
1247.446,1523.5358,
1244.535,1504.3706,
1241.625,1490.3463,
1238.714,1493.175,
1235.804,1500.0947,
1232.893,1496.5019,
1229.982,1486.7688,
1227.072,1457.7988,
1224.161,1463.3145,
1221.251,1454.3269,
1218.340,1424.8375,
1215.430,1407.9973,
1212.519,1406.2028,
1209.608,1392.2206,
1206.698,1369.0692,
1203.787,1385.9158,
1200.877,1422.5769,
1197.966,1387.5097,
1195.055,1421.5864,
1192.145,1466.0685,
1189.234,1542.3317,
1186.324,1618.754,
1183.413,1662.5825,
1180.503,1687.5775,
1177.592,1697.0931,
1174.681,1639.5103,
1171.771,1644.7912,
1168.860,1646.5774,
1165.950,1614.4984,
1163.039,1615.8292,
1160.129,1598.5152,
1157.218,1598.6528,
1154.307,1628.1069,
1151.397,1640.5835,
1148.486,1623.7385,
1145.576,1691.3645,
1142.665,1682.4854,
1139.754,1662.2229,
1136.844,1637.4412,
1133.933,1632.8555,
1131.023,1617.8104,
1128.112,1595.9645,
1125.202,1588.8853,
1122.291,1580.0088,
1119.380,1602.6287,
1116.470,1590.2733,
1113.559,1550.0875,
1110.649,1547.9178,
1107.738,1568.8245,
1104.828,1567.3543,
1101.917,1536.578,
1099.006,1523.1622,
1096.096,1559.6861,
1093.185,1509.6399,
1090.275,1568.8731,
1087.364,1581.0055,
1084.453,1593.2491,
1081.543,1597.1767,
1078.632,1600.9724,
1075.722,1632.4515,
1072.811,1649.7094,
1069.901,1606.9197,
1066.990,1591.625,
1064.079,1606.4434,
1061.169,1604.2563,
1058.258,1583.8924,
1055.348,1578.6265,
1052.437,1593.5988,
1049.527,1538.3948,
1046.616,1580.9674,
1043.705,1598.853,
1040.795,1604.6655,
1037.884,1613.8418,
1034.974,1603.8737,
1032.063,1581.3805,
1029.153,1607.1002,
1026.242,1618.3446,
1023.331,1600.4178,
1020.421,1619.7543,
1017.510,1626.3883,
1014.600,1641.936,
1011.689,1659.0531,
1008.778,1646.9339,
1005.868,1688.7886,
1002.957,1693.0904,
1000.047,1706.854,
997.136,1745.8149,
994.226,1782.6883,
991.315,1790.5297,
988.404,1763.8056,
985.494,1722.213,
982.583,1698.2294,
979.673,1681.5804,
976.762,1675.5758,
973.852,1674.75,
970.941,1673.8609,
968.030,1674.0044,
965.120,1686.929,
962.209,1729.5561,
959.299,1716.2108,
956.388,1713.9096,
953.477,1721.6272,
950.567,1736.4684,
947.656,1767.1956,
944.746,1770.5939,
941.835,1760.2224,
938.925,1791.9686,
936.014,1786.9878,
933.103,1767.9278,
930.193,1766.359,
927.282,1736.4292,
924.372,1730.51,
921.461,1736.3776,
918.551,1717.2555,
915.640,1701.75,
912.729,1706.3121,
909.819,1715.9699,
906.908,1694.9093,
903.998,1703.2944,
901.087,1694.9294,
898.176,1686.8412,
895.266,1707.2853,
892.355,1747.4258,
889.445,1702.9447,
886.534,1721.1172,
883.624,1761.7558,
880.713,1778.7293,
877.802,1770.4548,
874.892,1741.6746,
871.981,1670.8439,
869.071,1505.4321,
866.160,1481.5797,
863.250,1603.2682,
860.339,1714.2558,
857.428,1729.8459,
854.518,1774.9928,
851.607,1714.2517,
848.697,1697.5596,
845.786,1659.9793,
842.875,1652.9175,
839.965,1715.9155,
837.054,1789.8896,
834.144,1802.3208,
831.233,1853.4131,
828.323,1861.9237,
825.412,1855.4089,
822.501,1868.0051,
819.591,1825.0324,
816.680,1836.5705,
813.770,1825.9669,
810.859,1787.9681,
807.949,1766.3574,
805.038,1803.3562,
802.127,1791.8324,
799.217,1749.0081,
796.306,1746.669,
793.396,1770.544,
790.485,1790.1701,
787.574,1777.8087,
784.664,1805.6925,
781.753,1834.9054,
778.843,1843.8095,
775.932,1835.5032,
773.022,1828.6951,
770.111,1860.5807,
767.200,1871.1244,
764.290,1858.1473,
761.379,1838.0849,
758.469,1825.5871,
755.558,1829.4794,
752.648,1853.9175,
749.737,1848.3054,
746.826,1827.3647,
743.916,1811.9838,
741.005,1820.5929,
738.095,1845.761,
735.184,1807.9916,
732.274,1772.2918,
729.363,1757.1036,
726.452,1759.9959,
723.542,1750.2831,
720.631,1807.0904,
717.721,1821.8858,
714.810,1839.1646,
711.899,1872.6312,
708.989,1880.7004,
706.078,1879.9487,
703.168,1859.7117,
700.257,1846.3374,
697.347,1849.0105,
694.436,1860.0081,
691.525,1832.6787,
688.615,1821.0898,
685.704,1827.2473,
682.794,1848.4095,
679.883,1877.579,
676.973,1896.0105,
674.062,1899.1119,
671.151,1874.6418,
668.241,1848.515,
665.330,1864.4307,
662.420,1878.8079,
659.509,1870.3212,
656.598,1890.5805,
653.688,1928.9706,
650.777,1939.615,
647.867,1935.6333,
644.956,1977.4714,
642.046,1929.5369,
639.135,1827.4749,
636.224,1838.0046,
633.314,1888.8167,
630.403,1915.9391,
627.493,1921.5252,
624.582,1908.0403,
621.672,1877.9445,
618.761,1879.7898,
615.850,1928.6859,
612.940,1982.0945,
610.029,2009.0924,
607.119,2005.1442,
604.208,1996.2298,
601.297,1993.747,
598.387,1988.4441,
595.476,1969.9274,
592.566,1940.0188,
589.655,1962.6093,
586.745,1972.1084,
583.834,1962.7737,
580.923,1955.7216,
578.013,1951.0132,
575.102,1976.1351,
572.192,2012.5424,
569.281,2041.0628,
566.371,2031.6713,
563.460,2017.3461,
560.549,2013.2118,
557.639,2036.5036,
554.728,2092.4488,
551.818,2040.1676,
548.907,2018.9994,
545.996,2032.9671,
543.086,2054.5165,
540.175,2007.0191,
537.265,2026.9269,
534.354,2030.2314,
531.444,2023.914,
528.533,2021.75,
525.622,2021.75,
522.712,2004.1542,
519.801,1986.258,
516.891,1981.5407,
513.980,2010.1896,
511.070,2009.9326,
508.159,2024.0321,
505.248,2020.721,
502.338,1962.1733,
499.427,2010.7987,
496.517,1998.8611,
493.606,1995.2286,
490.695,2023.5033,
487.785,2007.3377,
484.874,2002.1651,
481.964,1991.6139,
479.053,1980.4047,
476.143,1987.3164,
473.232,1979.8366,
470.321,1986.4815,
467.411,1992.1913,
464.500,1978.6724,
461.590,1975.6095,
458.679,2014.9215,
455.769,2028.216,
452.858,1990.2835,
449.947,2033.8276,
447.037,2035.4689,
444.126,2033.7076,
441.216,2036.2365,
438.305,2021.7598,
435.395,2019.75,
432.484,2018.9165,
429.573,2015.7975,
426.663,2007.4359,
423.752,1879.8197,
420.842,1714.232,
417.931,1563.7887,
415.020,1497.0532,
412.110,1705.4546,
409.199,1926.0261,
406.289,2060.2533,
403.378,2012.54,
400.468,1950.5484,
397.557,1960.0565,
394.646,2001.756,
391.736,2040.8365,
388.825,2074.7769,
385.915,2073.5739,
383.004,2064.0355,
380.094,2064.7116,
377.183,2063.9591,
374.272,2057.2366,
371.362,2064.4061,
368.451,2092.3337,
365.541,2052.5553,
362.630,2080.5331,
359.719,2109.4944,
356.809,2099.7111,
353.898,2066.0152,
350.988,2079.5344,
348.077,2090.909,
345.167,2068.7605,
342.256,2009.7421,
339.345,2039.5161,
336.435,2077.6965,
333.524,2069.6326,
330.614,2065.9068,
327.703,2075.5315,
324.793,2099.9285,
321.882,2140.7212,
318.971,2128.8261,
316.061,2140.3761,
313.150,2166.9119,
310.240,2199.565,
307.329,2256.4917,
304.418,2286.5012,
301.508,2297.5223,
298.597,2304.1861,
295.687,2256.6659,
292.776,2267.5002,
289.866,2325.337,
286.955,2375.5703,
284.044,2417.5375,
281.134,2485.8874,
278.223,2563.0076,
275.313,2530.586,
272.402,2546.4052,
269.492,2584.296,
266.581,2626.4408,
263.670,2566.1561,
260.760,2573.302,
257.849,2622.4392,
254.939,2698.763,
252.028,2683.8254,
249.117,2656.2791,
246.207,2643.8193,
243.296,2694.3299,
240.386,2687.9961,
237.475,2687.897,
234.565,2691.1931,
231.654,2649.5612,
228.743,2651.682,
225.833,2646.6395,
222.922,2614.202,
220.012,2559.5603,
217.101,2557.9436,
214.191,2569.5046,
211.280,2552.0454,
208.369,2546.7131,
205.459,2506.8212,
202.548,2454.6386,
199.638,2482.9389,
196.727,2496.817,
193.816,2502.449,
190.906,2498.1439,
187.995,2395.3324,
185.085,2374.8814,
182.174,2389.5953,
179.264,2381.6449,
176.353,2336.5363,
173.442,2350.9062,
170.532,2408.9971,
167.621,2316.7122,
164.711,2255.4858,
161.800,2164.7496,
158.890,1994.8938,
155.979,1862.1324,
153.068,1719.9926,
150.158,1554.6856,
147.247,1319.1973,
144.337,1098.9006,
141.426,868.45048,
138.516,614.67098,
135.605,451.04707,
132.694,318.21101,
129.784,213.11618,
126.873,138.02754,
123.963,99.418125,
121.052,67.868828,
118.141,32.88763,
115.231,34.881711,
112.320,30.242733,
109.410,22.886355,
106.499,23.59851,
103.589,11.984656,
100.678,5.466217,
97.767,12.575593,
94.857,14.828967,
91.946,14.540667,
89.036,12.411306,
86.125,10.28369,
83.215,12.404602,
80.304,9.7219136,
77.393,-5.1496551,
74.483,3.5770244,
71.572,9.8370563,
68.662,11.265128,
65.751,6.31997,
62.840,7.6402119,
59.930,9.0644242,
57.019,2.7186863,
54.109,-1.8329651,
51.198,-3.6467814,
48.288,-2.1877131,
45.377,5.5494456,
42.466,4.6278066,
39.556,-0.2139328,
36.645,6.1057791,
33.735,3.5960123,
30.824,-1.5753218,
27.914,-5.7823733,
25.003,-10.608462,
22.092,-10.020954,
19.182,-3.25,
16.271,-3.25,
13.361,-15.893739,
10.450,-90.580515,
7.539,-423.67694,
4.629,-865.48158,
1.718,-1258.5464,
-1.192,-1455.1412,
-4.103,-1108.3563,
-7.013,-604.05456,
-9.924,0.75,
