,PLB961~1,
Raman shift [1/cm],Intensity,
3014.167,-0.5,
3011.256,1.7000429,
3008.346,342.03149,
3005.435,393.15017,
3002.525,411.16275,
2999.614,418.87664,
2996.704,442.17319,
2993.793,445.75691,
2990.882,456.88159,
2987.972,448.7472,
2985.061,487.74629,
2982.151,475.5,
2979.240,511.29847,
2976.329,513.48908,
2973.419,527.33004,
2970.508,565.51662,
2967.598,532.22048,
2964.687,574.1413,
2961.777,587.02996,
2958.866,585.15231,
2955.955,609.81194,
2953.045,609.71926,
2950.134,633.35132,
2947.224,653.92703,
2944.313,672.9943,
2941.403,655.03513,
2938.492,690.05284,
2935.581,672.34419,
2932.671,685.89913,
2929.760,682.56923,
2926.850,714.77556,
2923.939,726.90188,
2921.028,709.71166,
2918.118,721.48111,
2915.207,723.43662,
2912.297,719.49577,
2909.386,738.95254,
2906.476,736.31464,
2903.565,748.40371,
2900.654,733.15926,
2897.744,738.12283,
2894.833,717.572,
2891.923,719.1474,
2889.012,736.75433,
2886.102,717.06352,
2883.191,731.48301,
2880.280,711.23683,
2877.370,686.06976,
2874.459,682.55663,
2871.549,709.56606,
2868.638,754.18451,
2865.727,738.29992,
2862.817,776.14305,
2859.906,761.75356,
2856.996,781.45471,
2854.085,785.33822,
2851.175,778.92772,
2848.264,786.059,
2845.353,806.83142,
2842.443,779.29513,
2839.532,795.14172,
2836.622,780.70769,
2833.711,766.86265,
2830.801,772.60074,
2827.890,778.81647,
2824.979,798.5,
2822.069,798.62509,
2819.158,808.35984,
2816.248,800.52316,
2813.337,794.37681,
2810.427,823.8967,
2807.516,816.18344,
2804.605,844.10094,
2801.695,813.7237,
2798.784,803.68277,
2795.874,833.96179,
2792.963,815.35745,
2790.052,812.50214,
2787.142,817.92108,
2784.231,807.0171,
2781.321,821.31718,
2778.410,824.37057,
2775.500,831.41241,
2772.589,827.03975,
2769.678,848.35665,
2766.768,835.89027,
2763.857,855.18594,
2760.947,870.00315,
2758.036,862.87575,
2755.126,882.07051,
2752.215,880.2454,
2749.304,868.64929,
2746.394,887.61691,
2743.483,887.25003,
2740.573,884.93586,
2737.662,890.92604,
2734.751,884.64068,
2731.841,890.39194,
2728.930,905.5,
2726.020,896.60185,
2723.109,873.5415,
2720.199,905.12818,
2717.288,910.0949,
2714.377,905.82524,
2711.467,917.84396,
2708.556,939.31895,
2705.646,927.9084,
2702.735,931.01805,
2699.825,946.05454,
2696.914,953.21456,
2694.003,934.6382,
2691.093,958.33876,
2688.182,937.62667,
2685.272,953.65932,
2682.361,952.74127,
2679.450,962.65632,
2676.540,945.33741,
2673.629,946.12776,
2670.719,961.57301,
2667.808,970.01364,
2664.898,974.47373,
2661.987,993.76671,
2659.076,1010.3384,
2656.166,1008.1278,
2653.255,1000.2007,
2650.345,1021.0445,
2647.434,1029.3854,
2644.524,1018.6583,
2641.613,1018.4428,
2638.702,1056.8688,
2635.792,1059.6914,
2632.881,1026.0358,
2629.971,1051.4196,
2627.060,1041.8313,
2624.149,1039.6657,
2621.239,1034.7841,
2618.328,1042.4325,
2615.418,1068.4773,
2612.507,1070.4328,
2609.597,1062.7754,
2606.686,1088.5,
2603.775,1082.7381,
2600.865,1079.558,
2597.954,1102.3563,
2595.044,1104.1253,
2592.133,1109.8312,
2589.223,1126.2232,
2586.312,1101.7462,
2583.401,1115.7044,
2580.491,1112.774,
2577.580,1100.505,
2574.670,1102.6698,
2571.759,1112.6113,
2568.848,1113.4447,
2565.938,1129.4049,
2563.027,1126.3317,
2560.117,1157.4065,
2557.206,1150.3635,
2554.296,1146.5297,
2551.385,1163.7641,
2548.474,1179.5,
2545.564,1153.3547,
2542.653,1175.6577,
2539.743,1171.5986,
2536.832,1172.5617,
2533.922,1204.1846,
2531.011,1186.1499,
2528.100,1195.831,
2525.190,1187.8508,
2522.279,1207.9372,
2519.369,1203.1411,
2516.458,1221.2797,
2513.548,1187.9005,
2510.637,1207.1148,
2507.726,1211.816,
2504.816,1185.748,
2501.905,1208.3982,
2498.995,1238.0972,
2496.084,1251.1795,
2493.173,1250.6576,
2490.263,1233.1294,
2487.352,1251.9173,
2484.442,1265.2023,
2481.531,1273.4468,
2478.621,1260.9834,
2475.710,1298.4463,
2472.799,1287.0606,
2469.889,1285.6191,
2466.978,1275.4074,
2464.068,1288.5265,
2461.157,1280.3075,
2458.247,1290.5884,
2455.336,1329.2417,
2452.425,1319.2122,
2449.515,1308.0198,
2446.604,1339.7443,
2443.694,1333.6398,
2440.783,1355.6937,
2437.872,1351.2083,
2434.962,1342.712,
2432.051,1353.6669,
2429.141,1365.3647,
2426.230,1393.4791,
2423.320,1351.3135,
2420.409,1386.6602,
2417.498,1392.3034,
2414.588,1371.0628,
2411.677,1395.3566,
2408.767,1391.753,
2405.856,1402.3499,
2402.946,1415.5536,
2400.035,1411.1056,
2397.124,1413.8476,
2394.214,1427.0952,
2391.303,1441.6104,
2388.393,1442.7814,
2385.482,1434.7644,
2382.571,1424.0064,
2379.661,1434.1509,
2376.750,1453.7636,
2373.840,1457.9906,
2370.929,1481.2617,
2368.019,1495.0308,
2365.108,1487.6152,
2362.197,1512.8343,
2359.287,1534.4749,
2356.376,1503.5599,
2353.466,1530.9828,
2350.555,1538.1942,
2347.645,1514.341,
2344.734,1526.4401,
2341.823,1525.5332,
2338.913,1527.0328,
2336.002,1530.9832,
2333.092,1547.5802,
2330.181,1575.0984,
2327.270,1562.5451,
2324.360,1556.3396,
2321.449,1590.4082,
2318.539,1607.2248,
2315.628,1620.9872,
2312.718,1599.5352,
2309.807,1590.891,
2306.896,1619.4687,
2303.986,1610.9806,
2301.075,1605.6277,
2298.165,1600.2981,
2295.254,1624.9614,
2292.344,1622.6619,
2289.433,1623.9596,
2286.522,1661.6339,
2283.612,1668.5702,
2280.701,1674.6928,
2277.791,1672.2213,
2274.880,1698.7018,
2271.969,1724.7634,
2269.059,1695.7425,
2266.148,1722.6252,
2263.238,1743.7973,
2260.327,1752.8446,
2257.417,1737.1422,
2254.506,1765.3775,
2251.595,1755.5183,
2248.685,1763.3326,
2245.774,1799.4336,
2242.864,1771.288,
2239.953,1805.5829,
2237.043,1799.1375,
2234.132,1805.0819,
2231.221,1817.3709,
2228.311,1837.9381,
2225.400,1843.8659,
2222.490,1862.2558,
2219.579,1881.0038,
2216.669,1884.4237,
2213.758,1927.2438,
2210.847,1929.4093,
2207.937,1981.1791,
2205.026,2008.2775,
2202.116,2028.6592,
2199.205,2070.9748,
2196.294,2108.2199,
2193.384,2153.6835,
2190.473,2188.0974,
2187.563,2244.6643,
2184.652,2287.3861,
2181.742,2344.2963,
2178.831,2377.6479,
2175.920,2436.2213,
2173.010,2503.1032,
2170.099,2504.6349,
2167.189,2570.2893,
2164.278,2688.4508,
2161.368,2756.7837,
2158.457,2833.0847,
2155.546,2940.3607,
2152.636,3029.702,
2149.725,3105.0906,
2146.815,3179.331,
2143.904,3217.3252,
2140.993,3285.0184,
2138.083,3297.0168,
2135.172,3288.4328,
2132.262,3300.8812,
2129.351,3252.9031,
2126.441,3176.4221,
2123.530,3036.748,
2120.619,2956.6015,
2117.709,2847.3502,
2114.798,2740.8264,
2111.888,2622.8396,
2108.977,2527.9106,
2106.067,2429.7292,
2103.156,2370.5469,
2100.245,2319.4523,
2097.335,2239.767,
2094.424,2211.782,
2091.514,2200.9193,
2088.603,2169.8365,
2085.692,2156.6375,
2082.782,2164.4478,
2079.871,2158.2853,
2076.961,2147.1458,
2074.050,2142.2273,
2071.140,2159.7181,
2068.229,2160.7162,
2065.318,2123.4758,
2062.408,2160.5537,
2059.497,2170.6607,
2056.587,2143.3142,
2053.676,2126.0674,
2050.766,2137.3453,
2047.855,2130.8417,
2044.944,2136.6475,
2042.034,2105.6099,
2039.123,2136.6616,
2036.213,2160.46,
2033.302,2157.4567,
2030.391,2176.7704,
2027.481,2168.2076,
2024.570,2162.0285,
2021.660,2173.7904,
2018.749,2191.386,
2015.839,2189.4416,
2012.928,2201.4765,
2010.017,2221.5,
2007.107,2216.4757,
2004.196,2200.2857,
2001.286,2193.917,
1998.375,2204.5463,
1995.465,2221.0857,
1992.554,2221.8706,
1989.643,2200.2604,
1986.733,2171.7307,
1983.822,2190.3966,
1980.912,2171.2723,
1978.001,2174.5761,
1975.090,2183.1015,
1972.180,2211.4627,
1969.269,2198.9108,
1966.359,2198.5815,
1963.448,2228.1882,
1960.538,2219.5158,
1957.627,2233.4412,
1954.716,2213.1607,
1951.806,2222.8542,
1948.895,2206.5466,
1945.985,2187.0572,
1943.074,2215.3782,
1940.164,2209.6538,
1937.253,2189.0047,
1934.342,2201.7823,
1931.432,2225.2634,
1928.521,2223.0458,
1925.611,2175.046,
1922.700,2211.692,
1919.790,2186.0207,
1916.879,2193.4538,
1913.968,2175.5234,
1911.058,2258.6321,
1908.147,2255.7175,
1905.237,2226.4853,
1902.326,2227.9074,
1899.415,2212.1244,
1896.505,2228.0724,
1893.594,2251.7683,
1890.684,2272.3757,
1887.773,2255.199,
1884.863,2265.7528,
1881.952,2262.5752,
1879.041,2233.8313,
1876.131,2290.2072,
1873.220,2243.4821,
1870.310,2256.778,
1867.399,2215.2037,
1864.489,2277.1231,
1861.578,2291.7528,
1858.667,2277.3114,
1855.757,2252.2399,
1852.846,2314.2231,
1849.936,2304.546,
1847.025,2322.7336,
1844.114,2338.1447,
1841.204,2352.2063,
1838.293,2378.9609,
1835.383,2371.896,
1832.472,2373.187,
1829.562,2354.4495,
1826.651,2388.886,
1823.740,2397.7567,
1820.830,2398.4449,
1817.919,2354.0805,
1815.009,2405.1488,
1812.098,2408.3189,
1809.188,2449.7092,
1806.277,2470.1016,
1803.366,2471.9344,
1800.456,2438.0054,
1797.545,2425.6279,
1794.635,2394.9821,
1791.724,2454.5775,
1788.813,2502.5026,
1785.903,2506.7481,
1782.992,2494.7683,
1780.082,2497.9101,
1777.171,2498.4973,
1774.261,2490.69,
1771.350,2509.9343,
1768.439,2552.226,
1765.529,2572.0444,
1762.618,2554.3881,
1759.708,2575.196,
1756.797,2600.5833,
1753.887,2605.0904,
1750.976,2607.7827,
1748.065,2623.5476,
1745.155,2636.1387,
1742.244,2642.4592,
1739.334,2639.3376,
1736.423,2674.6532,
1733.512,2724.6993,
1730.602,2726.2797,
1727.691,2748.6005,
1724.781,2806.0543,
1721.870,2837.2049,
1718.960,2836.5666,
1716.049,2907.6518,
1713.138,2876.1852,
1710.228,2811.9307,
1707.317,2806.1537,
1704.407,2866.6926,
1701.496,2924.5467,
1698.586,2982.1671,
1695.675,2946.2645,
1692.764,3054.2665,
1689.854,3006.9252,
1686.943,3067.3078,
1684.033,3074.3758,
1681.122,3167.8857,
1678.211,3210.1098,
1675.301,3268.3212,
1672.390,3260.8021,
1669.480,3362.1337,
1666.569,3442.0489,
1663.659,3563.4636,
1660.748,3623.6403,
1657.837,3733.3748,
1654.927,3773.9995,
1652.016,3838.3224,
1649.106,3914.144,
1646.195,4022.545,
1643.285,4148.6647,
1640.374,4243.4861,
1637.463,4339.9948,
1634.553,4533.7068,
1631.642,4750.095,
1628.732,4988.4613,
1625.821,5317.6688,
1622.911,5574.0461,
1620.000,5859.8716,
1617.089,6182.0323,
1614.179,6456.7165,
1611.268,6840.9634,
1608.358,7196.7373,
1605.447,7328.5295,
1602.536,7557.2891,
1599.626,7511.8645,
1596.715,7596.3525,
1593.805,7544.6854,
1590.894,7462.643,
1587.984,7449.0356,
1585.073,7308.966,
1582.162,7169.2857,
1579.252,7025.3914,
1576.341,6956.0436,
1573.431,6888.3283,
1570.520,6840.3962,
1567.610,6749.2831,
1564.699,6692.4988,
1561.788,6552.628,
1558.878,6416.5684,
1555.967,6306.4875,
1553.057,6179.5526,
1550.146,6049.2238,
1547.235,5954.0449,
1544.325,5856.8983,
1541.414,5822.7017,
1538.504,5802.589,
1535.593,5766.1178,
1532.683,5739.9085,
1529.772,5719.6749,
1526.861,5732.9373,
1523.951,5778.6539,
1521.040,5827.51,
1518.130,5802.6305,
1515.219,5790.1006,
1512.309,5767.0135,
1509.398,5763.1445,
1506.487,5755.3588,
1503.577,5720.3745,
1500.666,5772.3075,
1497.756,5676.0245,
1494.845,5583.0587,
1491.934,5524.6921,
1489.024,5583.4042,
1486.113,5563.2468,
1483.203,5533.9668,
1480.292,5480.4378,
1477.382,5338.9473,
1474.471,5326.6845,
1471.560,5269.367,
1468.650,5231.8345,
1465.739,5262.0079,
1462.829,5311.7441,
1459.918,5372.3843,
1457.008,5390.269,
1454.097,5325.5869,
1451.186,5236.7263,
1448.276,5194.9759,
1445.365,5146.0624,
1442.455,4998.6886,
1439.544,4902.9033,
1436.633,4920.6351,
1433.723,4872.5332,
1430.812,4789.3677,
1427.902,4712.3647,
1424.991,4706.6781,
1422.081,4723.9321,
1419.170,4760.9265,
1416.259,4739.7679,
1413.349,4685.9198,
1410.438,4736.2793,
1407.528,4731.0254,
1404.617,4733.0495,
1401.707,4708.8143,
1398.796,4682.5245,
1395.885,4685.7125,
1392.975,4650.9364,
1390.064,4578.9553,
1387.154,4474.8332,
1384.243,4304.187,
1381.332,4237.492,
1378.422,4265.0449,
1375.511,4488.9356,
1372.601,4760.677,
1369.690,4866.6506,
1366.780,5015.938,
1363.869,5113.2505,
1360.958,5213.7453,
1358.048,5331.2238,
1355.137,5382.9229,
1352.227,5414.8989,
1349.316,5524.1004,
1346.406,5633.5,
1343.495,5653.4304,
1340.584,5726.7134,
1337.674,5789.644,
1334.763,5804.8183,
1331.853,5734.3488,
1328.942,5862.2512,
1326.032,5843.4283,
1323.121,5867.3615,
1320.210,5922.4508,
1317.300,5979.9139,
1314.389,6048.1814,
1311.479,6137.121,
1308.568,6221.4882,
1305.657,6280.2003,
1302.747,6331.9701,
1299.836,6391.0384,
1296.926,6637.4648,
1294.015,6787.3146,
1291.105,7055.9015,
1288.194,7171.3743,
1285.283,7264.5323,
1282.373,7390.9528,
1279.462,7437.0688,
1276.552,7458.2324,
1273.641,7525.5258,
1270.731,7568.6209,
1267.820,7515.9094,
1264.909,7416.0716,
1261.999,7422.2738,
1259.088,7279.0708,
1256.178,7234.5288,
1253.267,7134.135,
1250.356,6986.3033,
1247.446,6850.8786,
1244.535,6727.6118,
1241.625,6611.2668,
1238.714,6480.7844,
1235.804,6315.9177,
1232.893,6200.2596,
1229.982,6149.9686,
1227.072,5957.1371,
1224.161,5910.7204,
1221.251,5835.2606,
1218.340,5687.7679,
1215.430,5594.0743,
1212.519,5524.0547,
1209.608,5459.4756,
1206.698,5449.5213,
1203.787,5458.1081,
1200.877,5487.9428,
1197.966,5478.9512,
1195.055,5709.7304,
1192.145,5834.4018,
1189.234,6050.001,
1186.324,6257.8738,
1183.413,6397.7285,
1180.503,6413.9352,
1177.592,6309.4392,
1174.681,6256.0583,
1171.771,6094.5412,
1168.860,6096.3274,
1165.950,6052.1541,
1163.039,5948.6124,
1160.129,5901.4217,
1157.218,5914.768,
1154.307,5945.2597,
1151.397,5985.9184,
1148.486,6050.8487,
1145.576,6061.0827,
1142.665,6120.5729,
1139.754,6026.2373,
1136.844,6007.7018,
1133.933,5881.6417,
1131.023,5777.3371,
1128.112,5741.86,
1125.202,5682.8286,
1122.291,5611.1321,
1119.380,5629.2142,
1116.470,5600.0907,
1113.559,5615.8312,
1110.649,5575.6608,
1107.738,5516.136,
1104.828,5451.7959,
1101.917,5395.6239,
1099.006,5371.6959,
1096.096,5355.221,
1093.185,5301.6629,
1090.275,5380.0456,
1087.364,5397.4416,
1084.453,5446.5593,
1081.543,5485.9382,
1078.632,5505.6171,
1075.722,5534.8999,
1072.811,5479.6933,
1069.901,5468.3409,
1066.990,5486.0916,
1064.079,5470.7651,
1061.169,5456.5293,
1058.258,5448.2651,
1055.348,5451.0248,
1052.437,5462.1527,
1049.527,5415.507,
1046.616,5441.5719,
1043.705,5410.5863,
1040.795,5391.5609,
1037.884,5395.6033,
1034.974,5381.0374,
1032.063,5353.4227,
1029.153,5393.2657,
1026.242,5407.9699,
1023.331,5429.332,
1020.421,5453.0188,
1017.510,5537.6975,
1014.600,5624.5675,
1011.689,5694.5681,
1008.778,5798.4654,
1005.868,5921.4267,
1002.957,6024.6692,
1000.047,6131.5,
997.136,6272.9806,
994.226,6329.3157,
991.315,6254.3515,
988.404,6127.2858,
985.494,6072.9464,
982.583,6003.5654,
979.673,5921.7986,
976.762,5918.397,
973.852,5904.0013,
970.941,5870.8349,
968.030,5886.2052,
965.120,5901.457,
962.209,5891.2265,
959.299,5931.995,
956.388,5950.06,
953.477,5967.3521,
950.567,5987.5786,
947.656,5979.9537,
944.746,6006.29,
941.835,5953.2425,
938.925,6012.2275,
936.014,6026.7378,
933.103,5985.0798,
930.193,5936.1163,
927.282,5880.621,
924.372,5845.9512,
921.461,5791.4248,
918.551,5753.1673,
915.640,5696.8555,
912.729,5638.6215,
909.819,5613.3719,
906.908,5460.893,
903.998,5512.9477,
901.087,5595.3332,
898.176,5669.2896,
895.266,5726.5917,
892.355,5766.7565,
889.445,5773.4706,
886.534,5857.8221,
883.624,5920.2526,
880.713,5950.1553,
877.802,5984.5965,
874.892,6027.4107,
871.981,5990.3755,
869.071,5942.757,
866.160,5919.3209,
863.250,5913.5484,
860.339,5913.7841,
857.428,5907.3347,
854.518,5884.6093,
851.607,5853.8228,
848.697,5847.1244,
845.786,5842.8672,
842.875,5869.5612,
839.965,5924.6019,
837.054,5920.5372,
834.144,5923.8522,
831.233,5888.5026,
828.323,5914.5169,
825.412,5957.2463,
822.501,5943.1168,
819.591,5891.0536,
816.680,5832.6089,
813.770,5764.6208,
810.859,5701.3644,
807.949,5667.9098,
805.038,5683.4823,
802.127,5716.4074,
799.217,5669.5588,
796.306,5654.2027,
793.396,5640.706,
790.485,5613.0778,
787.574,5598.6485,
784.664,5655.2362,
781.753,5677.5777,
778.843,5705.0636,
775.932,5742.0059,
773.022,5761.3131,
770.111,5676.2849,
767.200,5683.4423,
764.290,5709.4594,
761.379,5692.0213,
758.469,5639.4537,
755.558,5634.8679,
752.648,5613.6882,
749.737,5536.3876,
746.826,5451.8103,
743.916,5306.7973,
741.005,5021.2807,
738.095,4612.0948,
735.184,4085.1251,
732.274,4030.1815,
729.363,4396.9395,
726.452,4944.2567,
723.542,5302.8179,
720.631,5460.117,
717.721,5560.3574,
714.810,5602.7386,
711.899,5597.3614,
708.989,5579.609,
706.078,5597.1287,
703.168,5589.9628,
700.257,5553.62,
697.347,5521.8468,
694.436,5554.9326,
691.525,5534.0337,
688.615,5494.9099,
685.704,5509.4672,
682.794,5553.3936,
679.883,5548.2301,
676.973,5586.6959,
674.062,5626.4041,
671.151,5644.0617,
668.241,5628.2521,
665.330,5582.374,
662.420,5643.0776,
659.509,5647.2459,
656.598,5655.4825,
653.688,5686.9927,
650.777,5735.338,
647.867,5730.56,
644.956,5726.4042,
642.046,5711.2329,
639.135,5698.3691,
636.224,5720.5159,
633.314,5723.6917,
630.403,5726.8648,
627.493,5724.6593,
624.582,5722.208,
621.672,5738.8399,
618.761,5690.1039,
615.850,5711.9672,
612.940,5775.2873,
610.029,5836.1326,
607.119,5821.9192,
604.208,5798.4896,
601.297,5804.4555,
598.387,5825.8059,
595.476,5841.8714,
592.566,5845.8067,
589.655,5803.0914,
586.745,5788.1794,
583.834,5783.9095,
580.923,5728.2962,
578.013,5694.5527,
575.102,5730.8135,
572.192,5814.5198,
569.281,5903.6564,
566.371,5898.9607,
563.460,5991.6218,
560.549,6035.3728,
557.639,6059.568,
554.728,6109.5291,
551.818,6078.3165,
548.907,6090.3918,
545.996,6144.8781,
543.086,6205.4605,
540.175,6177.4293,
537.265,6192.1584,
534.354,6186.4594,
531.444,6174.7787,
528.533,6177.928,
525.622,6212.0697,
522.712,6189.7691,
519.801,6178.9014,
516.891,6201.1078,
513.980,6243.6941,
511.070,6305.2565,
508.159,6319.4711,
505.248,6319.7663,
502.338,6355.2622,
499.427,6415.4651,
496.517,6475.0555,
493.606,6502.4431,
490.695,6487.5044,
487.785,6465.9503,
484.874,6461.2076,
481.964,6475.45,
479.053,6490.9843,
476.143,6467.9454,
473.232,6472.2552,
470.321,6484.2315,
467.411,6483.6098,
464.500,6450.6855,
461.590,6418.5244,
458.679,6492.5945,
455.769,6567.1163,
452.858,6588.4195,
449.947,6654.8816,
447.037,6623.5997,
444.126,6622.2273,
441.216,6676.379,
438.305,6715.9994,
435.395,6696.5858,
432.484,6697.6696,
429.573,6727.6176,
426.663,6770.9456,
423.752,6747.9981,
420.842,6764.8145,
417.931,6823.9253,
415.020,6913.4116,
412.110,7025.5104,
409.199,7131.0256,
406.289,7177.3618,
403.378,7109.4385,
400.468,7091.2947,
397.557,7050.0237,
394.646,6991.7202,
391.736,6919.7193,
388.825,6770.3815,
385.915,6686.5855,
383.004,6712.6063,
380.094,6870.6441,
377.183,6971.476,
374.272,7133.5668,
371.362,7254.4468,
368.451,7276.6002,
365.541,7327.6366,
362.630,7334.3989,
359.719,7327.3161,
356.809,7328.2607,
353.898,7390.4109,
350.988,7398.2777,
348.077,7377.4316,
345.167,7343.6458,
342.256,7307.0394,
339.345,7327.8545,
336.435,7341.0652,
333.524,7305.4025,
330.614,7365.7601,
327.703,7382.4464,
324.793,7417.1064,
321.882,7522.6803,
318.971,7597.0246,
316.061,7668.8898,
313.150,7752.8356,
310.240,7866.3794,
307.329,7974.1224,
304.418,8009.5726,
301.508,8001.9092,
298.597,7999.688,
295.687,7926.358,
292.776,8015.2507,
289.866,8272.7286,
286.955,8672.3791,
284.044,9073.5797,
281.134,9444.9433,
278.223,9779.8279,
275.313,10076.044,
272.402,10335.426,
269.492,10595.686,
266.581,10862.849,
263.670,11035.617,
260.760,11154.977,
257.849,11243.136,
254.939,11313.589,
252.028,11402.085,
249.117,11424.079,
246.207,11408.038,
243.296,11398.521,
240.386,11278.656,
237.475,11168.245,
234.565,11076.625,
231.654,10975.832,
228.743,10872.222,
225.833,10742.289,
222.922,10576.516,
220.012,10405.306,
217.101,10303.373,
214.191,10232.988,
211.280,10158.06,
208.369,10084.546,
205.459,10041.519,
202.548,10002.308,
199.638,9862.2574,
196.727,9824.8568,
193.816,9810.3724,
190.906,9789.2145,
187.995,9724.0523,
185.085,9762.0255,
182.174,9847.5213,
179.264,9914.0157,
176.353,9909.3252,
173.442,9853.5547,
170.532,9759.3513,
167.621,9689.4167,
164.711,9528.0712,
161.800,9284.9737,
158.890,8949.5806,
155.979,8398.74,
153.068,7696.4244,
150.158,6859.9217,
147.247,5904.3273,
144.337,4911.9203,
141.426,3898.5299,
138.516,2868.3572,
135.605,2050.8615,
132.694,1406.572,
129.784,922.1529,
126.873,612.50168,
123.963,414.63038,
121.052,285.87081,
118.141,218.76403,
115.231,171.60236,
112.320,135.9782,
109.410,110.22747,
106.499,93.135748,
103.589,85.578219,
100.678,80.055405,
97.767,73.656966,
94.857,67.956088,
91.946,60.66267,
89.036,52.709715,
86.125,47.745278,
83.215,46.5,
80.304,44.823971,
77.393,39.866782,
74.483,47.361619,
71.572,47.514127,
68.662,40.361465,
65.751,38.948563,
62.840,38.5,
59.930,37.188997,
57.019,32.253423,
54.109,30.305678,
51.198,28.293563,
48.288,25.539637,
45.377,30.463284,
42.466,30.438903,
39.556,27.5,
36.645,27.5,
33.735,27.5,
30.824,25.953791,
27.914,21.045564,
25.003,25.4811,
22.092,29.145809,
19.182,30.957657,
16.271,44.94746,
13.361,126.78389,
10.450,302.29177,
7.539,713.59952,
4.629,1128.2297,
1.718,1323.2758,
-1.192,1019.3207,
-4.103,606.1756,
-7.013,253.83586,
-9.924,0.5,
