,Pliquid_AuCOFNPs-citrate13new_1E-1mgmL_100uL_mix_1E-4mgL_16h_785nm_133mW_3s_1acc_2_RamanShift__1__40,
Raman shift [1/cm],Intensity,
3014.167,3.625,
3011.256,-1.4750215,
3008.346,61.658263,
3005.435,60.815811,
3002.525,82.155201,
2999.614,64.665282,
2996.704,76.262114,
2993.793,69.76728,
2990.882,67.357767,
2987.972,81.599775,
2985.061,81.058503,
2982.151,92.789711,
2979.240,86.258078,
2976.329,85.370905,
2973.419,93.779044,
2970.508,92.408297,
2967.598,97.007329,
2964.687,104.14742,
2961.777,91.847102,
2958.866,98.293646,
2955.955,91.830757,
2953.045,111.79054,
2950.134,104.83783,
2947.224,93.222845,
2944.313,103.2881,
2941.403,91.494069,
2938.492,131.02878,
2935.581,113.99066,
2932.671,123.06275,
2929.760,106.27884,
2926.850,111.10244,
2923.939,119.10632,
2921.028,132.34871,
2918.118,107.94742,
2915.207,137.04284,
2912.297,125.70116,
2909.386,118.60311,
2906.476,120.9115,
2903.565,137.73834,
2900.654,139.18919,
2897.744,123.61243,
2894.833,122.625,
2891.923,118.5705,
2889.012,129.41691,
2886.102,123.79257,
2883.191,109.63538,
2880.280,103.06997,
2877.370,71.851781,
2874.459,77.386056,
2871.549,95.24354,
2868.638,122.67241,
2865.727,120.25578,
2862.817,128.55414,
2859.906,119.56232,
2856.996,137.61141,
2854.085,134.46322,
2851.175,132.48045,
2848.264,126.19367,
2845.353,127.99164,
2842.443,143.82639,
2839.532,128.65494,
2836.622,145.95638,
2833.711,138.20271,
2830.801,136.92721,
2827.890,137.25088,
2824.979,141.625,
2822.069,139.65912,
2819.158,149.84603,
2816.248,149.67132,
2813.337,136.39817,
2810.427,142.27238,
2807.516,153.99187,
2804.605,143.39904,
2801.695,139.75658,
2798.784,136.92069,
2795.874,141.76484,
2792.963,145.91074,
2790.052,138.62672,
2787.142,143.46715,
2784.231,137.9806,
2781.321,139.24784,
2778.410,136.11484,
2775.500,145.75189,
2772.589,144.625,
2769.678,147.87413,
2766.768,144.32014,
2763.857,142.10092,
2760.947,152.57457,
2758.036,147.16642,
2755.126,139.13996,
2752.215,154.1158,
2749.304,155.34801,
2746.394,164.16529,
2743.483,165.37503,
2740.573,165.72238,
2737.662,165.63535,
2734.751,266.41,
2731.841,224.67258,
2728.930,152.50215,
2726.020,160.85995,
2723.109,152.89334,
2720.199,157.56558,
2717.288,160.27463,
2714.377,156.625,
2711.467,167.95248,
2708.556,178.84858,
2705.646,169.24471,
2702.735,165.30026,
2699.825,174.11409,
2696.914,183.53001,
2694.003,168.26727,
2691.093,170.8392,
2688.182,156.40574,
2685.272,170.06739,
2682.361,164.0191,
2679.450,178.07351,
2676.540,172.46241,
2673.629,165.62051,
2670.719,174.69062,
2667.808,189.09001,
2664.898,174.40418,
2661.987,178.32503,
2659.076,173.51509,
2656.166,186.43026,
2653.255,176.43793,
2650.345,190.24932,
2647.434,204.0817,
2644.524,184.15016,
2641.613,171.08194,
2638.702,179.43563,
2635.792,177.06269,
2632.881,179.6666,
2629.971,185.24247,
2627.060,199.79032,
2624.149,206.03126,
2621.239,199.87352,
2618.328,185.939,
2615.418,209.32045,
2612.507,194.76335,
2609.597,202.70684,
2606.686,197.98846,
2603.775,201.70436,
2600.865,192.74443,
2597.954,185.87077,
2595.044,210.95538,
2592.133,209.79059,
2589.223,197.92604,
2586.312,216.23307,
2583.401,203.72719,
2580.491,209.15864,
2577.580,207.6415,
2574.670,213.47394,
2571.759,213.63527,
2568.848,209.45366,
2565.938,219.57745,
2563.027,212.55225,
2560.117,207.45675,
2557.206,222.41836,
2554.296,211.42363,
2551.385,212.63307,
2548.474,217.40269,
2545.564,215.625,
2542.653,210.08809,
2539.743,215.08187,
2536.832,226.93155,
2533.922,215.68808,
2531.011,214.12547,
2528.100,202.29051,
2525.190,222.01762,
2522.279,237.87463,
2519.369,218.39884,
2516.458,213.62854,
2513.548,228.14303,
2510.637,235.2109,
2507.726,220.49491,
2504.816,229.43672,
2501.905,233.55244,
2498.995,227.98331,
2496.084,232.09189,
2493.173,239.12533,
2490.263,234.0634,
2487.352,243.83367,
2484.442,244.35307,
2481.531,236.25795,
2478.621,243.99943,
2475.710,250.69401,
2472.799,255.43222,
2469.889,246.50312,
2466.978,246.29514,
2464.068,246.54035,
2461.157,252.58748,
2458.247,251.08082,
2455.336,252.85789,
2452.425,240.6863,
2449.515,259.52104,
2446.604,251.27247,
2443.694,249.46217,
2440.783,260.77027,
2437.872,246.09904,
2434.962,256.26095,
2432.051,262.30425,
2429.141,259.25462,
2426.230,264.77751,
2423.320,267.36802,
2420.409,259.8686,
2417.498,267.00141,
2414.588,276.71243,
2411.677,268.625,
2408.767,270.64862,
2405.856,274.27977,
2402.946,273.67862,
2400.035,290.80811,
2397.124,269.4004,
2394.214,268.9226,
2391.303,275.37635,
2388.393,277.13197,
2385.482,247.94685,
2382.571,279.27032,
2379.661,284.27622,
2376.750,287.88603,
2373.840,271.09386,
2370.929,287.37592,
2368.019,296.16686,
2365.108,292.7428,
2362.197,288.37573,
2359.287,287.64171,
2356.376,277.63909,
2353.466,294.48979,
2350.555,281.18013,
2347.645,289.58526,
2344.734,307.38541,
2341.823,295.89033,
2338.913,299.11158,
2336.002,306.9169,
2333.092,297.80896,
2330.181,307.69658,
2327.270,285.16515,
2324.360,292.16273,
2321.449,300.47195,
2318.539,302.45373,
2315.628,305.08663,
2312.718,301.67566,
2309.807,318.87355,
2306.896,311.14457,
2303.986,315.14445,
2301.075,316.79519,
2298.165,316.63454,
2295.254,313.66809,
2292.344,304.83243,
2289.433,319.31227,
2286.522,338.99988,
2283.612,347.79464,
2280.701,332.64296,
2277.791,348.58305,
2274.880,322.98301,
2271.969,327.20113,
2269.059,337.06642,
2266.148,346.83869,
2263.238,333.53235,
2260.327,330.24577,
2257.417,339.33667,
2254.506,340.41132,
2251.595,336.34138,
2248.685,341.25382,
2245.774,342.72392,
2242.864,341.01402,
2239.953,343.89402,
2237.043,341.24892,
2234.132,351.625,
2231.221,346.65082,
2228.311,354.19329,
2225.400,365.11838,
2222.490,351.70978,
2219.579,369.625,
2216.669,371.11785,
2213.758,367.40669,
2210.847,361.40082,
2207.937,384.60705,
2205.026,371.1801,
2202.116,383.10058,
2199.205,387.81206,
2196.294,401.12099,
2193.384,388.99398,
2190.473,409.22242,
2187.563,415.69267,
2184.652,425.8597,
2181.742,411.4213,
2178.831,430.26314,
2175.920,454.02574,
2173.010,483.12613,
2170.099,489.49157,
2167.189,493.78286,
2164.278,519.73354,
2161.368,547.9102,
2158.457,575.14645,
2155.546,621.16927,
2152.636,640.32181,
2149.725,640.625,
2146.815,677.35698,
2143.904,692.01906,
2140.993,684.84184,
2138.083,714.46084,
2135.172,720.65859,
2132.262,721.63204,
2129.351,712.54217,
2126.441,707.7415,
2123.530,676.45664,
2120.619,654.33173,
2117.709,601.50544,
2114.798,566.8633,
2111.888,555.41198,
2108.977,524.66471,
2106.067,508.20878,
2103.156,506.22582,
2100.245,466.62375,
2097.335,464.38416,
2094.424,461.42825,
2091.514,451.90452,
2088.603,446.84618,
2085.692,432.52846,
2082.782,438.41604,
2079.871,444.98206,
2076.961,443.68958,
2074.050,442.15833,
2071.140,448.28052,
2068.229,428.61848,
2065.318,442.74901,
2062.408,448.68552,
2059.497,448.23215,
2056.587,433.60202,
2053.676,404.57635,
2050.766,430.08464,
2047.855,432.45413,
2044.944,430.08332,
2042.034,448.83304,
2039.123,437.98527,
2036.213,444.16279,
2033.302,460.03787,
2030.391,442.57489,
2027.481,435.06396,
2024.570,445.21051,
2021.660,432.51194,
2018.749,438.0049,
2015.839,449.37369,
2012.928,458.55621,
2010.017,452.92359,
2007.107,449.76331,
2004.196,453.91076,
2001.286,467.43772,
1998.375,456.0994,
1995.465,452.19821,
1992.554,452.625,
1989.643,495.1042,
1986.733,454.67851,
1983.822,455.90713,
1980.912,457.16952,
1978.001,448.72703,
1975.090,447.97005,
1972.180,475.90026,
1969.269,462.24562,
1966.359,460.2468,
1963.448,484.42686,
1960.538,505.23217,
1957.627,501.49187,
1954.716,503.53882,
1951.806,486.42629,
1948.895,479.9469,
1945.985,471.83742,
1943.074,502.93141,
1940.164,483.11544,
1937.253,491.49883,
1934.342,488.05228,
1931.432,486.55245,
1928.521,470.84434,
1925.611,480.52738,
1922.700,494.95649,
1919.790,470.78714,
1916.879,469.41575,
1913.968,470.62377,
1911.058,477.43581,
1908.147,467.0017,
1905.237,505.44851,
1902.326,496.84425,
1899.415,513.21769,
1896.505,515.57672,
1893.594,490.08836,
1890.684,489.6641,
1887.773,490.03057,
1884.863,499.03502,
1881.952,499.46511,
1879.041,498.40745,
1876.131,483.33742,
1873.220,489.21353,
1870.310,502.69224,
1867.399,477.05683,
1864.489,520.79465,
1861.578,475.9986,
1858.667,480.21182,
1855.757,496.57846,
1852.846,547.61987,
1849.936,531.32372,
1847.025,502.74179,
1844.114,501.39439,
1841.204,506.25437,
1838.293,525.11918,
1835.383,534.63649,
1832.472,537.84587,
1829.562,532.79219,
1826.651,528.57367,
1823.740,515.97747,
1820.830,537.86145,
1817.919,497.57679,
1815.009,529.4367,
1812.098,564.45175,
1809.188,532.91965,
1806.277,548.22663,
1803.366,513.30709,
1800.456,552.4709,
1797.545,534.74546,
1794.635,551.62594,
1791.724,527.59583,
1788.813,542.22449,
1785.903,542.96995,
1782.992,555.18537,
1780.082,557.08081,
1777.171,535.62661,
1774.261,521.5496,
1771.350,513.14026,
1768.439,552.77382,
1765.529,555.71668,
1762.618,568.83814,
1759.708,609.81011,
1756.797,598.13257,
1753.887,571.21538,
1750.976,576.85602,
1748.065,567.02285,
1745.155,567.37335,
1742.244,589.82696,
1739.334,610.58029,
1736.423,582.41757,
1733.512,619.5601,
1730.602,648.34922,
1727.691,623.98922,
1724.781,607.75923,
1721.870,612.06313,
1718.960,634.1808,
1716.049,641.9809,
1713.138,614.41014,
1710.228,635.73391,
1707.317,636.08671,
1704.407,631.13301,
1701.496,624.24417,
1698.586,634.71281,
1695.675,605.68232,
1692.764,657.58814,
1689.854,658.71161,
1686.943,642.19834,
1684.033,637.72434,
1681.122,668.09823,
1678.211,676.54886,
1675.301,695.56642,
1672.390,680.7536,
1669.480,723.71324,
1666.569,734.0156,
1663.659,687.96425,
1660.748,767.87301,
1657.837,730.28109,
1654.927,759.64843,
1652.016,761.83995,
1649.106,810.28227,
1646.195,796.52909,
1643.285,792.35156,
1640.374,780.39504,
1637.463,770.63382,
1634.553,825.92056,
1631.642,845.37527,
1628.732,822.9035,
1625.821,869.6322,
1622.911,880.56301,
1620.000,962.57931,
1617.089,1010.6698,
1614.179,1068.9611,
1611.268,1064.8481,
1608.358,1149.4577,
1605.447,1235.6542,
1602.536,1214.5322,
1599.626,1208.9453,
1596.715,1199.549,
1593.805,1247.8133,
1590.894,1258.909,
1587.984,1217.1865,
1585.073,1218.2824,
1582.162,1180.3854,
1579.252,1174.2616,
1576.341,1174.625,
1573.431,1198.1202,
1570.520,1131.2448,
1567.610,1120.5468,
1564.699,1150.001,
1561.788,1129.3436,
1558.878,1100.2387,
1555.967,1094.607,
1553.057,1073.2976,
1550.146,1048.9487,
1547.235,1035.1314,
1544.325,1026.1007,
1541.414,1016.6844,
1538.504,1021.9011,
1535.593,997.05408,
1532.683,989.10744,
1529.772,994.16294,
1526.861,967.48787,
1523.951,979.15235,
1521.040,964.08844,
1518.130,953.98722,
1515.219,953.82573,
1512.309,942.74667,
1509.398,976.60234,
1506.487,945.61702,
1503.577,954.03719,
1500.666,953.7589,
1497.756,977.70963,
1494.845,964.90406,
1491.934,923.65335,
1489.024,932.31578,
1486.113,929.84335,
1483.203,935.84217,
1480.292,893.35091,
1477.382,892.09099,
1474.471,935.06346,
1471.560,954.88166,
1468.650,962.40792,
1465.739,918.50971,
1462.829,863.97777,
1459.918,863.96218,
1457.008,889.27128,
1454.097,896.77637,
1451.186,879.23815,
1448.276,848.76974,
1445.365,858.70083,
1442.455,904.79201,
1439.544,900.30989,
1436.633,942.90604,
1433.723,912.3999,
1430.812,860.16619,
1427.902,929.4897,
1424.991,923.80313,
1422.081,964.91147,
1419.170,967.76094,
1416.259,899.5797,
1413.349,919.12133,
1410.438,951.61839,
1407.528,914.91934,
1404.617,918.98141,
1401.707,927.96631,
1398.796,918.56905,
1395.885,919.625,
1392.975,897.66575,
1390.064,880.28681,
1387.154,926.21321,
1384.243,885.86401,
1381.332,827.61296,
1378.422,853.26737,
1375.511,885.11792,
1372.601,949.21335,
1369.690,1006.0583,
1366.780,1016.2091,
1363.869,1030.4281,
1360.958,1042.2272,
1358.048,1021.2992,
1355.137,1052.4622,
1352.227,1095.625,
1349.316,1105.7346,
1346.406,1126.0954,
1343.495,1134.1302,
1340.584,1141.767,
1337.674,1194.6234,
1334.763,1169.625,
1331.853,1169.625,
1328.942,1162.5093,
1326.032,1182.0155,
1323.121,1207.372,
1320.210,1203.3043,
1317.300,1202.3469,
1314.389,1192.2636,
1311.479,1186.1783,
1308.568,1196.0618,
1305.657,1203.9632,
1302.747,1213.5812,
1299.836,1198.2393,
1296.926,1203.9496,
1294.015,1232.4486,
1291.105,1263.5634,
1288.194,1311.5559,
1285.283,1344.1051,
1282.373,1386.7967,
1279.462,1408.272,
1276.552,1409.625,
1273.641,1423.6704,
1270.731,1432.2175,
1267.820,1400.1179,
1264.909,1412.2846,
1261.999,1429.428,
1259.088,1369.228,
1256.178,1404.1655,
1253.267,1413.6938,
1250.356,1380.7623,
1247.446,1328.8346,
1244.535,1296.192,
1241.625,1283.3769,
1238.714,1272.5114,
1235.804,1261.0377,
1232.893,1245.6235,
1229.982,1250.9078,
1227.072,1200.2103,
1224.161,1189.901,
1221.251,1159.5891,
1218.340,1116.5866,
1215.430,1109.0852,
1212.519,1122.1526,
1209.608,1107.4256,
1206.698,1095.9022,
1203.787,1165.5747,
1200.877,1143.0678,
1197.966,1134.0762,
1195.055,1196.7654,
1192.145,1202.3656,
1189.234,1198.6786,
1186.324,1229.8099,
1183.413,1244.7011,
1180.503,1234.3466,
1177.592,1237.8168,
1174.681,1219.2586,
1171.771,1223.8311,
1168.860,1232.7619,
1165.950,1205.4049,
1163.039,1158.816,
1160.129,1188.2236,
1157.218,1227.3553,
1154.307,1203.0879,
1151.397,1146.4969,
1148.486,1132.9794,
1145.576,1109.3619,
1142.665,1172.4037,
1139.754,1145.0799,
1136.844,1115.2153,
1133.933,1116.7686,
1131.023,1107.6295,
1128.112,1086.1254,
1125.202,1083.0743,
1122.291,1090.8838,
1119.380,1113.6077,
1116.470,1111.8426,
1113.559,1134.0492,
1110.649,1117.7054,
1107.738,1140.989,
1104.828,1158.3098,
1101.917,1141.1044,
1099.006,1149.0063,
1096.096,1169.4637,
1093.185,1166.8297,
1090.275,1141.5376,
1087.364,1116.4136,
1084.453,1109.8749,
1081.543,1116.8837,
1078.632,1119.2375,
1075.722,1113.1982,
1072.811,1126.8255,
1069.901,1101.5009,
1066.990,1124.6833,
1064.079,1111.5706,
1061.169,1135.2108,
1058.258,1164.1659,
1055.348,1173.2102,
1052.437,1190.3967,
1049.527,1209.1886,
1046.616,1197.8939,
1043.705,1201.2496,
1040.795,1209.01,
1037.884,1221.7283,
1034.974,1239.1907,
1032.063,1240.2716,
1029.153,1199.0791,
1026.242,1211.1885,
1023.331,1194.1261,
1020.421,1224.783,
1017.510,1235.1428,
1014.600,1226.5498,
1011.689,1228.1771,
1008.778,1258.8615,
1005.868,1312.8412,
1002.957,1336.9311,
1000.047,1368.289,
997.136,1405.642,
994.226,1410.3483,
991.315,1388.3626,
988.404,1376.8416,
985.494,1367.5483,
982.583,1364.1221,
979.673,1353.3819,
976.762,1367.2381,
973.852,1354.8724,
970.941,1341.4078,
968.030,1378.6654,
965.120,1350.6178,
962.209,1348.9128,
959.299,1344.3755,
956.388,1344.8649,
953.477,1347.036,
950.567,1362.2647,
947.656,1401.0626,
944.746,1381.5228,
941.835,1370.9072,
938.925,1364.0186,
936.014,1350.4968,
933.103,1358.339,
930.193,1384.0355,
927.282,1349.5333,
924.372,1347.8421,
921.461,1333.6334,
918.551,1319.911,
915.640,1311.5003,
912.729,1307.0149,
909.819,1299.9561,
906.908,1279.7379,
903.998,1286.5786,
901.087,1310.9027,
898.176,1304.5372,
895.266,1303.9385,
892.355,1345.4262,
889.445,1333.6764,
886.534,1351.9922,
883.624,1363.0262,
880.713,1382.446,
877.802,1386.5085,
874.892,1363.0511,
871.981,1352.3352,
869.071,1382.4101,
866.160,1364.1664,
863.250,1355.7218,
860.339,1366.9323,
857.428,1379.0336,
854.518,1359.4565,
851.607,1353.632,
848.697,1371.8839,
845.786,1344.2974,
842.875,1330.1997,
839.965,1364.6492,
837.054,1355.7925,
834.144,1370.71,
831.233,1369.6253,
828.323,1345.3693,
825.412,1338.4012,
822.501,1366.4121,
819.591,1337.4881,
816.680,1367.0738,
813.770,1358.3359,
810.859,1334.6365,
807.949,1319.8299,
805.038,1324.0321,
802.127,1310.862,
799.217,1293.9718,
796.306,1285.2196,
793.396,1282.2357,
790.485,1284.152,
787.574,1293.5627,
784.664,1291.9225,
781.753,1308.3996,
778.843,1304.863,
775.932,1304.6618,
773.022,1333.9074,
770.111,1348.6238,
767.200,1333.6374,
764.290,1320.5347,
761.379,1316.9882,
758.469,1316.6489,
755.558,1300.7254,
752.648,1270.5851,
749.737,1241.7774,
746.826,1240.8143,
743.916,1236.5923,
741.005,1183.6379,
738.095,1104.074,
735.184,983.79075,
732.274,970.65295,
729.363,1036.619,
726.452,1129.8972,
723.542,1231.0714,
720.631,1284.791,
717.721,1297.9065,
714.810,1313.3749,
711.899,1334.9814,
708.989,1310.7737,
706.078,1329.055,
703.168,1308.1217,
700.257,1292.0376,
697.347,1289.7992,
694.436,1280.1705,
691.525,1300.2657,
688.615,1288.2733,
685.704,1288.554,
682.794,1295.54,
679.883,1276.6342,
676.973,1299.0726,
674.062,1301.0727,
671.151,1312.7749,
668.241,1313.9006,
665.330,1265.9318,
662.420,1314.6544,
659.509,1324.625,
656.598,1324.625,
653.688,1323.9349,
650.777,1322.3001,
647.867,1342.2083,
644.956,1311.3334,
642.046,1281.333,
639.135,1274.2364,
636.224,1291.8518,
633.314,1337.1063,
630.403,1329.7063,
627.493,1317.3931,
624.582,1318.4484,
621.672,1317.6564,
618.761,1334.3437,
615.850,1342.9309,
612.940,1358.9449,
610.029,1385.0196,
607.119,1387.3885,
604.208,1401.8253,
601.297,1383.1976,
598.387,1357.4785,
595.476,1355.5163,
592.566,1364.9612,
589.655,1360.1461,
586.745,1365.3044,
583.834,1366.9633,
580.923,1332.516,
578.013,1314.4671,
575.102,1278.0776,
572.192,1284.6369,
569.281,1339.6092,
566.371,1345.0876,
563.460,1347.0359,
560.549,1347.1377,
557.639,1354.9505,
554.728,1378.6104,
551.818,1394.2167,
548.907,1415.9074,
545.996,1422.9595,
543.086,1411.7665,
540.175,1393.8576,
537.265,1381.7608,
534.354,1383.1436,
531.444,1390.0183,
528.533,1395.6667,
525.622,1424.3768,
522.712,1451.8614,
519.801,1455.3142,
516.891,1445.5112,
513.980,1479.5802,
511.070,1457.2685,
508.159,1452.8334,
505.248,1473.6453,
502.338,1516.4609,
499.427,1545.0187,
496.517,1559.9785,
493.606,1573.0278,
490.695,1588.6948,
487.785,1596.3928,
484.874,1587.2854,
481.964,1581.625,
479.053,1576.6608,
476.143,1555.9258,
473.232,1561.819,
470.321,1578.7357,
467.411,1577.1631,
464.500,1529.4589,
461.590,1562.3857,
458.679,1560.0688,
455.769,1551.2551,
452.858,1551.2729,
449.947,1538.2861,
447.037,1564.1427,
444.126,1582.2553,
441.216,1580.1698,
438.305,1571.7886,
435.395,1588.9828,
432.484,1586.1224,
429.573,1572.7075,
426.663,1590.1908,
423.752,1544.2005,
420.842,1546.4593,
417.931,1579.8736,
415.020,1601.866,
412.110,1579.2134,
409.199,1611.7007,
406.289,1655.117,
403.378,1656.4892,
400.468,1616.4215,
397.557,1612.3655,
394.646,1614.1607,
391.736,1595.2729,
388.825,1553.0359,
385.915,1526.788,
383.004,1524.0479,
380.094,1552.0781,
377.183,1639.3654,
374.272,1642.9993,
371.362,1632.6889,
368.451,1650.9927,
365.541,1673.5088,
362.630,1711.307,
359.719,1725.7863,
356.809,1699.3467,
353.898,1727.8011,
350.988,1731.8276,
348.077,1721.9456,
345.167,1705.2466,
342.256,1697.7759,
339.345,1668.5219,
336.435,1656.0063,
333.524,1686.7054,
330.614,1720.9826,
327.703,1720.8435,
324.793,1721.1944,
321.882,1751.5367,
318.971,1715.108,
316.061,1693.8353,
313.150,1699.6369,
310.240,1747.8744,
307.329,1718.8956,
304.418,1704.8012,
301.508,1695.7327,
298.597,1669.8181,
295.687,1643.2443,
292.776,1637.4584,
289.866,1665.242,
286.955,1758.3214,
284.044,1757.71,
281.134,1782.9509,
278.223,1840.595,
275.313,1847.2267,
272.402,1892.1927,
269.492,1925.843,
266.581,1930.4673,
263.670,1928.2618,
260.760,1928.6698,
257.849,1933.9877,
254.939,1946.4637,
252.028,1938.6627,
249.117,1946.5889,
246.207,1951.4803,
243.296,1920.0028,
240.386,1962.9874,
237.475,1980.7096,
234.565,1968.3596,
231.654,1960.3254,
228.743,1932.1581,
225.833,1928.7845,
222.922,1963.8584,
220.012,1925.9735,
217.101,1925.4022,
214.191,1919.0474,
211.280,1857.213,
208.369,1875.5006,
205.459,1891.416,
202.548,1899.3771,
199.638,1903.731,
196.727,1931.7071,
193.816,1934.7677,
190.906,1896.9963,
187.995,1936.0936,
185.085,1935.4393,
182.174,1923.1509,
179.264,1936.1607,
176.353,1933.7803,
173.442,1931.2624,
170.532,1928.6088,
167.621,1911.3054,
164.711,1880.3466,
161.800,1814.845,
158.890,1692.4913,
155.979,1633.2175,
153.068,1517.4099,
150.158,1350.2559,
147.247,1159.9986,
144.337,955.9096,
141.426,749.29064,
138.516,544.97663,
135.605,393.95709,
132.694,275.83376,
129.784,185.10614,
126.873,115.73854,
123.963,83.414756,
121.052,63.675926,
118.141,48.683984,
115.231,38.677015,
112.320,31.235913,
109.410,25.943224,
106.499,22.382448,
103.589,18.263473,
100.678,13.180405,
97.767,6.7819665,
94.857,12.861901,
91.946,11.997002,
89.036,7.1894895,
86.125,10.735516,
83.215,10.032239,
80.304,9.3432981,
77.393,11.467808,
74.483,5.7287854,
71.572,5.1614648,
68.662,9.1401275,
65.751,4.19497,
62.840,5.5152119,
59.930,8.0631414,
57.019,5.9478954,
54.109,3.2363566,
51.198,2.2282186,
48.288,3.6476498,
45.377,6.461162,
42.466,4.7394646,
39.556,1.0854743,
36.645,3.8942352,
33.735,3.5865031,
30.824,1.0787912,
27.914,-3.8294355,
25.003,-1.2618126,
22.092,1.5937137,
19.182,3.3046399,
16.271,-6.4882219,
13.361,-11.639374,
10.450,-51.475154,
7.539,-272.84112,
4.629,-498.69694,
1.718,-700.84895,
-1.192,-845.85501,
-4.103,-565.40161,
-7.013,-260.19074,
-9.924,-3.375,
