,PL9A5F~1,
Wavenumbers [1/cm],Intensity,
3014.167,1.375,
3011.256,0.82498926,
3008.346,35.538246,
3005.435,32.223059,
3002.525,34.24245,
2999.614,45.038645,
2996.704,41.51624,
2993.793,36.870392,
2990.882,44.329177,
2987.972,55.299326,
2985.061,43.921803,
2982.151,44.852308,
2979.240,46.540391,
2976.329,59.385921,
2973.419,48.821213,
2970.508,63.024911,
2967.598,40.709538,
2964.687,48.330163,
2961.777,40.315079,
2958.866,70.383908,
2955.955,58.375,
2953.045,61.641216,
2950.134,62.013492,
2947.224,77.289594,
2944.313,72.127849,
2941.403,73.720346,
2938.492,79.491519,
2935.581,72.305051,
2932.671,76.057425,
2929.760,85.701919,
2926.850,74.845301,
2923.939,82.618013,
2921.028,81.622152,
2918.118,81.654596,
2915.207,76.609155,
2912.297,86.328456,
2909.386,88.207107,
2906.476,73.964923,
2903.565,107.60167,
2900.654,88.481175,
2897.744,94.463005,
2894.833,94.364821,
2891.923,98.160306,
2889.012,93.664018,
2886.102,102.97905,
2883.191,86.391048,
2880.280,173.70038,
2877.370,186.2588,
2874.459,152.0414,
2871.549,101.01965,
2868.638,62.917295,
2865.727,84.159654,
2862.817,96.062142,
2859.906,90.716879,
2856.996,89.89085,
2854.085,110.14185,
2851.175,100.70636,
2848.264,87.806334,
2845.353,76.871042,
2842.443,94.184052,
2839.532,80.942197,
2836.622,99.251304,
2833.711,86.323193,
2830.801,82.677205,
2827.890,102.45892,
2824.979,100.23904,
2822.069,111.20442,
2819.158,95.614891,
2816.248,99.604736,
2813.337,110.22013,
2810.427,97.198688,
2807.516,87.065783,
2804.605,96.805292,
2801.695,93.32235,
2798.784,85.448923,
2795.874,89.364432,
2792.963,86.51755,
2790.052,105.36942,
2787.142,97.230501,
2784.231,103.92471,
2781.321,92.249279,
2778.410,94.109765,
2775.500,100.14086,
2772.589,99.52943,
2769.678,112.55245,
2766.768,106.01188,
2763.857,111.63704,
2760.947,98.349783,
2758.036,113.85919,
2755.126,113.47329,
2752.215,112.28872,
2749.304,109.65199,
2746.394,107.79838,
2743.483,107.17501,
2740.573,116.02106,
2737.662,99.928255,
2734.751,99.491488,
2731.841,109.29442,
2728.930,112.35386,
2726.020,110.38021,
2723.109,113.48842,
2720.199,118.98451,
2717.288,111.88231,
2714.377,108.44188,
2711.467,110.375,
2708.556,114.02384,
2705.646,110.61442,
2702.735,146.01931,
2699.825,121.44044,
2696.914,125.66092,
2694.003,121.43028,
2691.093,129.12471,
2688.182,122.90241,
2685.272,130.81739,
2682.361,123.19269,
2679.450,124.91408,
2676.540,117.47662,
2673.629,117.06561,
2670.719,116.65227,
2667.808,129.98592,
2664.898,137.59582,
2661.987,123.47477,
2659.076,129.21335,
2656.166,120.375,
2653.255,122.30017,
2650.345,118.8868,
2647.434,115.06091,
2644.524,127.7803,
2641.613,142.54659,
2638.702,135.53281,
2635.792,140.15467,
2632.881,141.98232,
2629.971,129.14007,
2627.060,129.54219,
2624.149,134.56249,
2621.239,142.36907,
2618.328,136.61203,
2615.418,126.67501,
2612.507,143.8572,
2609.597,121.76222,
2606.686,128.56978,
2603.775,132.25595,
2600.865,144.54909,
2597.954,143.51874,
2595.044,144.06233,
2592.133,135.70617,
2589.223,159.23081,
2586.312,156.49562,
2583.401,148.72172,
2580.491,150.375,
2577.580,145.37335,
2574.670,147.14237,
2571.759,154.92551,
2568.848,152.08217,
2565.938,170.42269,
2563.027,156.25231,
2560.117,151.82361,
2557.206,157.99124,
2554.296,152.6885,
2551.385,155.50706,
2548.474,176.04192,
2545.564,162.97646,
2542.653,164.38506,
2539.743,162.52287,
2536.832,151.88528,
2533.922,159.29615,
2531.011,160.69946,
2528.100,175.24259,
2525.190,175.74672,
2522.279,175.14051,
2519.369,167.05445,
2516.458,162.15474,
2513.548,170.84764,
2510.637,173.375,
2507.726,173.68727,
2504.816,167.62415,
2501.905,170.49085,
2498.995,161.98741,
2496.084,183.69554,
2493.173,163.76937,
2490.263,175.91402,
2487.352,165.001,
2484.442,181.36857,
2481.531,179.52932,
2478.621,172.60722,
2475.710,184.42101,
2472.799,183.22261,
2469.889,170.10078,
2466.978,180.81829,
2464.068,172.75592,
2461.157,177.18738,
2458.247,190.97787,
2455.336,188.31043,
2452.425,181.56839,
2449.515,188.84694,
2446.604,191.61929,
2443.694,183.18916,
2440.783,193.85248,
2437.872,191.30207,
2434.962,185.43491,
2432.051,176.81332,
2429.141,178.66324,
2426.230,188.6579,
2423.320,188.98882,
2420.409,203.83663,
2417.498,217.91435,
2414.588,209.48537,
2411.677,189.84116,
2408.767,199.08662,
2405.856,204.85349,
2402.946,210.73783,
2400.035,212.56749,
2397.124,198.38569,
2394.214,201.50901,
2391.303,198.3418,
2388.393,189.44473,
2385.482,182.46312,
2382.571,212.64201,
2379.661,174.86335,
2376.750,200.52757,
2373.840,201.68757,
2370.929,201.33168,
2368.019,220.71307,
2365.108,212.0949,
2362.197,218.19416,
2359.287,228.94659,
2356.376,224.38909,
2353.466,236.86139,
2350.555,211.21489,
2347.645,209.92731,
2344.734,209.22292,
2341.823,215.25892,
2338.913,225.19739,
2336.002,222.15014,
2333.092,217.24858,
2330.181,223.16526,
2327.270,214.03506,
2324.360,236.62738,
2321.449,224.72874,
2318.539,230.52486,
2315.628,236.67756,
2312.718,224.00935,
2309.807,236.21367,
2306.896,220.12304,
2303.986,228.51145,
2301.075,232.35375,
2298.165,254.51012,
2295.254,243.76277,
2292.344,232.37079,
2289.433,244.34409,
2286.522,242.02228,
2283.612,245.30484,
2280.701,252.16422,
2277.791,241.49522,
2274.880,242.44904,
2271.969,243.49846,
2269.059,251.90633,
2266.148,235.97266,
2263.238,247.56804,
2260.327,265.20243,
2257.417,252.45889,
2254.506,266.4206,
2251.595,251.8224,
2248.685,251.10572,
2245.774,260.88042,
2242.864,253.11565,
2239.953,252.33357,
2237.043,263.54393,
2234.132,263.72306,
2231.221,261.6644,
2228.311,263.11469,
2225.400,271.34685,
2222.490,268.33261,
2219.579,260.74262,
2216.669,273.3273,
2213.758,265.11093,
2210.847,266.65962,
2207.937,278.00854,
2205.026,285.48549,
2202.116,304.21045,
2199.205,296.17594,
2196.294,282.99498,
2193.384,290.217,
2190.473,289.65904,
2187.563,329.3025,
2184.652,310.6097,
2181.742,289.96598,
2178.831,298.41005,
2175.920,300.96334,
2173.010,307.25085,
2170.099,329.57292,
2167.189,327.46828,
2164.278,340.8152,
2161.368,343.375,
2158.457,337.86785,
2155.546,339.34425,
2152.636,327.56122,
2149.725,340.18035,
2146.815,349.20816,
2143.904,358.17797,
2140.993,363.27979,
2138.083,368.04667,
2135.172,384.90439,
2132.262,380.74912,
2129.351,397.74407,
2126.441,372.45258,
2123.530,371.3301,
2120.619,369.71435,
2117.709,376.72806,
2114.798,346.44028,
2111.888,342.11207,
2108.977,348.83195,
2106.067,321.59016,
2103.156,336.25071,
2100.245,314.38002,
2097.335,321.89333,
2094.424,317.65695,
2091.514,323.95572,
2088.603,328.93265,
2085.692,317.96607,
2082.782,321.90911,
2079.871,331.5897,
2076.961,325.89162,
2074.050,348.55076,
2071.140,335.43223,
2068.229,348.10938,
2065.318,337.844,
2062.408,328.97334,
2059.497,351.83338,
2056.587,340.87549,
2053.676,327.55838,
2050.766,361.52672,
2047.855,336.74846,
2044.944,314.57693,
2042.034,314.82594,
2039.123,339.17635,
2036.213,336.89716,
2033.302,345.09197,
2030.391,338.74869,
2027.481,352.87472,
2024.570,334.71861,
2021.660,347.25154,
2018.749,358.42524,
2015.839,338.67947,
2012.928,359.24916,
2010.017,332.12853,
2007.107,336.6797,
2004.196,349.30356,
2001.286,359.66826,
1998.375,348.89074,
1995.465,333.29554,
1992.554,333.12793,
1989.643,327.58238,
1986.733,339.66272,
1983.822,315.29967,
1980.912,349.78081,
1978.001,338.73121,
1975.090,329.16432,
1972.180,322.75534,
1969.269,320.9986,
1966.359,321.88843,
1963.448,343.21253,
1960.538,328.84122,
1957.627,333.18306,
1954.716,327.57609,
1951.806,327.97114,
1948.895,334.52892,
1945.985,311.99592,
1943.074,350.29018,
1940.164,333.83635,
1937.253,302.01883,
1934.342,293.9905,
1931.432,310.26144,
1928.521,316.92077,
1925.611,327.30349,
1922.700,334.33218,
1919.790,329.34617,
1916.879,305.11874,
1913.968,311.36516,
1911.058,358.13775,
1908.147,320.34587,
1905.237,362.64699,
1902.326,322.32019,
1899.415,319.375,
1896.505,309.19416,
1893.594,300.64332,
1890.684,300.08094,
1887.773,302.34886,
1884.863,323.76908,
1881.952,338.34993,
1879.041,335.32308,
1876.131,335.81814,
1873.220,317.19793,
1870.310,336.65299,
1867.399,353.1351,
1864.489,296.58225,
1861.578,326.4684,
1858.667,327.375,
1855.757,328.17214,
1852.846,331.62628,
1849.936,327.84047,
1847.025,310.67185,
1844.114,327.74686,
1841.204,366.41346,
1838.293,349.89246,
1835.383,342.654,
1832.472,373.24804,
1829.562,355.32447,
1826.651,358.30721,
1823.740,351.17573,
1820.830,326.62681,
1817.919,361.27945,
1815.009,364.38136,
1812.098,349.91044,
1809.188,391.52219,
1806.277,345.48159,
1803.366,361.97573,
1800.456,340.62824,
1797.545,379.46719,
1794.635,383.60005,
1791.724,401.0838,
1788.813,380.97706,
1785.903,387.14051,
1782.992,398.44657,
1780.082,416.01061,
1777.171,351.69297,
1774.261,301.31014,
1771.350,328.41351,
1768.439,366.69629,
1765.529,396.01299,
1762.618,405.40875,
1759.708,390.58138,
1756.797,409.10985,
1753.887,427.34876,
1750.976,432.75785,
1748.065,424.78514,
1745.155,418.20723,
1742.244,413.0915,
1739.334,412.79853,
1736.423,441.22356,
1733.512,434.91154,
1730.602,444.08336,
1727.691,430.95115,
1724.781,441.89311,
1721.870,457.64173,
1718.960,480.10857,
1716.049,439.07037,
1713.138,475.68978,
1710.228,444.21164,
1707.317,424.22186,
1704.407,461.00608,
1701.496,440.76321,
1698.586,460.55063,
1695.675,490.44626,
1692.764,479.12089,
1689.854,451.58758,
1686.943,483.22833,
1684.033,499.97762,
1681.122,477.76583,
1678.211,516.00382,
1675.301,531.32875,
1672.390,470.34509,
1669.480,460.74401,
1666.569,507.26371,
1663.659,576.27701,
1660.748,570.62566,
1657.837,583.94361,
1654.927,609.42186,
1652.016,610.50023,
1649.106,576.01151,
1646.195,601.06331,
1643.285,589.76498,
1640.374,648.83145,
1637.463,623.42904,
1634.553,626.99567,
1631.642,669.02647,
1628.732,728.29204,
1625.821,714.38808,
1622.911,734.2623,
1620.000,785.71987,
1617.089,789.3153,
1614.179,833.10595,
1611.268,862.29684,
1608.358,910.08067,
1605.447,970.83262,
1602.536,997.67218,
1599.626,1018.6936,
1596.715,1056.679,
1593.805,1012.9754,
1590.894,1022.3464,
1587.984,1058.1526,
1585.073,989.35394,
1582.162,971.36568,
1579.252,922.91353,
1576.341,926.79414,
1573.431,931.94135,
1570.520,898.74241,
1567.610,938.29734,
1564.699,925.64878,
1561.788,884.79782,
1558.878,855.30592,
1555.967,830.85838,
1553.057,831.94387,
1550.146,825.69866,
1547.235,796.53292,
1544.325,809.08606,
1541.414,846.57672,
1538.504,834.17107,
1535.593,829.33849,
1532.683,838.89014,
1529.772,833.56862,
1526.861,848.39829,
1523.951,851.76596,
1521.040,858.33727,
1518.130,884.36039,
1515.219,899.29471,
1512.309,890.05061,
1509.398,839.75319,
1506.487,869.65063,
1503.577,862.70117,
1500.666,839.02458,
1497.756,823.88391,
1494.845,863.97369,
1491.934,806.28996,
1489.024,780.30265,
1486.113,808.11868,
1483.203,837.9082,
1480.292,821.85924,
1477.382,812.71726,
1474.471,781.44722,
1471.560,752.05635,
1468.650,738.90881,
1465.739,733.81304,
1462.829,756.84451,
1459.918,780.00489,
1457.008,770.65174,
1454.097,730.03199,
1451.186,726.40595,
1448.276,743.34375,
1445.365,707.05352,
1442.455,695.71553,
1439.544,665.35592,
1436.633,662.39486,
1433.723,681.49962,
1430.812,678.90252,
1427.902,637.17898,
1424.991,712.99997,
1422.081,643.81179,
1419.170,667.61711,
1416.259,700.72721,
1413.349,678.67584,
1410.438,669.375,
1407.528,680.31861,
1404.617,696.35618,
1401.707,645.61149,
1398.796,612.31202,
1395.885,622.45366,
1392.975,603.06228,
1390.064,608.09046,
1387.154,634.49589,
1384.243,603.82299,
1381.332,598.47764,
1378.422,610.97924,
1375.511,525.73217,
1372.601,602.70848,
1369.690,624.805,
1366.780,619.45465,
1363.869,636.2634,
1360.958,655.91911,
1358.048,659.40844,
1355.137,678.92805,
1352.227,690.59718,
1349.316,709.75951,
1346.406,751.50119,
1343.495,739.64502,
1340.584,738.4453,
1337.674,812.4822,
1334.763,813.83371,
1331.853,825.88771,
1328.942,827.26446,
1326.032,837.97807,
1323.121,854.45332,
1320.210,868.69789,
1317.300,895.21359,
1314.389,918.59738,
1311.479,933.36524,
1308.568,943.81176,
1305.657,943.00351,
1302.747,949.94364,
1299.836,1013.5863,
1296.926,1029.5032,
1294.015,1032.2612,
1291.105,1029.7334,
1288.194,1103.6581,
1285.283,1075.1188,
1282.373,1052.5781,
1279.462,1067.3943,
1276.552,1097.6349,
1273.641,1109.1625,
1270.731,1113.5467,
1267.820,1152.375,
1264.909,1143.5499,
1261.999,1078.8757,
1259.088,1065.1939,
1256.178,1137.1738,
1253.267,1068.8195,
1250.356,1062.6609,
1247.446,1070.2015,
1244.535,1050.5447,
1241.625,1028.5491,
1238.714,1025.6204,
1235.804,1036.8944,
1232.893,1064.5044,
1229.982,1045.1416,
1227.072,1067.7744,
1224.161,1045.0004,
1221.251,1029.9519,
1218.340,1012.1231,
1215.430,1018.1384,
1212.519,1034.3554,
1209.608,1021.2387,
1206.698,979.99186,
1203.787,967.91773,
1200.877,1002.3163,
1197.966,985.23228,
1195.055,1009.9725,
1192.145,1042.1747,
1189.234,1111.0639,
1186.324,1151.0121,
1183.413,1154.2836,
1180.503,1156.4456,
1177.592,1162.5668,
1174.681,1143.1216,
1171.771,1141.6223,
1168.860,1152.3393,
1165.950,1142.0869,
1163.039,1128.2006,
1160.129,1114.5272,
1157.218,1133.854,
1154.307,1158.0358,
1151.397,1144.5546,
1148.486,1128.8188,
1145.576,1164.4113,
1142.665,1142.2135,
1139.754,1163.1566,
1136.844,1150.1671,
1133.933,1160.5567,
1131.023,1148.826,
1128.112,1123.5175,
1125.202,1121.5779,
1122.291,1106.5084,
1119.380,1128.323,
1116.470,1123.0279,
1113.559,1093.7648,
1110.649,1111.5688,
1107.738,1116.8019,
1104.828,1118.1131,
1101.917,1113.5104,
1099.006,1078.9831,
1096.096,1102.9023,
1093.185,1062.5142,
1090.275,1109.5498,
1087.364,1111.7693,
1084.453,1128.1862,
1081.543,1141.7457,
1078.632,1138.0616,
1075.722,1143.2049,
1072.811,1167.7545,
1069.901,1159.0219,
1066.990,1121.1918,
1064.079,1145.7202,
1061.169,1145.9106,
1058.258,1137.1864,
1055.348,1139.4354,
1052.437,1128.9312,
1049.527,1111.2743,
1046.616,1108.6678,
1043.705,1102.9796,
1040.795,1112.2296,
1037.884,1110.2832,
1034.974,1109.8235,
1032.063,1116.4137,
1029.153,1101.7372,
1026.242,1138.0654,
1023.331,1100.2108,
1020.421,1142.5663,
1017.510,1164.9353,
1014.600,1177.217,
1011.689,1179.6916,
1008.778,1155.7844,
1005.868,1215.9194,
1002.957,1165.1585,
1000.047,1222.895,
997.136,1245.613,
994.226,1235.8982,
991.315,1220.5037,
988.404,1210.1857,
985.494,1213.7037,
982.583,1183.7242,
979.673,1180.1066,
976.762,1196.2268,
973.852,1192.7887,
970.941,1182.6737,
968.030,1195.0107,
965.120,1153.5361,
962.209,1191.9005,
959.299,1187.043,
956.388,1190.2145,
953.477,1195.1419,
950.567,1211.9361,
947.656,1261.2555,
944.746,1237.4679,
941.835,1233.1357,
938.925,1257.3809,
936.014,1265.3167,
933.103,1252.6069,
930.193,1238.9743,
927.282,1240.5043,
924.372,1224.4377,
921.461,1229.0026,
918.551,1230.2131,
915.640,1225.5505,
912.729,1219.0332,
909.819,1215.4862,
906.908,1216.3286,
903.998,1206.0353,
901.087,1202.102,
898.176,1203.2838,
895.266,1208.8664,
892.355,1215.2756,
889.445,1209.4007,
886.534,1241.1001,
883.624,1259.486,
880.713,1272.0096,
877.802,1274.9011,
874.892,1251.645,
871.981,1175.6192,
869.071,1101.2675,
866.160,1097.3445,
863.250,1139.1176,
860.339,1195.2114,
857.428,1235.9055,
854.518,1242.1584,
851.607,1234.6697,
848.697,1187.2913,
845.786,1188.6905,
842.875,1224.056,
839.965,1250.2973,
837.054,1245.7844,
834.144,1282.2495,
831.233,1323.3725,
828.323,1335.4293,
825.412,1335.8484,
822.501,1347.5239,
819.591,1348.3503,
816.680,1319.5288,
813.770,1311.122,
810.859,1299.094,
807.949,1292.8165,
805.038,1312.375,
802.127,1312.375,
799.217,1283.3047,
796.306,1265.9966,
793.396,1275.5584,
790.485,1292.847,
787.574,1270.8971,
784.664,1337.3262,
781.753,1346.0201,
778.843,1349.7659,
775.932,1345.19,
773.022,1321.9946,
770.111,1319.5419,
767.200,1324.7042,
764.290,1320.0183,
761.379,1324.0401,
758.469,1333.6082,
755.558,1319.8126,
752.648,1334.4755,
749.737,1343.2501,
746.826,1348.7061,
743.916,1355.2841,
741.005,1369.8685,
738.095,1409.6505,
735.184,1365.0359,
732.274,1320.1319,
729.363,1280.5635,
726.452,1252.4912,
723.542,1280.82,
720.631,1295.3722,
717.721,1316.5604,
714.810,1343.8408,
711.899,1367.9394,
708.989,1370.3601,
706.078,1361.5607,
703.168,1359.9822,
700.257,1376.4653,
697.347,1384.3766,
694.436,1330.2659,
691.525,1326.2469,
688.615,1321.6015,
685.704,1332.7575,
682.794,1358.8004,
679.883,1386.5552,
676.973,1390.5621,
674.062,1363.2994,
671.151,1363.5932,
668.241,1393.4284,
665.330,1420.938,
662.420,1390.5862,
659.509,1379.9305,
656.598,1379.9715,
653.688,1396.2574,
650.777,1439.9421,
647.867,1456.6649,
644.956,1447.3728,
642.046,1408.2801,
639.135,1362.9077,
636.224,1357.5023,
633.314,1382.9084,
630.403,1396.4695,
627.493,1390.2368,
624.582,1367.0779,
621.672,1343.318,
618.761,1359.8536,
615.850,1397.8833,
612.940,1434.9626,
610.029,1450.2456,
607.119,1419.45,
604.208,1445.4855,
601.297,1461.3631,
598.387,1463.3686,
595.476,1455.3296,
592.566,1423.0598,
589.655,1438.1075,
586.745,1455.8845,
583.834,1459.7637,
580.923,1443.2186,
578.013,1417.3224,
575.102,1409.8014,
572.192,1435.4568,
569.281,1477.3134,
566.371,1449.1389,
563.460,1498.5796,
560.549,1493.5747,
557.639,1481.2202,
554.728,1522.6998,
551.818,1496.169,
548.907,1508.048,
545.996,1511.2104,
543.086,1494.0132,
540.175,1473.7684,
537.265,1462.2351,
534.354,1470.4156,
531.444,1489.3414,
528.533,1509.1408,
525.622,1533.9711,
522.712,1511.4643,
519.801,1476.9542,
516.891,1455.5397,
513.980,1481.0914,
511.070,1479.1489,
508.159,1485.0161,
505.248,1486.8656,
502.338,1467.7139,
499.427,1479.2914,
496.517,1491.9912,
493.606,1497.356,
490.695,1497.9753,
487.785,1531.0763,
484.874,1498.2478,
481.964,1471.1458,
479.053,1457.7785,
476.143,1438.5795,
473.232,1435.9362,
470.321,1442.6736,
467.411,1466.8369,
464.500,1513.6102,
461.590,1443.9278,
458.679,1476.1027,
455.769,1504.8272,
452.858,1477.9201,
449.947,1502.3659,
447.037,1477.037,
444.126,1466.2477,
441.216,1480.449,
438.305,1475.1155,
435.395,1478.9645,
432.484,1489.71,
429.573,1495.6949,
426.663,1471.3704,
423.752,1421.9505,
420.842,1362.1,
417.931,1272.9276,
415.020,1123.5311,
412.110,1263.966,
409.199,1410.7734,
406.289,1506.6531,
403.378,1501.1317,
400.468,1429.3122,
397.557,1441.3372,
394.646,1470.8735,
391.736,1462.4615,
388.825,1496.4019,
385.915,1511.1647,
383.004,1511.0919,
380.094,1499.7608,
377.183,1487.7212,
374.272,1487.0889,
371.362,1495.8502,
368.451,1511.9221,
365.541,1520.9285,
362.630,1526.6524,
359.719,1530.5589,
356.809,1532.2876,
353.898,1514.3164,
350.988,1518.0548,
348.077,1528.2791,
345.167,1533.4829,
342.256,1496.1295,
339.345,1485.375,
336.435,1499.5322,
333.524,1535.1301,
330.614,1495.6369,
327.703,1528.5547,
324.793,1564.9302,
321.882,1546.393,
318.971,1553.8275,
316.061,1562.7231,
313.150,1569.144,
310.240,1568.4019,
307.329,1579.0946,
304.418,1620.3072,
301.508,1667.1319,
298.597,1677.4978,
295.687,1641.804,
292.776,1643.5418,
289.866,1677.6925,
286.955,1712.4126,
284.044,1707.8875,
281.134,1744.5878,
278.223,1810.0159,
275.313,1766.5415,
272.402,1788.1629,
269.492,1836.6738,
266.581,1887.9097,
263.670,1811.451,
260.760,1830.6433,
257.849,1885.569,
254.939,1934.7392,
252.028,1870.229,
249.117,1858.1662,
246.207,1871.4809,
243.296,1864.1605,
240.386,1849.0092,
237.475,1858.6634,
234.565,1886.375,
231.654,1886.375,
228.743,1875.443,
225.833,1850.9106,
222.922,1813.8846,
220.012,1824.8129,
217.101,1809.2371,
214.191,1791.1235,
211.280,1796.9432,
208.369,1761.0431,
205.459,1719.0207,
202.548,1690.648,
199.638,1738.5409,
196.727,1723.0215,
193.816,1702.5689,
190.906,1695.8863,
187.995,1624.9319,
185.085,1599.9021,
182.174,1614.0663,
179.264,1668.2737,
176.353,1619.268,
173.442,1603.965,
170.532,1623.0583,
167.621,1551.6817,
164.711,1503.4688,
161.800,1448.8663,
158.890,1365.3779,
155.979,1263.4612,
153.068,1137.6537,
150.158,990.52538,
147.247,826.83227,
144.337,708.40202,
141.426,583.18123,
138.516,426.18205,
135.605,306.14862,
132.694,212.02677,
129.784,140.89786,
126.873,92.269029,
123.963,60.750335,
121.052,38.992505,
118.141,25.428367,
115.231,27.506711,
112.320,21.596825,
109.410,12.238645,
106.499,11.52649,
103.589,8.5737276,
100.678,6.375,
97.767,6.375,
94.857,7.067989,
91.946,6.9718891,
89.036,6.2621021,
86.125,5.5528968,
83.215,5.375,
80.304,2.2623751,
77.393,-6.9438341,
74.483,-3.0390553,
71.572,0.46205634,
68.662,2.3057325,
65.751,1.5992814,
62.840,1.375,
59.930,1.375,
57.019,1.375,
54.109,-1.6108042,
51.198,-0.91051652,
48.288,5.3523502,
45.377,2.538838,
42.466,2.1994387,
39.556,3.0296443,
36.645,0.92307362,
33.735,-0.66349693,
30.824,-2.7294349,
27.914,-6.2353111,
25.003,-7.870275,
22.092,-6.0417635,
19.182,-0.67076573,
16.271,-2.069746,
13.361,3.2754117,
10.450,-19.033009,
7.539,-195.7068,
4.629,-601.50351,
1.718,-1021.586,
-1.192,-1292.0781,
-4.103,-994.22979,
-7.013,-542.79157,
-9.924,-0.625,
