,Pliquid_AuCOFNPs-citrate13new_1E-1mgmL_100uL_mix_1E-2mgL_16h_785nm_133mW_3s_1acc_0_RamanShift__3__33,
Raman shift [1/cm],Intensity,
3014.167,-0.125,
3011.256,2.9249034,
3008.346,305.45485,
3005.435,340.52871,
3002.525,355.72511,
2999.614,357.44902,
2996.704,372.63685,
2993.793,381.10426,
2990.882,394.61547,
2987.972,416.93049,
2985.061,423.4415,
2982.151,423.15904,
2979.240,441.42156,
2976.329,452.36135,
2973.419,475.90555,
2970.508,487.34165,
2967.598,514.54046,
2964.687,512.65081,
2961.777,533.27687,
2958.866,529.53919,
2955.955,548.81082,
2953.045,559.69155,
2950.134,581.31237,
2947.224,603.01375,
2944.313,637.83013,
2941.403,646.78011,
2938.492,647.875,
2935.581,666.18662,
2932.671,661.875,
2929.760,667.22116,
2926.850,687.98665,
2923.939,693.71142,
2921.028,685.8395,
2918.118,706.4153,
2915.207,722.41314,
2912.297,706.98078,
2909.386,727.69251,
2906.476,707.46492,
2903.565,728.98834,
2900.654,713.92254,
2897.744,717.61098,
2894.833,705.12227,
2891.923,716.0641,
2889.012,715.1698,
2886.102,715.14391,
2883.191,705.8901,
2880.280,676.95155,
2877.370,670.875,
2874.459,668.15817,
2871.549,709.2831,
2868.638,739.05849,
2865.727,731.27114,
2862.817,740.24665,
2859.906,746.98896,
2856.996,741.40444,
2854.085,750.71957,
2851.175,756.37796,
2848.264,739.76668,
2845.353,726.8103,
2842.443,720.28127,
2839.532,717.20334,
2836.622,738.50391,
2833.711,699.19368,
2830.801,721.05442,
2827.890,728.74559,
2824.979,713.29496,
2822.069,717.94323,
2819.158,725.01516,
2816.248,729.86342,
2813.337,734.44207,
2810.427,727.8819,
2807.516,728.50078,
2804.605,747.1226,
2801.695,739.46707,
2798.784,722.24462,
2795.874,746.45549,
2792.963,729.51766,
2790.052,718.87629,
2787.142,741.41435,
2784.231,728.58463,
2781.321,714.00072,
2778.410,722.92956,
2775.500,726.74811,
2772.589,721.18386,
2769.678,747.69407,
2766.768,740.01866,
2763.857,729.2989,
2760.947,760.92543,
2758.036,758.70933,
2755.126,758.62928,
2752.215,773.02493,
2749.304,776.59801,
2746.394,761.85287,
2743.483,768.87491,
2740.573,778.00328,
2737.662,770.53477,
2734.751,770.34095,
2731.841,763.1717,
2728.930,777.6927,
2726.020,781.97685,
2723.109,781.96767,
2720.199,791.24682,
2717.288,808.03194,
2714.377,800.94188,
2711.467,805.26841,
2708.556,813.65142,
2705.646,797.05804,
2702.735,829.05284,
2699.825,834.00589,
2696.914,831.11319,
2694.003,832.07663,
2691.093,826.57174,
2688.182,821.12833,
2685.272,819.70714,
2682.361,839.29858,
2679.450,836.875,
2676.540,836.57014,
2673.629,831.49827,
2670.719,846.37869,
2667.808,825.79908,
2664.898,838.32928,
2661.987,851.60829,
2659.076,842.0194,
2656.166,853.29489,
2653.255,868.53827,
2650.345,849.64995,
2647.434,890.10335,
2644.524,879.17235,
2641.613,887.90391,
2638.702,874.19062,
2635.792,884.90392,
2632.881,904.60711,
2629.971,900.64007,
2627.060,893.37531,
2624.149,891.33437,
2621.239,898.63834,
2618.328,906.80752,
2615.418,916.92499,
2612.507,895.49555,
2609.597,907.68139,
2606.686,923.40714,
2603.775,932.43452,
2600.865,947.69417,
2597.954,939.58132,
2595.044,923.45605,
2592.133,944.70941,
2589.223,929.82656,
2586.312,982.97051,
2583.401,967.07937,
2580.491,954.71157,
2577.580,978.8651,
2574.670,975.91911,
2571.759,979.47089,
2568.848,965.17329,
2565.938,983.68468,
2563.027,966.89997,
2560.117,968.79088,
2557.206,1001.1333,
2554.296,997.21825,
2551.385,998.437,
2548.474,1002.0973,
2545.564,986.4448,
2542.653,983.65352,
2539.743,997.81339,
2536.832,1008.9161,
2533.922,1001.4427,
2531.011,1037.9749,
2528.100,1030.2129,
2525.190,1007.4352,
2522.279,1035.0626,
2519.369,1035.2526,
2516.458,1038.5499,
2513.548,1038.166,
2510.637,1052.0142,
2507.726,1031.6928,
2504.816,1031.627,
2501.905,1034.136,
2498.995,1033.4722,
2496.084,1042.2618,
2493.173,1045.2962,
2490.263,1051.2682,
2487.352,1066.0419,
2484.442,1076.7101,
2481.531,1092.8218,
2478.621,1084.1972,
2475.710,1062.059,
2472.799,1085.3817,
2469.889,1091.6312,
2466.978,1099.875,
2464.068,1088.3829,
2461.157,1107.4525,
2458.247,1098.7866,
2455.336,1110.2547,
2452.425,1133.6816,
2449.515,1121.7523,
2446.604,1125.4579,
2443.694,1137.3635,
2440.783,1144.7331,
2437.872,1138.7502,
2434.962,1160.8243,
2432.051,1150.56,
2429.141,1157.8219,
2426.230,1156.3965,
2423.320,1195.5608,
2420.409,1177.9907,
2417.498,1161.448,
2414.588,1158.8826,
2411.677,1179.5523,
2408.767,1176.44,
2405.856,1203.663,
2402.946,1198.077,
2400.035,1206.0581,
2397.124,1202.3349,
2394.214,1213.5506,
2391.303,1228.4163,
2388.393,1234.4099,
2385.482,1221.3597,
2382.571,1222.3942,
2379.661,1227.5259,
2376.750,1252.9267,
2373.840,1249.6,
2370.929,1258.7559,
2368.019,1305.7549,
2365.108,1285.8069,
2362.197,1258.7215,
2359.287,1251.0767,
2356.376,1285.8134,
2353.466,1291.5274,
2350.555,1279.06,
2347.645,1275.5465,
2344.734,1282.9073,
2341.823,1287.8418,
2338.913,1308.4929,
2336.002,1325.7961,
2333.092,1322.2543,
2330.181,1332.4197,
2327.270,1324.4801,
2324.360,1354.6816,
2321.449,1355.028,
2318.539,1353.557,
2315.628,1345.1364,
2312.718,1344.0578,
2309.807,1322.1104,
2306.896,1380.6309,
2303.986,1376.349,
2301.075,1378.3643,
2298.165,1375.2979,
2295.254,1366.0258,
2292.344,1369.9205,
2289.433,1387.1336,
2286.522,1387.8972,
2283.612,1397.9043,
2280.701,1399.9333,
2277.791,1416.7147,
2274.880,1411.805,
2271.969,1413.2906,
2269.059,1430.8123,
2266.148,1464.1388,
2263.238,1447.7862,
2260.327,1487.3578,
2257.417,1484.8606,
2254.506,1455.875,
2251.595,1480.4239,
2248.685,1495.1923,
2245.774,1476.7544,
2242.864,1507.1518,
2239.953,1473.7921,
2237.043,1495.4336,
2234.132,1513.8438,
2231.221,1533.2704,
2228.311,1540.2242,
2225.400,1552.269,
2222.490,1562.9043,
2219.579,1569.7054,
2216.669,1596.9275,
2213.758,1611.9665,
2210.847,1641.9959,
2207.937,1645.875,
2205.026,1651.6525,
2202.116,1673.083,
2199.205,1713.4002,
2196.294,1719.429,
2193.384,1744.6375,
2190.473,1777.6144,
2187.563,1805.0103,
2184.652,1848.5386,
2181.742,1947.2172,
2178.831,1995.6183,
2175.920,2093.4889,
2173.010,2244.108,
2170.099,2363.4658,
2167.189,2501.8078,
2164.278,2654.2057,
2161.368,2822.4425,
2158.457,2968.6899,
2155.546,3127.5078,
2152.636,3280.4279,
2149.725,3382.7944,
2146.815,3538.903,
2143.904,3580.1724,
2140.993,3581.0918,
2138.083,3610.3461,
2135.172,3628.3036,
2132.262,3602.4516,
2129.351,3550.1576,
2126.441,3458.5932,
2123.530,3319.1465,
2120.619,3144.4448,
2117.709,2966.4314,
2114.798,2797.7781,
2111.888,2588.2298,
2108.977,2402.2259,
2106.067,2315.4394,
2103.156,2198.1746,
2100.245,2105.8461,
2097.335,2044.7023,
2094.424,1940.0981,
2091.514,1945.9313,
2088.603,1925.1469,
2085.692,1885.5444,
2082.782,1849.2204,
2079.871,1837.0174,
2076.961,1848.9063,
2074.050,1850.3356,
2071.140,1780.2314,
2068.229,1784.4948,
2065.318,1806.0233,
2062.408,1780.2986,
2059.497,1768.1072,
2056.587,1766.8171,
2053.676,1794.5397,
2050.766,1780.6456,
2047.855,1751.1313,
2044.944,1755.2196,
2042.034,1732.9329,
2039.123,1756.8346,
2036.213,1751.5483,
2033.302,1748.2446,
2030.391,1753.3155,
2027.481,1768.7773,
2024.570,1755.1755,
2021.660,1759.402,
2018.749,1751.3051,
2015.839,1745.8875,
2012.928,1798.1284,
2010.017,1782.1215,
2007.107,1780.0825,
2004.196,1781.1846,
2001.286,1797.5004,
1998.375,1795.0039,
1995.465,1766.917,
1992.554,1727.4459,
1989.643,1775.974,
1986.733,1761.5206,
1983.822,1722.2731,
1980.912,1728.4486,
1978.001,1715.5522,
1975.090,1745.0933,
1972.180,1729.6689,
1969.269,1728.8003,
1966.359,1697.9016,
1963.448,1723.167,
1960.538,1773.1469,
1957.627,1726.4849,
1954.716,1745.1281,
1951.806,1685.5705,
1948.895,1703.9761,
1945.985,1730.9093,
1943.074,1714.7382,
1940.164,1743.9806,
1937.253,1724.862,
1934.342,1730.9606,
1931.432,1712.5879,
1928.521,1702.9147,
1925.611,1694.4596,
1922.700,1665.1319,
1919.790,1720.0246,
1916.879,1692.665,
1913.968,1667.9021,
1911.058,1723.0251,
1908.147,1690.6312,
1905.237,1662.7795,
1902.326,1706.9639,
1899.415,1675.3616,
1896.505,1658.616,
1893.594,1689.6769,
1890.684,1716.1953,
1887.773,1729.9349,
1884.863,1689.0231,
1881.952,1675.3123,
1879.041,1709.3522,
1876.131,1709.7312,
1873.220,1679.9811,
1870.310,1700.0095,
1867.399,1710.7311,
1864.489,1760.9668,
1861.578,1713.0344,
1858.667,1699.7403,
1855.757,1682.4299,
1852.846,1723.5776,
1849.936,1703.4325,
1847.025,1731.4589,
1844.114,1770.5904,
1841.204,1779.5778,
1838.293,1760.865,
1835.383,1775.0725,
1832.472,1788.9915,
1829.562,1835.3971,
1826.651,1824.6861,
1823.740,1815.4267,
1820.830,1830.9932,
1817.919,1773.7968,
1815.009,1794.1244,
1812.098,1803.4655,
1809.188,1775.7355,
1806.277,1832.5471,
1803.366,1809.241,
1800.456,1831.7543,
1797.545,1846.1374,
1794.635,1839.52,
1791.724,1851.9623,
1788.813,1890.0714,
1785.903,1879.344,
1782.992,1880.875,
1780.082,1874.5485,
1777.171,1854.8723,
1774.261,1844.875,
1771.350,1878.5138,
1768.439,1926.4703,
1765.529,1931.8769,
1762.618,1951.1219,
1759.708,1952.2336,
1756.797,1950.7159,
1753.887,1939.6432,
1750.976,1969.7408,
1748.065,1991.5017,
1745.155,1988.7911,
1742.244,1999.1449,
1739.334,1963.4774,
1736.423,2010.5833,
1733.512,2032.7815,
1730.602,2036.8591,
1727.691,2036.572,
1724.781,2045.3139,
1721.870,2114.6706,
1718.960,2131.6972,
1716.049,2159.5612,
1713.138,2100.7503,
1710.228,2128.1681,
1707.317,2155.1047,
1704.407,2178.5381,
1701.496,2140.7669,
1698.586,2191.3901,
1695.675,2188.3893,
1692.764,2271.1865,
1689.854,2295.0089,
1686.943,2296.8413,
1684.033,2330.0306,
1681.122,2310.2318,
1678.211,2417.8376,
1675.301,2427.8472,
1672.390,2480.9169,
1669.480,2495.4365,
1666.569,2565.6875,
1663.659,2629.7896,
1660.748,2687.3816,
1657.837,2816.4934,
1654.927,2888.9687,
1652.016,2895.2563,
1649.106,2991.4625,
1646.195,3017.7761,
1643.285,3136.3991,
1640.374,3162.0109,
1637.463,3309.6316,
1634.553,3352.5153,
1631.642,3462.9934,
1628.732,3565.4912,
1625.821,3669,
1622.911,3858.7987,
1620.000,4065.2545,
1617.089,4188.4272,
1614.179,4401.7554,
1611.268,4659.1716,
1608.358,4908.1224,
1605.447,4999.0756,
1602.536,5017.8533,
1599.626,5124.6673,
1596.715,5126.6142,
1593.805,5101.728,
1590.894,5124.4144,
1587.984,5064.6503,
1585.073,5000.4227,
1582.162,4977.5168,
1579.252,4963.4188,
1576.341,4935.241,
1573.431,4873.2696,
1570.520,4921.3183,
1567.610,4841.7754,
1564.699,4839.7763,
1561.788,4746.9464,
1558.878,4660.5437,
1555.967,4549.0426,
1553.057,4496.7716,
1550.146,4450.8569,
1547.235,4364.252,
1544.325,4294.0329,
1541.414,4217.3292,
1538.504,4192.4547,
1535.593,4151.5238,
1532.683,4056.555,
1529.772,3991.1192,
1526.861,3932.1609,
1523.951,3869.7029,
1521.040,3799.8296,
1518.130,3742.0279,
1515.219,3687.874,
1512.309,3718.4245,
1509.398,3691.1337,
1506.487,3653.3237,
1503.577,3648.2657,
1500.666,3575.6145,
1497.756,3536.0871,
1494.845,3560.5537,
1491.934,3504.6356,
1489.024,3431.4862,
1486.113,3427.9478,
1483.203,3416.3288,
1480.292,3335.9634,
1477.382,3293.5863,
1474.471,3332.9177,
1471.560,3275.0341,
1468.650,3243.7754,
1465.739,3213.0529,
1462.829,3196.875,
1459.918,3198.5325,
1457.008,3188.7056,
1454.097,3206.991,
1451.186,3246.697,
1448.276,3259.3026,
1445.365,3280.6989,
1442.455,3287.1895,
1439.544,3217.4526,
1436.633,3200.7797,
1433.723,3256.5585,
1430.812,3125.3818,
1427.902,3180.8603,
1424.991,3138.211,
1422.081,3068.0642,
1419.170,3105.078,
1416.259,3077.0423,
1413.349,3064.3436,
1410.438,3021.588,
1407.528,3024.4747,
1404.617,3048.2047,
1401.707,3030.378,
1398.796,3013.9554,
1395.885,3042.5445,
1392.975,3091.355,
1390.064,3120.4002,
1387.154,3079.8733,
1384.243,3004.083,
1381.332,3032.3257,
1378.422,3026.9275,
1375.511,3163.6976,
1372.601,3338.2087,
1369.690,3410.3089,
1366.780,3412.7467,
1363.869,3545.9997,
1360.958,3621.9632,
1358.048,3664.5406,
1355.137,3747.4314,
1352.227,3868.3852,
1349.316,3974.0372,
1346.406,4049.571,
1343.495,4127.5737,
1340.584,4182.0529,
1337.674,4226.4094,
1334.763,4207.2864,
1331.853,4244.3757,
1328.942,4336.6003,
1326.032,4354.4,
1323.121,4455.9052,
1320.210,4530.1643,
1317.300,4546.3336,
1314.389,4621.4737,
1311.479,4707.1079,
1308.568,4741.1937,
1305.657,4794.1039,
1302.747,4884.6955,
1299.836,5047.3346,
1296.926,5119.3615,
1294.015,5215.8905,
1291.105,5423.2802,
1288.194,5547.5229,
1285.283,5690.7315,
1282.373,5802.4216,
1279.462,5885.9918,
1276.552,5922.9459,
1273.641,5934.0224,
1270.731,5965.6362,
1267.820,5982.4493,
1264.909,5946.1285,
1261.999,5994.3479,
1259.088,5870.2994,
1256.178,5831.1861,
1253.267,5769.8697,
1250.356,5664.832,
1247.446,5504.3561,
1244.535,5319.2905,
1241.625,5171.8714,
1238.714,5070.1343,
1235.804,4945.4044,
1232.893,4786.3804,
1229.982,4757.9807,
1227.072,4643.0061,
1224.161,4532.3335,
1221.251,4430.979,
1218.340,4380.8494,
1215.430,4363.3696,
1212.519,4281.4531,
1209.608,4207.0113,
1206.698,4242.641,
1203.787,4241.4479,
1200.877,4224.5466,
1197.966,4251.5214,
1195.055,4381.7155,
1192.145,4526.344,
1189.234,4586.9876,
1186.324,4678.61,
1183.413,4746.3166,
1180.503,4756.6554,
1177.592,4742.8844,
1174.681,4628.2997,
1171.771,4588.1441,
1168.860,4513.1246,
1165.950,4467.9794,
1163.039,4426.7485,
1160.129,4383.3822,
1157.218,4362.3943,
1154.307,4331.4509,
1151.397,4247.2901,
1148.486,4155.4744,
1145.576,4157.3331,
1142.665,4121.8166,
1139.754,4142.4702,
1136.844,4083.4471,
1133.933,4050.5964,
1131.023,4040.7378,
1128.112,4019.5914,
1125.202,3994.1165,
1122.291,4002.2699,
1119.380,4053.8577,
1116.470,4052.0926,
1113.559,4054.968,
1110.649,4067.6622,
1107.738,4100.6659,
1104.828,4090.587,
1101.917,4059.852,
1099.006,4088.5866,
1096.096,4043.1549,
1093.185,4015.0588,
1090.275,4012.0657,
1087.364,4013.9334,
1084.453,4014.875,
1081.543,3988.5817,
1078.632,3961.4563,
1075.722,3979.2601,
1072.811,3995.9848,
1069.901,4025.6756,
1066.990,4046.4666,
1064.079,4096.4694,
1061.169,4127.8164,
1058.258,4146.0387,
1055.348,4161.0508,
1052.437,4167.8107,
1049.527,4191.2316,
1046.616,4278.1146,
1043.705,4288.6458,
1040.795,4316.9692,
1037.884,4332.3693,
1034.974,4347.1443,
1032.063,4361.9062,
1029.153,4334.2492,
1026.242,4395.6611,
1023.331,4397.875,
1020.421,4426.4562,
1017.510,4465.7682,
1014.600,4506.3298,
1011.689,4564.8029,
1008.778,4658.5098,
1005.868,4739.3422,
1002.957,4902.8095,
1000.047,5109.8751,
997.136,5234.2583,
994.226,5293.0593,
991.315,5319.3106,
988.404,5303.798,
985.494,5193.8776,
982.583,5149.3367,
979.673,5079.9534,
976.762,5056.2879,
973.852,5013,
970.941,4994.7371,
968.030,5073.7131,
965.120,5039.0289,
962.209,5075.6882,
959.299,5053.545,
956.388,5047.4746,
953.477,5041.1883,
950.567,5024.3065,
947.656,5030.7932,
944.746,5114.0497,
941.835,5083.053,
938.925,5082.7716,
936.014,5074.7352,
933.103,5067.4652,
930.193,5052.903,
927.282,4960.8292,
924.372,4959.9836,
921.461,4871.507,
918.551,4796.305,
915.640,4736.4038,
912.729,4679.3584,
909.819,4626.5397,
906.908,4608.8488,
903.998,4643.6664,
901.087,4657.3305,
898.176,4691.3699,
895.266,4743.3319,
892.355,4794.5392,
889.445,4867.5554,
886.534,4930.4904,
883.624,4942.875,
880.713,4991.8692,
877.802,5046.5176,
874.892,5046.3511,
871.981,4981.2634,
869.071,4955.3656,
866.160,4988.8228,
863.250,5023.1737,
860.339,5023.8401,
857.428,4989.0313,
854.518,4953.9011,
851.607,4885.6714,
848.697,4846.3623,
845.786,4805.8508,
842.875,4822.1704,
839.965,4888.3018,
837.054,4831.5355,
834.144,4890.377,
831.233,4890.5425,
828.323,4878.9401,
825.412,4846.1521,
822.501,4784.3642,
819.591,4753.7875,
816.680,4708.0031,
813.770,4614.1767,
810.859,4568.4849,
807.949,4569.2921,
805.038,4562.3639,
802.127,4582.9421,
799.217,4525.2437,
796.306,4503.7399,
793.396,4500.9284,
790.485,4498.2962,
787.574,4498.3181,
784.664,4457.3125,
781.753,4453.9009,
778.843,4475.9684,
775.932,4490.3936,
773.022,4480.1861,
770.111,4507.9838,
767.200,4512.1589,
764.290,4496.1165,
761.379,4492.1462,
758.469,4503.8287,
755.558,4498.0029,
752.648,4435.2784,
749.737,4416.3471,
746.826,4385.8342,
743.916,4319.9719,
741.005,4207.499,
738.095,4009.401,
735.184,3828.5619,
732.274,3787.9627,
729.363,3913.7876,
726.452,4148.8946,
723.542,4292.9666,
720.631,4332.9856,
717.721,4380.6828,
714.810,4422.1988,
711.899,4438.4195,
708.989,4415.0187,
706.078,4382.8229,
703.168,4385.1978,
700.257,4362.1698,
697.347,4315.5276,
694.436,4299.3731,
691.525,4280.8856,
688.615,4293.2267,
685.704,4290.7876,
682.794,4279.3218,
679.883,4292.9739,
676.973,4272.9396,
674.062,4266.9608,
671.151,4287.7915,
668.241,4303.7243,
665.330,4266.0473,
662.420,4290.808,
659.509,4324.4469,
656.598,4347.799,
653.688,4354.3445,
650.777,4344.6869,
647.867,4309.6485,
644.956,4306.2091,
642.046,4306.3874,
639.135,4307.2768,
636.224,4324.0222,
633.314,4353.3979,
630.403,4341.365,
627.493,4353.608,
624.582,4390.6373,
621.672,4371.6294,
618.761,4418.7512,
615.850,4467.4853,
612.940,4507.8533,
610.029,4539.8457,
607.119,4581.6961,
604.208,4506.3535,
601.297,4515.252,
598.387,4553.4354,
595.476,4545.9892,
592.566,4557.7952,
589.655,4547.5651,
586.745,4533.4975,
583.834,4499.062,
580.923,4411.1404,
578.013,4455.0855,
575.102,4489.2449,
572.192,4495.871,
569.281,4492.4974,
566.371,4573.8903,
563.460,4579.0531,
560.549,4581.7732,
557.639,4591.5148,
554.728,4608.9937,
551.818,4642.5473,
548.907,4679.7362,
545.996,4700.0414,
543.086,4713.1151,
540.175,4765.2844,
537.265,4774.6692,
534.354,4836.0745,
531.444,4877.3195,
528.533,4839.9316,
525.622,4953.2199,
522.712,5031.876,
519.801,5061.1468,
516.891,5069.5601,
513.980,5157.0555,
511.070,5217.7011,
508.159,5279.0354,
505.248,5351.6681,
502.338,5442.592,
499.427,5501.2512,
496.517,5571.178,
493.606,5632.3915,
490.695,5672.1588,
487.785,5681.3963,
484.874,5707.4315,
481.964,5698.8653,
479.053,5665.301,
476.143,5654.5495,
473.232,5659.6302,
470.321,5674.526,
467.411,5673.1859,
464.500,5630.0108,
461.590,5635.3709,
458.679,5655.585,
455.769,5661.4231,
452.858,5643.5792,
449.947,5669.5529,
447.037,5697.9319,
444.126,5705.4811,
441.216,5699.3571,
438.305,5736.6918,
435.395,5728.1066,
432.484,5710.8729,
429.573,5699.36,
426.663,5710.002,
423.752,5735.2847,
420.842,5764.1424,
417.931,5775.5325,
415.020,5739.1313,
412.110,5797.1357,
409.199,5904.9385,
406.289,5997.8268,
403.378,6006.8161,
400.468,5989.4282,
397.557,5947.3704,
394.646,5912.6057,
391.736,5911.368,
388.825,5895.5291,
385.915,5890.875,
383.004,5904.2955,
380.094,5941.33,
377.183,6009.0529,
374.272,6096.8081,
371.362,6186.0737,
368.451,6265.7989,
365.541,6346.8567,
362.630,6402.1957,
359.719,6438.754,
356.809,6457.972,
353.898,6426.5225,
350.988,6436.3195,
348.077,6460.2969,
345.167,6481.6697,
342.256,6497.3581,
339.345,6541.7324,
336.435,6569.38,
333.524,6550.6501,
330.614,6575.2402,
327.703,6593.6565,
324.793,6612.8977,
321.882,6639.0589,
318.971,6714.89,
316.061,6757.4777,
313.150,6794.275,
310.240,6856.6127,
307.329,6868.1653,
304.418,6927.9572,
301.508,6981.6811,
298.597,6932.0732,
295.687,6998.9852,
292.776,7067.4585,
289.866,7173.6362,
286.955,7447.7033,
284.044,7720.8998,
281.134,7933.5246,
278.223,8096.8559,
275.313,8322.3337,
272.402,8495.931,
269.492,8642.6411,
266.581,8778.2198,
263.670,8992.8924,
260.760,9151.5159,
257.849,9260.4052,
254.939,9319.1158,
252.028,9445.824,
249.117,9495.2455,
246.207,9514.1114,
243.296,9580.7267,
240.386,9605.5058,
237.475,9583.3717,
234.565,9514.0094,
231.654,9394.2265,
228.743,9283.7205,
225.833,9213.5575,
222.922,9193.7155,
220.012,9125.9598,
217.101,9076.3949,
214.191,9027.5489,
211.280,8959.8948,
208.369,8923.2528,
205.459,8926.6398,
202.548,8954.6243,
199.638,8953.173,
196.727,8918.8783,
193.816,8886.0484,
190.906,8868.2051,
187.995,8877.6175,
185.085,8872.3636,
182.174,8882.2675,
179.264,8953.8213,
176.353,8960.5934,
173.442,8995.0431,
170.532,9051.8346,
167.621,9008.576,
164.711,8798.736,
161.800,8527.2218,
158.890,8255.8844,
155.979,7744.4048,
153.068,7130.2378,
150.158,6418.9625,
147.247,5578.9583,
144.337,4631.255,
141.426,3640.6009,
138.516,2630.5012,
135.605,1901.7293,
132.694,1305.8138,
129.784,842.54521,
126.873,558.63867,
123.963,385.35376,
121.052,270.96252,
118.141,203.14183,
115.231,166.63591,
112.320,135.77683,
109.410,109.9207,
106.499,89.268196,
103.589,79.83271,
100.678,73.973648,
97.767,68.997085,
94.857,63.331088,
91.946,56.03767,
89.036,48.649204,
86.125,47.230794,
83.215,45.282239,
80.304,41.480673,
77.393,34.398974,
74.483,41.736619,
71.572,42.251479,
68.662,35.390128,
65.751,30.44497,
62.840,31.28351,
59.930,33.875,
57.019,33.875,
54.109,28.500552,
51.198,22.462126,
48.288,16.954274,
45.377,26.801567,
42.466,28.813903,
39.556,25.990119,
36.645,26.692309,
33.735,20.644018,
30.824,16.200322,
27.914,20.407373,
25.003,20.875,
22.092,24.749855,
19.182,32.760586,
16.271,29.263135,
13.361,110.05931,
10.450,262.778,
7.539,494.6187,
4.629,520.28123,
1.718,350.60445,
-1.192,-96.962347,
-4.103,-118.2725,
-7.013,-66.242875,
-9.924,-0.125,
