,PLBA93~1,
Raman shift [1/cm],Intensity,
3014.167,1.625,
3011.256,1.9749678,
3008.346,397.40136,
3005.435,453.97129,
3002.525,480.77768,
2999.614,485.90295,
2996.704,508.48376,
2993.793,532.23502,
2990.882,542.49524,
2987.972,531.80157,
2985.061,559.97475,
2982.151,577.16452,
2979.240,585.07079,
2976.329,600.11135,
2973.419,633.14824,
2970.508,640.19159,
2967.598,665.0993,
2964.687,663.69905,
2961.777,659.12913,
2958.866,697.27286,
2955.955,703.65379,
2953.045,733.87331,
2950.134,742.24312,
2947.224,755.10897,
2944.313,781.9619,
2941.403,778.98175,
2938.492,814.76321,
2935.581,790.79192,
2932.671,815.77946,
2929.760,798.31732,
2926.850,808.57274,
2923.939,833.94745,
2921.028,812.52487,
2918.118,864.66278,
2915.207,858.98591,
2912.297,857.66731,
2909.386,856.85857,
2906.476,869.81882,
2903.565,845.20574,
2900.654,854.63611,
2897.744,858.43642,
2894.833,844.03736,
2891.923,850.3013,
2889.012,860.46315,
2886.102,835.5642,
2883.191,835.61934,
2880.280,832.28528,
2877.370,823.39822,
2874.459,777.32322,
2871.549,837.05974,
2868.638,869.625,
2865.727,890.4442,
2862.817,887.05282,
2859.906,908.39708,
2856.996,915.58424,
2854.085,905.25942,
2851.175,918.2184,
2848.264,912.478,
2845.353,898.71127,
2842.443,898.23266,
2839.532,924.99793,
2836.622,898.92839,
2833.711,905.88403,
2830.801,914.22206,
2827.890,920.48343,
2824.979,928.78509,
2822.069,931.92067,
2819.158,953.4444,
2816.248,958.57868,
2813.337,933.77987,
2810.427,965.91975,
2807.516,958.21516,
2804.605,958.58173,
2801.695,944.4013,
2798.784,960.92477,
2795.874,966.46931,
2792.963,964.48181,
2790.052,968.62243,
2787.142,981.29596,
2784.231,969.49612,
2781.321,966.44218,
2778.410,974.06029,
2775.500,961.49811,
2772.589,977.58601,
2769.678,990.51227,
2766.768,1000.8269,
2763.857,1000.045,
2760.947,1005.7133,
2758.036,1002.6822,
2755.126,1014.4776,
2752.215,1033.5387,
2749.304,1016.0729,
2746.394,1037.2379,
2743.483,1029.025,
2740.573,1041.4967,
2737.662,1040.051,
2734.751,1041.0229,
2731.841,1040.0298,
2728.930,1044.8284,
2726.020,1051.9722,
2723.109,1060.8518,
2720.199,1067.372,
2717.288,1058.7637,
2714.377,1060.1752,
2711.467,1077.0349,
2708.556,1080.3589,
2705.646,1096.6109,
2702.735,1109.4781,
2699.825,1119.3322,
2696.914,1109.625,
2694.003,1097.5339,
2691.093,1122.8922,
2688.182,1110.7346,
2685.272,1092.1385,
2682.361,1111.5955,
2679.450,1109.6703,
2676.540,1109.2347,
2673.629,1138.2932,
2670.719,1153.0409,
2667.808,1148.3059,
2664.898,1129.0666,
2661.987,1147.8588,
2659.076,1177.8448,
2656.166,1165.9323,
2653.255,1180.4753,
2650.345,1190.8972,
2647.434,1196.4824,
2644.524,1206.0111,
2641.613,1205.9393,
2638.702,1198.7355,
2635.792,1200.7207,
2632.881,1200.6367,
2629.971,1216.8599,
2627.060,1242.7941,
2624.149,1216.275,
2621.239,1215.8913,
2618.328,1214.939,
2615.418,1240.975,
2612.507,1241.0716,
2609.597,1232.0022,
2606.686,1248.2354,
2603.775,1252.8671,
2600.865,1267.2701,
2597.954,1275.1583,
2595.044,1300.0085,
2592.133,1302.0774,
2589.223,1292.7934,
2586.312,1306.625,
2583.401,1303.0337,
2580.491,1285.5577,
2577.580,1306.6349,
2574.670,1317.6063,
2571.759,1325.1199,
2568.848,1333.7963,
2565.938,1326.1964,
2563.027,1334.1863,
2560.117,1340.5315,
2557.206,1378.6914,
2554.296,1347.625,
2551.385,1350.691,
2548.474,1364.477,
2545.564,1390.8969,
2542.653,1366.0579,
2539.743,1353.9217,
2536.832,1369.1147,
2533.922,1380.3977,
2531.011,1424.7753,
2528.100,1414.625,
2525.190,1392.4889,
2522.279,1417.625,
2519.369,1414.0026,
2516.458,1423.9713,
2513.548,1413.5435,
2510.637,1410.4695,
2507.726,1434.2532,
2504.816,1412.2484,
2501.905,1431.8421,
2498.995,1445.0278,
2496.084,1435.625,
2493.173,1458.8363,
2490.263,1449.7041,
2487.352,1447.7951,
2484.442,1498.4794,
2481.531,1497.992,
2478.621,1491.7861,
2475.710,1545.0729,
2472.799,1486.45,
2469.889,1526.5945,
2466.978,1515.3571,
2464.068,1526.9055,
2461.157,1520.2775,
2458.247,1512.0661,
2455.336,1521.1553,
2452.425,1548.1297,
2449.515,1537.9556,
2446.604,1562.3807,
2443.694,1576.0436,
2440.783,1574.0056,
2437.872,1575.5156,
2434.962,1576.8278,
2432.051,1598.3783,
2429.141,1579.443,
2426.230,1612.4958,
2423.320,1614.9539,
2420.409,1610.0799,
2417.498,1617.2486,
2414.588,1611.625,
2411.677,1630.0912,
2408.767,1640.0955,
2405.856,1638.2535,
2402.946,1635.0414,
2400.035,1663.8903,
2397.124,1652.1972,
2394.214,1661.7054,
2391.303,1682.4204,
2388.393,1694.4273,
2385.482,1687.7572,
2382.571,1698.3216,
2379.661,1700.0201,
2376.750,1722.625,
2373.840,1703.8001,
2370.929,1722.3651,
2368.019,1721.2506,
2365.108,1743.392,
2362.197,1764.3484,
2359.287,1775.625,
2356.376,1796.588,
2353.466,1759.3664,
2350.555,1771.8599,
2347.645,1774.7296,
2344.734,1778.837,
2341.823,1763.8737,
2338.913,1819.5593,
2336.002,1809.4337,
2333.092,1814.7052,
2330.181,1828.6429,
2327.270,1830.57,
2324.360,1836.2642,
2321.449,1831.7509,
2318.539,1877.8391,
2315.628,1879.9531,
2312.718,1872.2087,
2309.807,1877.0596,
2306.896,1892.5937,
2303.986,1884.1056,
2301.075,1896.0292,
2298.165,1881.4708,
2295.254,1903.0433,
2292.344,1907.5213,
2289.433,1912.0382,
2286.522,1920.8171,
2283.612,1938.6072,
2280.701,1937.7775,
2277.791,1983.104,
2274.880,1976.6169,
2271.969,1996.304,
2269.059,2013.2926,
2266.148,2016.4931,
2263.238,2016.1231,
2260.327,2049.1768,
2257.417,2056.3878,
2254.506,2051.5794,
2251.595,2054.7595,
2248.685,2110.2364,
2245.774,2092.4827,
2242.864,2098.3382,
2239.953,2101.1148,
2237.043,2091.6003,
2234.132,2092.3965,
2231.221,2130.894,
2228.311,2169.4124,
2225.400,2129.6515,
2222.490,2197.954,
2219.579,2189.2574,
2216.669,2208.0225,
2213.758,2259.6303,
2210.847,2264.3404,
2207.937,2341.2454,
2205.026,2318.7352,
2202.116,2349.6558,
2199.205,2376.1118,
2196.294,2429.5269,
2193.384,2445.7045,
2190.473,2485.956,
2187.563,2588.5573,
2184.652,2583.3605,
2181.742,2655.6733,
2178.831,2721.1776,
2175.920,2769.5977,
2173.010,2864.9555,
2170.099,2950.5516,
2167.189,2987.8018,
2164.278,3166.1788,
2161.368,3284.6216,
2158.457,3416.0509,
2155.546,3551.7587,
2152.636,3645.5823,
2149.725,3779.3095,
2146.815,3893.455,
2143.904,3965.3499,
2140.993,4043.3179,
2138.083,4099.4366,
2135.172,4090.1712,
2132.262,4083.3732,
2129.351,4076.5836,
2126.441,3990.6927,
2123.530,3833.0761,
2120.619,3684.653,
2117.709,3557.9422,
2114.798,3372.0591,
2111.888,3241.0279,
2108.977,3094.0687,
2106.067,2961.4451,
2103.156,2874.7962,
2100.245,2805.588,
2097.335,2744.9391,
2094.424,2711.3229,
2091.514,2642.9099,
2088.603,2617.8924,
2085.692,2595.1714,
2082.782,2589.8499,
2079.871,2589.9109,
2076.961,2581.2708,
2074.050,2587.8008,
2071.140,2568.5678,
2068.229,2549.6315,
2065.318,2525.5495,
2062.408,2531.1409,
2059.497,2550.3988,
2056.587,2524.602,
2053.676,2513.5419,
2050.766,2548.6228,
2047.855,2486.3939,
2044.944,2512.226,
2042.034,2511.047,
2039.123,2519.3657,
2036.213,2532.3739,
2033.302,2530.386,
2030.391,2538.0822,
2027.481,2551.8323,
2024.570,2599.9809,
2021.660,2545.5867,
2018.749,2566.5245,
2015.839,2620.0056,
2012.928,2644.7408,
2010.017,2606.7553,
2007.107,2609.6045,
2004.196,2616.3631,
2001.286,2595.3529,
1998.375,2588.625,
1995.465,2581.5455,
1992.554,2597.1543,
1989.643,2594.7978,
1986.733,2557.6583,
1983.822,2592.9197,
1980.912,2600.4675,
1978.001,2624.9478,
1975.090,2595.0082,
1972.180,2609.8311,
1969.269,2618.625,
1966.359,2630.9495,
1963.448,2622.2842,
1960.538,2643.4048,
1957.627,2636.2504,
1954.716,2693.8727,
1951.806,2678.625,
1948.895,2669.698,
1945.985,2614.7525,
1943.074,2629.0901,
1940.164,2603.5577,
1937.253,2625.7288,
1934.342,2650.5651,
1931.432,2620.5335,
1928.521,2631.549,
1925.611,2607.7033,
1922.700,2616.3681,
1919.790,2630.3764,
1916.879,2659.5325,
1913.968,2629.6643,
1911.058,2680.0034,
1908.147,2710.4367,
1905.237,2690.4191,
1902.326,2695.7346,
1899.415,2682.9262,
1896.505,2652.0648,
1893.594,2664.5335,
1890.684,2689.3765,
1887.773,2723.754,
1884.863,2712.215,
1881.952,2690.8601,
1879.041,2685.8685,
1876.131,2696.2119,
1873.220,2716.9304,
1870.310,2661.1453,
1867.399,2706.8093,
1864.489,2699.5986,
1861.578,2722.5976,
1858.667,2716.8795,
1855.757,2742.8207,
1852.846,2734.0558,
1849.936,2720.8322,
1847.025,2771.9827,
1844.114,2767.9262,
1841.204,2808.5096,
1838.293,2812.6483,
1835.383,2821.0315,
1832.472,2851.4859,
1829.562,2851.3206,
1826.651,2847.9926,
1823.740,2847.1691,
1820.830,2853.5699,
1817.919,2837.7087,
1815.009,2847.3247,
1812.098,2855.0108,
1809.188,2956.9271,
1806.277,2909.8423,
1803.366,2924.7747,
1800.456,2930.0528,
1797.545,2870.1001,
1794.635,2893.5261,
1791.724,2952.1396,
1788.813,2952.435,
1785.903,2998.1637,
1782.992,3020.4088,
1780.082,2949.8174,
1777.171,2958.2985,
1774.261,2992.3852,
1771.350,3020.6848,
1768.439,3043.1785,
1765.529,3039.8055,
1762.618,3022.4456,
1759.708,3046.3427,
1756.797,3088.3068,
1753.887,3097.1891,
1750.976,3085.8318,
1748.065,3094.8293,
1745.155,3096.0444,
1742.244,3116.4483,
1739.334,3148.1121,
1736.423,3155.2119,
1733.512,3214.2918,
1730.602,3239.6171,
1727.691,3273.6344,
1724.781,3293.0639,
1721.870,3342.3015,
1718.960,3378.292,
1716.049,3360.1337,
1713.138,3386.4048,
1710.228,3377.7002,
1707.317,3388.8936,
1704.407,3401.4058,
1701.496,3466.4333,
1698.586,3479.0929,
1695.675,3526.4104,
1692.764,3533.4119,
1689.854,3547.9754,
1686.943,3625.9269,
1684.033,3637.4015,
1681.122,3722.1637,
1678.211,3770.1777,
1675.301,3804.5202,
1672.390,3853.9719,
1669.480,3970.7641,
1666.569,4112.4248,
1663.659,4175.8009,
1660.748,4249.1509,
1657.837,4379.0028,
1654.927,4441.609,
1652.016,4486.197,
1649.106,4632.3179,
1646.195,4742.718,
1643.285,4871.3822,
1640.374,4991.5274,
1637.463,5085.7591,
1634.553,5367.9747,
1631.642,5527.6001,
1628.732,5799.9404,
1625.821,6020.8677,
1622.911,6389.5344,
1620.000,6754.9887,
1617.089,7085.9981,
1614.179,7430.811,
1611.268,7872.9321,
1608.358,8234.675,
1605.447,8471.3125,
1602.536,8754.8723,
1599.626,8813.2622,
1596.715,8973.64,
1593.805,8852.7922,
1590.894,8776.7394,
1587.984,8773.8216,
1585.073,8642.7484,
1582.162,8481.8688,
1579.252,8293.4197,
1576.341,8259.2271,
1573.431,8106.1229,
1570.520,7997.8886,
1567.610,7950.8011,
1564.699,7852.4463,
1561.788,7690.4572,
1558.878,7605.9007,
1555.967,7472.7054,
1553.057,7349.1084,
1550.146,7200.5489,
1547.235,7081.2182,
1544.325,6975.8025,
1541.414,6864.9991,
1538.504,6819.6802,
1535.593,6810.426,
1532.683,6780.7086,
1529.772,6741.0815,
1526.861,6739.9601,
1523.951,6792.5156,
1521.040,6841.4664,
1518.130,6880.7409,
1515.219,6889.5849,
1512.309,6897.8457,
1509.398,6898.1727,
1506.487,6852.7594,
1503.577,6813.9117,
1500.666,6865.4545,
1497.756,6795.2854,
1494.845,6726.1025,
1491.934,6618.0408,
1489.024,6745.0898,
1486.113,6746.8434,
1483.203,6688.0059,
1480.292,6621.2292,
1477.382,6470.7981,
1474.471,6393.8844,
1471.560,6325.4744,
1468.650,6310.0912,
1465.739,6342.0875,
1462.829,6419.5004,
1459.918,6490.4595,
1457.008,6527.8252,
1454.097,6522.6008,
1451.186,6449.2266,
1448.276,6334.6694,
1445.365,6209.0081,
1442.455,6065.6596,
1439.544,5982.0427,
1436.633,5934.5962,
1433.723,5927.813,
1430.812,5783.1765,
1427.902,5802.0613,
1424.991,5778.3672,
1422.081,5786.7998,
1419.170,5804.0421,
1416.259,5767.742,
1413.349,5710.2896,
1410.438,5705.1217,
1407.528,5727.6498,
1404.617,5786.3566,
1401.707,5784.0591,
1398.796,5735.1041,
1395.885,5694.7154,
1392.975,5650.5203,
1390.064,5582.1843,
1387.154,5438.0056,
1384.243,5297.5529,
1381.332,5213.301,
1378.422,5208.6335,
1375.511,5480.2999,
1372.601,5848.6453,
1369.690,5952.4889,
1366.780,6095.3108,
1363.869,6118.0014,
1360.958,6233.1241,
1358.048,6313.0177,
1355.137,6388.1814,
1352.227,6499.9848,
1349.316,6616.9504,
1346.406,6704.9692,
1343.495,6757.7453,
1340.584,6884.6239,
1337.674,6956.0906,
1334.763,6975.2842,
1331.853,6940.0494,
1328.942,7053.3659,
1326.032,7121.456,
1323.121,7144.7395,
1320.210,7185.9166,
1317.300,7233.5464,
1314.389,7301.4176,
1311.479,7397.3042,
1308.568,7462.625,
1305.657,7522.7499,
1302.747,7706.1448,
1299.836,7835.5244,
1296.926,7940.4864,
1294.015,8217.2028,
1291.105,8374.7949,
1288.194,8456.927,
1285.283,8583.6055,
1282.373,8778.2338,
1279.462,8871.1151,
1276.552,8937.8772,
1273.641,9033.5402,
1270.731,9050.8668,
1267.820,8979.9285,
1264.909,8900.1626,
1261.999,8837.127,
1259.088,8796.0816,
1256.178,8661.7307,
1253.267,8517.6409,
1250.356,8340.4334,
1247.446,8231.3806,
1244.535,8081.7057,
1241.625,7894.6289,
1238.714,7726.0777,
1235.804,7540.0669,
1232.893,7437.3923,
1229.982,7351.787,
1227.072,7149.9024,
1224.161,7006.1874,
1221.251,6933.2319,
1218.340,6805.8492,
1215.430,6706.537,
1212.519,6633.4239,
1209.608,6551.0224,
1206.698,6482.9439,
1203.787,6462.9215,
1200.877,6501.599,
1197.966,6662.5485,
1195.055,6812.2643,
1192.145,7023.7095,
1189.234,7239.3888,
1186.324,7419.7252,
1183.413,7524.4727,
1180.503,7576.2094,
1177.592,7581.4525,
1174.681,7436.197,
1171.771,7280.7184,
1168.860,7241.4224,
1165.950,7162.6401,
1163.039,7073.3879,
1160.129,7046.1641,
1157.218,7135.6382,
1154.307,7238.1586,
1151.397,7281.039,
1148.486,7360.8757,
1145.576,7355.6613,
1142.665,7333.4635,
1139.754,7248.6349,
1136.844,7174.3011,
1133.933,7112.5021,
1131.023,7009.1455,
1128.112,6889.7013,
1125.202,6803.7459,
1122.291,6727.8811,
1119.380,6743.5817,
1116.470,6739.1691,
1113.559,6689.1371,
1110.649,6649.086,
1107.738,6595.4386,
1104.828,6536.4912,
1101.917,6447.5931,
1099.006,6323.1094,
1096.096,6353.195,
1093.185,6346.171,
1090.275,6360.1919,
1087.364,6379.4058,
1084.453,6440.6216,
1081.543,6510.6711,
1078.632,6558.2206,
1075.722,6574.7862,
1072.811,6532.9019,
1069.901,6480.5062,
1066.990,6468.5417,
1064.079,6506.7753,
1061.169,6461.0058,
1058.258,6417.9417,
1055.348,6435.9163,
1052.437,6441.0815,
1049.527,6401.7858,
1046.616,6380.0651,
1043.705,6444.6816,
1040.795,6414.1831,
1037.884,6362.3611,
1034.974,6361.2255,
1032.063,6396.6712,
1029.153,6396.0138,
1026.242,6415.9078,
1023.331,6414.9584,
1020.421,6491.3062,
1017.510,6552.0785,
1014.600,6626.0683,
1011.689,6721.2858,
1008.778,6813.6125,
1005.868,7007.069,
1002.957,7167.9553,
1000.047,7357.8811,
997.136,7477.1829,
994.226,7501.1176,
991.315,7442.8726,
988.404,7331.0084,
985.494,7195.8631,
982.583,7072.519,
979.673,7034.8705,
976.762,7020.5798,
973.852,6965.2358,
970.941,6913.4802,
968.030,6945.3823,
965.120,6966.5283,
962.209,6943.5097,
959.299,6971.4962,
956.388,7017.1029,
953.477,7041.3919,
950.567,7052.4348,
947.656,7095.7553,
944.746,7150.1269,
941.835,7164.7722,
938.925,7163.0186,
936.014,7121.1706,
933.103,7098.8673,
930.193,7113.843,
927.282,7051.8295,
924.372,7000.2474,
921.461,6921.4578,
918.551,6798.6091,
915.640,6700.1538,
912.729,6651.4275,
909.819,6611.5037,
906.908,6519.6793,
903.998,6581.4356,
901.087,6631.7233,
898.176,6668.7584,
895.266,6729.8869,
892.355,6814.8556,
889.445,6794.7132,
886.534,6939.8927,
883.624,6988.1371,
880.713,7056.8263,
877.802,7095.2132,
874.892,7058.9704,
871.981,7050.9937,
869.071,7024.2605,
866.160,7055.5029,
863.250,7045.4149,
860.339,7028.0685,
857.428,7031.59,
854.518,6998.7564,
851.607,7037.8636,
848.697,7004.7316,
845.786,7020.3578,
842.875,7061.4124,
839.965,7087.8874,
837.054,7126.2762,
834.144,7184.2889,
831.233,7178.2929,
828.323,7164.6793,
825.412,7173.7914,
822.501,7193.795,
819.591,7139.2526,
816.680,7035.862,
813.770,6978.6734,
810.859,6910.891,
807.949,6845.2859,
805.038,6825.6383,
802.127,6800.9444,
799.217,6757.6285,
796.306,6740.2196,
793.396,6744.2434,
790.485,6734.1987,
787.574,6661.3926,
784.664,6760.6262,
781.753,6771.9152,
778.843,6787.2481,
775.932,6810.9459,
773.022,6821.1322,
770.111,6824.4025,
767.200,6793.4112,
764.290,6799.8056,
761.379,6800.5967,
758.469,6772.3246,
755.558,6727.8015,
752.648,6666.7063,
749.737,6554.7483,
746.826,6478.7802,
743.916,6381.1434,
741.005,6142.7025,
738.095,5665.3189,
735.184,5211.7669,
732.274,5119.8881,
729.363,5440.8761,
726.452,6025.1823,
723.542,6404.7877,
720.631,6557.1257,
717.721,6637.1513,
714.810,6681.0908,
711.899,6700.8626,
708.989,6684.7241,
706.078,6648.5664,
703.168,6686.381,
700.257,6678.6684,
697.347,6615.0608,
694.436,6581.7161,
691.525,6621.9064,
688.615,6618.0468,
685.704,6597.2425,
682.794,6611.2204,
679.883,6715.2017,
676.973,6728.0236,
674.062,6765.0814,
671.151,6785.94,
668.241,6776.1891,
665.330,6739.1712,
662.420,6729.5864,
659.509,6764.451,
656.598,6791.6835,
653.688,6828.6104,
650.777,6925.922,
647.867,6934.6816,
644.956,6911.859,
642.046,6892.0644,
639.135,6879.3367,
636.224,6855.7444,
633.314,6879.5625,
630.403,6927.601,
627.493,6926.2831,
624.582,6879.5673,
621.672,6888.2792,
618.761,6963.859,
615.850,6951.2598,
612.940,6957.4861,
610.029,7030.8337,
607.119,7056.1019,
604.208,7069.9852,
601.297,7057.1769,
598.387,7033.3191,
595.476,7023.9387,
592.566,7090.8395,
589.655,7089.0193,
586.745,7057.3228,
583.834,7007.8387,
580.923,6944.9283,
578.013,6995.1513,
575.102,7049.9234,
572.192,7117.7826,
569.281,7188.4212,
566.371,7209.552,
563.460,7255.364,
560.549,7305.2981,
557.639,7346.9505,
554.728,7371.3495,
551.818,7398.6606,
548.907,7447.2839,
545.996,7493.6757,
543.086,7515.9079,
540.175,7480.0902,
537.265,7461.6909,
534.354,7439.5709,
531.444,7428.0835,
528.533,7443.2118,
525.622,7493.6484,
522.712,7524.6479,
519.801,7530.7512,
516.891,7529.3283,
513.980,7577.3347,
511.070,7578.8076,
508.159,7612.0098,
505.248,7672.1576,
502.338,7740.1672,
499.427,7758.6912,
496.517,7829.2411,
493.606,7901.8335,
490.695,7941.4526,
487.785,7911.4308,
484.874,7868.4978,
481.964,7898.7042,
479.053,7948.1943,
476.143,7854.5029,
473.232,7885.3146,
470.321,7927.3599,
467.411,7976.3793,
464.500,8032.3754,
461.590,7943.5495,
458.679,7901.5659,
455.769,7906.5289,
452.858,7958.7599,
449.947,8065.7103,
447.037,8107.6481,
444.126,8094.0068,
441.216,8056.1654,
438.305,8099.5955,
435.395,8127.261,
432.484,8124.4554,
429.573,8116.6951,
426.663,8168.3847,
423.752,8188.6656,
420.842,8262.3012,
417.931,8367.4813,
415.020,8458.4842,
412.110,8559.6612,
409.199,8681.6885,
406.289,8832.8739,
403.378,9019.8873,
400.468,8802.1609,
397.557,8676.5827,
394.646,8572.4493,
391.736,8425.9228,
388.825,8185.323,
385.915,8077.3714,
383.004,8112.5843,
380.094,8289.8805,
377.183,8432.0986,
374.272,8582.895,
371.362,8700.7598,
368.451,8762.4091,
365.541,8824.7036,
362.630,8892.4254,
359.719,8922.4903,
356.809,8897.0232,
353.898,8953.183,
350.988,8925.2261,
348.077,8889.4962,
345.167,8892.8359,
342.256,8916.7421,
339.345,8907.682,
336.435,8897.5113,
333.524,8909.5275,
330.614,8969.8851,
327.703,9007.1076,
324.793,9034.9366,
321.882,9064.863,
318.971,9162.9974,
316.061,9278.1735,
313.150,9415.1273,
310.240,9580.6191,
307.329,9677.3839,
304.418,9738.7024,
301.508,9741.2526,
298.597,9638.3347,
295.687,9612.0167,
292.776,9679.4587,
289.866,9879.9734,
286.955,10327.641,
284.044,10789.467,
281.134,11178.368,
278.223,11480.037,
275.313,11708.462,
272.402,11917.535,
269.492,12173.991,
266.581,12497.067,
263.670,12783.052,
260.760,12932.49,
257.849,13026.217,
254.939,13119.42,
252.028,13224.859,
249.117,13358.275,
246.207,13431.743,
243.296,13285.335,
240.386,13227.181,
237.475,13151.991,
234.565,13071.076,
231.654,13092.988,
228.743,12920.412,
225.833,12747.549,
222.922,12650.912,
220.012,12635.612,
217.101,12642.402,
214.191,12616.595,
211.280,12490.017,
208.369,12420.745,
205.459,12392.024,
202.548,12367.931,
199.638,12224.978,
196.727,12231.35,
193.816,12213.074,
190.906,12112.038,
187.995,12180.82,
185.085,12238.198,
182.174,12277.78,
179.264,12285.73,
176.353,12293.033,
173.442,12297.713,
170.532,12287.276,
167.621,12181.293,
164.711,11933.463,
161.800,11588.658,
158.890,11158.261,
155.979,10458.391,
153.068,9571.2926,
150.158,8524.2575,
147.247,7358.3031,
144.337,6089.2979,
141.426,4808.9988,
138.516,3558.0236,
135.605,2554.6295,
132.694,1748.2387,
129.784,1132.8984,
126.873,754.59472,
123.963,532.51212,
121.052,378.43188,
118.141,267.06317,
115.231,203.38424,
112.320,165.76319,
109.410,144.30715,
106.499,116.53309,
103.589,107.82373,
100.678,98.834457,
97.767,81.061018,
94.857,81.317989,
91.946,79.206335,
89.036,74.044429,
86.125,64.115555,
83.215,61.625,
80.304,59.948971,
77.393,54.991782,
74.483,52.659595,
71.572,48.001479,
68.662,41.625,
65.751,41.625,
62.840,42.588404,
59.930,44.748717,
57.019,48.979209,
54.109,43.056231,
51.198,39.529828,
48.288,41.574038,
45.377,35.243635,
42.466,28.090587,
39.556,22.315711,
36.645,26.528853,
33.735,30.740491,
30.824,34.066774,
27.914,35.469124,
25.003,35.002363,
22.092,37.531141,
19.182,43.808063,
16.271,49.403984,
13.361,130.01618,
10.450,304.33032,
7.539,691.89534,
4.629,1107.0669,
1.718,1313.5324,
-1.192,1026.3088,
-4.103,612.26225,
-7.013,257.04879,
-9.924,1.625,
