,PL3901~1,
Wavenumbers [1/cm],Intensity,
3014.167,1,
3011.256,1.4499893,
3008.346,18.18259,
3005.435,0.27208836,
3002.525,1.3199105,
2999.614,2.3766362,
2996.704,10.681443,
2993.793,-0.37154396,
2990.882,5.4732375,
2987.972,16.863786,
2985.061,2.4138091,
2982.151,14.477308,
2979.240,5.5323128,
2976.329,4.2377144,
2973.419,19.815404,
2970.508,17.15001,
2967.598,11.856626,
2964.687,15.208559,
2961.777,0.25618919,
2958.866,26.338777,
2955.955,11.411514,
2953.045,20.899323,
2950.134,14.787169,
2947.224,0.59784517,
2944.313,24.146012,
2941.403,20.178377,
2938.492,21,
2935.581,20.295707,
2932.671,25.36052,
2929.760,23.188454,
2926.850,28.477443,
2923.939,18.920565,
2921.028,27.788344,
2918.118,39.596972,
2915.207,19.120304,
2912.297,25.983075,
2909.386,26.992703,
2906.476,10.294962,
2903.565,18.742224,
2900.654,20.729009,
2897.744,31.937139,
2894.833,24.113456,
2891.923,15.945498,
2889.012,0.20231361,
2886.102,12.147305,
2883.191,15.991504,
2880.280,51.282278,
2877.370,-7.4069128,
2874.459,-33.692013,
2871.549,-57.644646,
2868.638,1.4597492,
2865.727,-10.315388,
2862.817,18.687142,
2859.906,-5.7834891,
2856.996,28.990943,
2854.085,36.281522,
2851.175,13.641587,
2848.264,14.063831,
2845.353,7.0862681,
2842.443,16.989555,
2839.532,11.253821,
2836.622,32.359378,
2833.711,17.784937,
2830.801,33.79118,
2827.890,18.645098,
2824.979,22.703947,
2822.069,29.965884,
2819.158,27.760109,
2816.248,23.023159,
2813.337,34.071959,
2810.427,30.471064,
2807.516,32.899376,
2804.605,19.064912,
2801.695,28.736837,
2798.784,10.330615,
2795.874,19.139838,
2792.963,12.999785,
2790.052,31.994853,
2787.142,25.039578,
2784.231,21.097845,
2781.321,27.182817,
2778.410,17.489843,
2775.500,23.297585,
2772.589,28.461772,
2769.678,28.750869,
2766.768,33.116516,
2763.857,23.633914,
2760.947,37.968479,
2758.036,33,
2755.126,32.957262,
2752.215,24.254598,
2749.304,28,
2746.394,29.788309,
2743.483,37.249965,
2740.573,23.595044,
2737.662,22.776628,
2734.751,22.558244,
2731.841,24.783883,
2728.930,13.266845,
2726.020,24.10706,
2723.109,28.979249,
2720.199,35.118847,
2717.288,23.175184,
2714.377,29.354101,
2711.467,36.246149,
2708.556,21.351158,
2705.646,24.760581,
2702.735,39.989683,
2699.825,30.978186,
2696.914,42.524105,
2694.003,33.74309,
2691.093,33.339348,
2688.182,28.89037,
2685.272,53.291613,
2682.361,22,
2679.450,35.448508,
2676.540,21.10162,
2673.629,20.690612,
2670.719,24.131248,
2667.808,22.486356,
2664.898,39.194548,
2661.987,39.266379,
2659.076,29.745688,
2656.166,37.515199,
2653.255,29.850342,
2650.345,29.295825,
2647.434,28.685911,
2644.524,32.911257,
2641.613,37.600253,
2638.702,35.110467,
2635.792,39.031901,
2632.881,35.732114,
2629.971,25.657649,
2627.060,40.832813,
2624.149,47.756246,
2621.239,44.23666,
2618.328,35.745677,
2615.418,26.681814,
2612.507,20.620551,
2609.597,39.163673,
2606.686,37.19478,
2603.775,39.920636,
2600.865,34.354925,
2597.954,37.670797,
2595.044,46.705046,
2592.133,31.273817,
2589.223,43.048436,
2586.312,41.341705,
2583.401,35.368588,
2580.491,36.889393,
2577.580,38.975245,
2574.670,24.553474,
2571.759,40.86386,
2568.848,40.65187,
2565.938,39.904769,
2563.027,41.927254,
2560.117,38.7383,
2557.206,38.520295,
2554.296,42.970252,
2551.385,45.884079,
2548.474,64.444611,
2545.564,46.696422,
2542.653,62.231543,
2539.743,52.135549,
2536.832,31.183173,
2533.922,47.936923,
2531.011,49.224558,
2528.100,51.271741,
2525.190,64.71721,
2522.279,55.671714,
2519.369,47.792526,
2516.458,35.548868,
2513.548,50.654228,
2510.637,48.168171,
2507.726,59.442362,
2504.816,44.437429,
2501.905,50.492683,
2498.995,37.13466,
2496.084,53.773512,
2493.173,44.368211,
2490.263,49.370638,
2487.352,60.457466,
2484.442,52.841526,
2481.531,59.207505,
2478.621,57.071101,
2475.710,57.061342,
2472.799,60.560587,
2469.889,44.576173,
2466.978,48.494784,
2464.068,51.957675,
2461.157,42.577486,
2458.247,47.985329,
2455.336,55.29746,
2452.425,46.301875,
2449.515,63.914752,
2446.604,49.705064,
2443.694,55.069912,
2440.783,66.906532,
2437.872,46.474044,
2434.962,60.05069,
2432.051,61.049347,
2429.141,61.847022,
2426.230,50.847485,
2423.320,61.770946,
2420.409,64.602898,
2417.498,66.514082,
2414.588,59.205444,
2411.677,58.322725,
2408.767,66.494095,
2405.856,69.690452,
2402.946,61.309206,
2400.035,62.192494,
2397.124,57.898391,
2394.214,65.973199,
2391.303,64.248646,
2388.393,48.309272,
2385.482,58.339073,
2382.571,40.506405,
2379.661,33.162878,
2376.750,39.470354,
2373.840,64.903057,
2370.929,68.01083,
2368.019,62.265403,
2365.108,52.628272,
2362.197,54.375366,
2359.287,61.991644,
2356.376,69.987672,
2353.466,73.714152,
2350.555,47.555128,
2347.645,51.223843,
2344.734,68.912487,
2341.823,71.04975,
2338.913,64,
2336.002,67.337291,
2333.092,64.551873,
2330.181,64.035789,
2327.270,45.210117,
2324.360,59.419783,
2321.449,77.261911,
2318.539,78.935773,
2315.628,65.538367,
2312.718,74.248906,
2309.807,63.819761,
2306.896,74.496087,
2303.986,70.824656,
2301.075,71.702114,
2298.165,95.54848,
2295.254,65.775549,
2292.344,58.838121,
2289.433,73.328181,
2286.522,82.781162,
2283.612,95.760208,
2280.701,85.748901,
2277.791,72.959925,
2274.880,68.576065,
2271.969,62.962965,
2269.059,71.765665,
2266.148,69.270451,
2263.238,64.501934,
2260.327,79.41358,
2257.417,57.288334,
2254.506,62.282083,
2251.595,66.720037,
2248.685,76.730716,
2245.774,69.384833,
2242.864,86.972554,
2239.953,96.675943,
2237.043,77.324292,
2234.132,68.34806,
2231.221,83.34375,
2228.311,83.91109,
2225.400,102.52153,
2222.490,85.628656,
2219.579,82.632384,
2216.669,91.942766,
2213.758,92.25881,
2210.847,64.236805,
2207.937,97.371285,
2205.026,95.333236,
2202.116,92.493642,
2199.205,84.424473,
2196.294,91.62801,
2193.384,83.315991,
2190.473,70.704223,
2187.563,111.99033,
2184.652,111.05428,
2181.742,103.40741,
2178.831,87.708242,
2175.920,106.66849,
2173.010,107.17517,
2170.099,106.26686,
2167.189,118.89237,
2164.278,106.78794,
2161.368,123.28568,
2158.457,121.88186,
2155.546,119.56058,
2152.636,119.30319,
2149.725,123.16107,
2146.815,147.19915,
2143.904,120.90334,
2140.993,129.6984,
2138.083,137.10636,
2135.172,150.46221,
2132.262,146.86356,
2129.351,142,
2126.441,135.81552,
2123.530,135.19081,
2120.619,149.93587,
2117.709,133.04469,
2114.798,126.66159,
2111.888,120.16311,
2108.977,119.71524,
2106.067,109.55731,
2103.156,123.35637,
2100.245,100.00878,
2097.335,111.59163,
2094.424,98.068941,
2091.514,103.49187,
2088.603,100.44235,
2085.692,114.3643,
2082.782,109.63859,
2079.871,94.677951,
2076.961,106.96675,
2074.050,121.70909,
2071.140,113.26458,
2068.229,103.62629,
2065.318,120.59301,
2062.408,121.10591,
2059.497,122.41668,
2056.587,126.58142,
2053.676,124.36677,
2050.766,117.53886,
2047.855,130.34498,
2044.944,110.79326,
2042.034,125.68204,
2039.123,126.22222,
2036.213,132.07993,
2033.302,131.02145,
2030.391,124.45824,
2027.481,132.08518,
2024.570,128.04315,
2021.660,128.82261,
2018.749,141,
2015.839,140.46194,
2012.928,133.55201,
2010.017,125.89577,
2007.107,138.60562,
2004.196,138.85712,
2001.286,142.06359,
1998.375,137.562,
1995.465,133,
1992.554,131.24707,
1989.643,116.51846,
1986.733,117.62544,
1983.822,114.1034,
1980.912,132.08904,
1978.001,128.68646,
1975.090,117.63968,
1972.180,102.48271,
1969.269,121.6811,
1966.359,110.05372,
1963.448,114.9934,
1960.538,130.92661,
1957.627,110.70896,
1954.716,118.684,
1951.806,129.5529,
1948.895,120.74494,
1945.985,119.81699,
1943.074,114.58685,
1940.164,107.23109,
1937.253,122.66978,
1934.342,115.05133,
1931.432,122.73186,
1928.521,119.45423,
1925.611,116.27923,
1922.700,106.50276,
1919.790,116.91893,
1916.879,133.88401,
1913.968,115.02459,
1911.058,141.009,
1908.147,126.33576,
1905.237,122.99265,
1902.326,128.84592,
1899.415,112.6768,
1896.505,65.08429,
1893.594,84.439118,
1890.684,84.536151,
1887.773,83.145867,
1884.863,101.72437,
1881.952,111.4624,
1879.041,128.86034,
1876.131,132.18562,
1873.220,97.1326,
1870.310,139.34072,
1867.399,154.80808,
1864.489,93.090419,
1861.578,121.40099,
1858.667,132.21259,
1855.757,117.79356,
1852.846,117.96412,
1849.936,94.883887,
1847.025,88.941607,
1844.114,104.70359,
1841.204,134.15734,
1838.293,136.50249,
1835.383,118.60502,
1832.472,137.02435,
1829.562,143.66875,
1826.651,132.94867,
1823.740,121.08044,
1820.830,122.40162,
1817.919,131.32939,
1815.009,110.73792,
1812.098,125.85038,
1809.188,148.63561,
1806.277,108.92954,
1803.366,128.04991,
1800.456,131.05496,
1797.545,132,
1794.635,131.35499,
1791.724,131.6213,
1788.813,155,
1785.903,154.76551,
1782.992,157.21909,
1780.082,145.81541,
1777.171,71.652016,
1774.261,34.885361,
1771.350,73.915003,
1768.439,109.40753,
1765.529,153.72967,
1762.618,171.41563,
1759.708,153.56501,
1756.797,166.27273,
1753.887,177.63994,
1750.976,178.56217,
1748.065,184.9278,
1745.155,183,
1742.244,183,
1739.334,183,
1736.423,182.29346,
1733.512,176.17885,
1730.602,185.22025,
1727.691,223.54472,
1724.781,200.17721,
1721.870,207.9001,
1718.960,231.73357,
1716.049,186.50049,
1713.138,220.60479,
1710.228,207.98317,
1707.317,204.11543,
1704.407,213.88237,
1701.496,226.85012,
1698.586,227.07602,
1695.675,227,
1692.764,189.13113,
1689.854,196.56693,
1686.943,263.67293,
1684.033,251.37254,
1681.122,251.98301,
1678.211,238.13324,
1675.301,261.926,
1672.390,204,
1669.480,204.4011,
1666.569,254.3047,
1663.659,277.78768,
1660.748,265.03856,
1657.837,267.34992,
1654.927,282.90628,
1652.016,277.88224,
1649.106,233.75891,
1646.195,265.17484,
1643.285,313.18229,
1640.374,319.70384,
1637.463,259.81066,
1634.553,304.47289,
1631.642,336.49946,
1628.732,381.78668,
1625.821,346.02944,
1622.911,390.74642,
1620.000,372.23938,
1617.089,402.38308,
1614.179,417.57698,
1611.268,390.07816,
1608.358,474.78592,
1605.447,492.20011,
1602.536,468.77093,
1599.626,496.43785,
1596.715,482.66318,
1593.805,469.37369,
1590.894,489.13608,
1587.984,537.03679,
1585.073,469.12812,
1582.162,444.3116,
1579.252,463.27583,
1576.341,476.8117,
1573.431,447.67303,
1570.520,432.12061,
1567.610,449.37285,
1564.699,443.67449,
1561.788,452.38015,
1558.878,451.85513,
1555.967,435.78671,
1553.057,412.41396,
1550.146,402.38546,
1547.235,386.06119,
1544.325,401.01447,
1541.414,413.4392,
1538.504,409.05521,
1535.593,406.61777,
1532.683,389.59636,
1529.772,386.64357,
1526.861,404.41397,
1523.951,403.15463,
1521.040,409.0454,
1518.130,433.19572,
1515.219,436.23931,
1512.309,448.35582,
1509.398,414.07413,
1506.487,416.55126,
1503.577,411.76344,
1500.666,420.54498,
1497.756,410.37305,
1494.845,425.91941,
1491.934,399.87716,
1489.024,362.33994,
1486.113,422.19623,
1483.203,392.36146,
1480.292,383.75744,
1477.382,420.17942,
1474.471,386.79416,
1471.560,369.646,
1468.650,363.90036,
1465.739,384.41715,
1462.829,384.46683,
1459.918,378.76245,
1457.008,385.06159,
1454.097,388.07568,
1451.186,387.83172,
1448.276,376.82401,
1445.365,333.81754,
1442.455,290.00652,
1439.544,307.42238,
1436.633,336.15492,
1433.723,319.6201,
1430.812,331.81271,
1427.902,342.33825,
1424.991,356.55468,
1422.081,345.0728,
1419.170,356.96091,
1416.259,343.6088,
1413.349,347.55241,
1410.438,363.99559,
1407.528,342.96285,
1404.617,353.24651,
1401.707,327.54488,
1398.796,280.97555,
1395.885,288.53557,
1392.975,304.56219,
1390.064,306.8927,
1387.154,342.42973,
1384.243,330.37864,
1381.332,312.11468,
1378.422,303.79237,
1375.511,280.37285,
1372.601,264.3333,
1369.690,305.0039,
1366.780,285.0708,
1363.869,382.61269,
1360.958,354.65794,
1358.048,325.93312,
1355.137,362.59241,
1352.227,384.22218,
1349.316,389.7755,
1346.406,407.25238,
1343.495,386.52959,
1340.584,369.74938,
1337.674,410.96481,
1334.763,419.14114,
1331.853,422.85007,
1328.942,400.7634,
1326.032,406.97183,
1323.121,396.4036,
1320.210,405.98434,
1317.300,425.98511,
1314.389,448.87527,
1311.479,460.68933,
1308.568,467.62059,
1305.657,473.44744,
1302.747,461.3336,
1299.836,507.42012,
1296.926,490.15368,
1294.015,514.97542,
1291.105,486.06158,
1288.194,513.94972,
1285.283,489.06386,
1282.373,500.6796,
1279.462,508.9609,
1276.552,525.37017,
1273.641,534.81574,
1270.731,522.93733,
1267.820,550.05296,
1264.909,536.08802,
1261.999,542.03602,
1259.088,488.22087,
1256.178,519.25826,
1253.267,506.58731,
1250.356,488.80943,
1247.446,492.97436,
1244.535,492.56698,
1241.625,484.5963,
1238.714,482.44319,
1235.804,478.34466,
1232.893,479.61941,
1229.982,505,
1227.072,505,
1224.161,485.66841,
1221.251,482.74451,
1218.340,459.67877,
1215.430,472.87516,
1212.519,474.07858,
1209.608,458.15064,
1206.698,472.23402,
1203.787,466.2613,
1200.877,446.78009,
1197.966,459.36832,
1195.055,473.65198,
1192.145,479.00537,
1189.234,510.49324,
1186.324,548.82028,
1183.413,550.65988,
1180.503,544.16473,
1177.592,568.7474,
1174.681,552.67809,
1171.771,517.46298,
1168.860,580.87233,
1165.950,538.62263,
1163.039,516.52396,
1160.129,500.79275,
1157.218,521.36342,
1154.307,553.4841,
1151.397,549.74371,
1148.486,537.69455,
1145.576,567.87988,
1142.665,519.04467,
1139.754,553.24055,
1136.844,575.30575,
1133.933,572.78891,
1131.023,530.64862,
1128.112,513.9251,
1125.202,551.44446,
1122.291,538.01079,
1119.380,565.7315,
1116.470,538.37312,
1113.559,528.04076,
1110.649,530.58392,
1107.738,529.24927,
1104.828,518.92631,
1101.917,512.25458,
1099.006,518.59797,
1096.096,510.60241,
1093.185,487.77435,
1090.275,524.0357,
1087.364,526.82489,
1084.453,555.498,
1081.543,549.76275,
1078.632,526.66972,
1075.722,563.82091,
1072.811,574.5728,
1069.901,554.4878,
1066.990,523.09174,
1064.079,526.20771,
1061.169,518.84937,
1058.258,514.08183,
1055.348,521.29396,
1052.437,516.4244,
1049.527,489.71189,
1046.616,534.02219,
1043.705,525.89699,
1040.795,523.27701,
1037.884,525.51721,
1034.974,524.76546,
1032.063,526.24597,
1029.153,541.13048,
1026.242,525.56126,
1023.331,508.3344,
1020.421,555.88841,
1017.510,583.04248,
1014.600,576.84968,
1011.689,558.15381,
1008.778,544.97372,
1005.868,538.91506,
1002.957,529.45116,
1000.047,541.83201,
997.136,589.28745,
994.226,616.76927,
991.315,615.52228,
988.404,609.11005,
985.494,558.2877,
982.583,571.13604,
979.673,553.24554,
976.762,568.89698,
973.852,577.48583,
970.941,570.37105,
968.030,576.30058,
965.120,578.13962,
962.209,611.38876,
959.299,590.79478,
956.388,582.23986,
953.477,581.53384,
950.567,589.50264,
947.656,618.65768,
944.746,593.171,
941.835,570.94485,
938.925,612.06351,
936.014,625.88348,
933.103,614.23453,
930.193,606.60535,
927.282,588.3584,
924.372,576.5199,
921.461,611.08361,
918.551,590.8868,
915.640,572.52427,
912.729,580,
909.819,577.10867,
906.908,555.20562,
903.998,581.83775,
901.087,599.82061,
898.176,594.07012,
895.266,594.01336,
892.355,617.60233,
889.445,594.10285,
886.534,642.42257,
883.624,631.81504,
880.713,617.4068,
877.802,605.70478,
874.892,592.73539,
871.981,593.59318,
869.071,491.67281,
866.160,461.58073,
863.250,499.50883,
860.339,552.24505,
857.428,588.05246,
854.518,637.19462,
851.607,574.78942,
848.697,557.80965,
845.786,520.74823,
842.875,497.38916,
839.965,533.29668,
837.054,626.0093,
834.144,626.83806,
831.233,668.33034,
828.323,669.7117,
825.412,655.15141,
822.501,665.85106,
819.591,665.02466,
816.680,665.80128,
813.770,638.43388,
810.859,622.90248,
807.949,629.78783,
805.038,643.30752,
802.127,629.31435,
799.217,634.70852,
796.306,625.64856,
793.396,638.80176,
790.485,666.47201,
787.574,642.46706,
784.664,654.76875,
781.753,679.81346,
778.843,699.3314,
775.932,700.59272,
773.022,685.14118,
770.111,692.49938,
767.200,677.77375,
764.290,675.88939,
761.379,685.08962,
758.469,688.4664,
755.558,660.82664,
752.648,688.52316,
749.737,691.38884,
746.826,688.13512,
743.916,687.95457,
741.005,696.6682,
738.095,729.14327,
735.184,720.84399,
732.274,683.92026,
729.363,636.17109,
726.452,602.65444,
723.542,622.88927,
720.631,688.22128,
717.721,684.51333,
714.810,690.60212,
711.899,725.42573,
708.989,710.09416,
706.078,716.41042,
703.168,707.67724,
700.257,703.06286,
697.347,702.73947,
694.436,691.21822,
691.525,699.25627,
688.615,681.50375,
685.704,670,
682.794,675.61696,
679.883,695.36965,
676.973,725.82174,
674.062,732,
671.151,729.80835,
668.241,726.04701,
665.330,721.29828,
662.420,685.35535,
659.509,693.87328,
656.598,717.28075,
653.688,741.06094,
650.777,757.05491,
647.867,729.18344,
644.956,730.4298,
642.046,715.09929,
639.135,678.61564,
636.224,647.14324,
633.314,675.72502,
630.403,689.50332,
627.493,708.9789,
624.582,726.99657,
621.672,700.06877,
618.761,684.56115,
615.850,721.32409,
612.940,769.34446,
610.029,786.60972,
607.119,724.2289,
604.208,727.23017,
601.297,749.44516,
598.387,747.36248,
595.476,696.51995,
592.566,702.02943,
589.655,734.09872,
586.745,763.15112,
583.834,770.43622,
580.923,740.18008,
578.013,769.99997,
575.102,738.42241,
572.192,735.79634,
569.281,779.21961,
566.371,752.6104,
563.460,764.10936,
560.549,772.43639,
557.639,776.61138,
554.728,781.83761,
551.818,795.10299,
548.907,754.12225,
545.996,739.99642,
543.086,766.69735,
540.175,788.49944,
537.265,766.09878,
534.354,762.5186,
531.444,768,
528.533,768.22073,
525.622,771.32452,
522.712,756.22441,
519.801,750.58256,
516.891,762.06913,
513.980,782.20082,
511.070,769.91305,
508.159,788.35589,
505.248,804.9855,
502.338,775.02259,
499.427,775.79442,
496.517,785.0505,
493.606,800.4123,
490.695,812.82761,
487.785,782.80577,
484.874,778,
481.964,763.04998,
479.053,739.97756,
476.143,731.52997,
473.232,760.49555,
470.321,769.56712,
467.411,759.90871,
464.500,740.02785,
461.590,780.61208,
458.679,795.85206,
455.769,798.36987,
452.858,797.79535,
449.947,805.43466,
447.037,782.72958,
444.126,782.52727,
441.216,808.07398,
438.305,802.74046,
435.395,798.72182,
432.484,784.08068,
429.573,765.46749,
426.663,763.18707,
423.752,705.81164,
420.842,599.25321,
417.931,482.82328,
415.020,415.32941,
412.110,517.62068,
409.199,651.35442,
406.289,736.48721,
403.378,691.93853,
400.468,673.79466,
397.557,685.99523,
394.646,732.08933,
391.736,811.67606,
388.825,832.79453,
385.915,826.75955,
383.004,802.86501,
380.094,770.53745,
377.183,781.07212,
374.272,785.62834,
371.362,786.11702,
368.451,784.91182,
365.541,799.92254,
362.630,770.13309,
359.719,760.64596,
356.809,804.77345,
353.898,801.02946,
350.988,821.15698,
348.077,835.51509,
345.167,824.27542,
342.256,770.48649,
339.345,795.92031,
336.435,815.34446,
333.524,772.98649,
330.614,804.28304,
327.703,804.2453,
324.793,803.7649,
321.882,828.94051,
318.971,804.4069,
316.061,791.11686,
313.150,792.92855,
310.240,815.19203,
307.329,853.87576,
304.418,900.00482,
301.508,928.92613,
298.597,898.56904,
295.687,888.55036,
292.776,882.91666,
289.866,886.69469,
286.955,918.45989,
284.044,890.74253,
281.134,896.439,
278.223,935.84438,
275.313,921.10728,
272.402,952.27329,
269.492,968.76183,
266.581,945.58728,
263.670,869.86372,
260.760,901.2831,
257.849,955.13254,
254.939,969.8102,
252.028,958.41848,
249.117,951.25904,
246.207,951.40939,
243.296,964.58606,
240.386,990.16069,
237.475,990.32183,
234.565,972.18565,
231.654,986.06294,
228.743,1022.3713,
225.833,1010.7173,
222.922,928.6455,
220.012,942.48805,
217.101,973.98937,
214.191,989.54206,
211.280,948.07668,
208.369,920.10591,
205.459,915.98501,
202.548,937.5265,
199.638,992.67583,
196.727,944.64976,
193.816,912.43886,
190.906,937.80644,
187.995,903.77729,
185.085,885.85288,
182.174,884.09297,
179.264,902.88489,
176.353,896.0291,
173.442,902.23929,
170.532,916.62355,
167.621,870.48111,
164.711,809.1222,
161.800,733.7879,
158.890,642.38249,
155.979,607.18797,
153.068,587.34951,
150.158,562.0215,
147.247,462.22614,
144.337,392.04302,
141.426,311.67196,
138.516,201.27071,
135.605,146.90432,
132.694,108.89502,
129.784,79.195295,
126.873,39.148024,
123.963,26.447439,
121.052,17.900794,
118.141,5.050558,
115.231,15.658555,
112.320,11.950917,
109.410,3.1816841,
106.499,14.576168,
103.589,8.5961829,
100.678,1.4567566,
97.767,0.034881441,
94.857,-2.0789671,
91.946,1.0311087,
89.036,6.6613063,
86.125,4.5336905,
83.215,7.7164425,
80.304,5.0141829,
77.393,-12.690066,
74.483,-4.8281106,
71.572,0.72470423,
68.662,1.7921975,
65.751,-0.32715573,
62.840,1.4085099,
59.930,2.3144242,
57.019,-4.0313137,
54.109,-4.4028392,
51.198,-2.7935629,
48.288,-0.0056624417,
45.377,-0.70904051,
42.466,-0.17556132,
39.556,1,
36.645,1,
33.735,0.48075153,
30.824,-1.7670958,
27.914,-7.3764977,
25.003,-8,
22.092,-7.6770954,
19.182,-6.9313514,
16.271,-4.832881,
13.361,10.751029,
10.450,5.5197712,
7.539,-142.52309,
4.629,-495.44191,
1.718,-865.69124,
-1.192,-1112.4804,
-4.103,-847.45729,
-7.013,-456.56132,
-9.924,-4.0595589E-17,
