,Pliquid_AuCOFNPs-citrate13new_1E-1mgmL_100uL_mix_1E-1mgL_16h_785nm_133mW_3s_1acc_3_RamanShift__3__76,
Raman shift [1/cm],Intensity,
3014.167,4.125,
3011.256,-0.77497853,
3008.346,70.946656,
3005.435,81.743378,
3002.525,92.162472,
2999.614,103.37173,
2996.704,84.717785,
2993.793,90.106568,
2990.882,105.25476,
2987.972,114.10482,
2985.061,117.21861,
2982.151,109.39221,
2979.240,125.02423,
2976.329,117.85452,
2973.419,128.86338,
2970.508,135.20832,
2967.598,133.26837,
2964.687,141.85598,
2961.777,154.46694,
2958.866,137.12352,
2955.955,133.05421,
2953.045,146.49189,
2950.134,148.125,
2947.224,138.98266,
2944.313,137.72044,
2941.403,154.29197,
2938.492,160.65615,
2935.581,156.91515,
2932.671,161.20656,
2929.760,161.64037,
2926.850,170.28891,
2923.939,157.32594,
2921.028,174.93109,
2918.118,161.0255,
2915.207,169.2453,
2912.297,175.11231,
2909.386,171.94981,
2906.476,174.86939,
2903.565,183.98056,
2900.654,158.66698,
2897.744,173.91127,
2894.833,159.18682,
2891.923,170.234,
2889.012,189.37933,
2886.102,174.52095,
2883.191,166.13255,
2880.280,164.16328,
2877.370,150.92154,
2874.459,150.59668,
2871.549,165.66469,
2868.638,189.62602,
2865.727,177.80961,
2862.817,189.32553,
2859.906,186.09936,
2856.996,182.10689,
2854.085,185.24475,
2851.175,183.0075,
2848.264,186.62984,
2845.353,182.2544,
2842.443,185.32987,
2839.532,197.42341,
2836.622,189.69792,
2833.711,181.38403,
2830.801,188.82279,
2827.890,192.87324,
2824.979,178.98904,
2822.069,184.3297,
2819.158,198.70451,
2816.248,197.60763,
2813.337,202.67134,
2810.427,198.64704,
2807.516,193.91641,
2804.605,203.94231,
2801.695,198.63814,
2798.784,206.01615,
2795.874,204.84532,
2792.963,197.83926,
2790.052,192.12607,
2787.142,208.32242,
2784.231,196.38434,
2781.321,209.37068,
2778.410,193.14531,
2775.500,215.99361,
2772.589,215.43234,
2769.678,215.23078,
2766.768,228.42986,
2763.857,220.23097,
2760.947,217.06826,
2758.036,216.59639,
2755.126,219.74466,
2752.215,212.80675,
2749.304,219.46492,
2746.394,220.125,
2743.483,217.92501,
2740.573,230.31975,
2737.662,226.6679,
2734.751,222.59095,
2731.841,219.88141,
2728.930,231.9427,
2726.020,237.33912,
2723.109,227.57867,
2720.199,214.43739,
2717.288,232.30018,
2714.377,240.22074,
2711.467,213.07555,
2708.556,233.46521,
2705.646,231.8292,
2702.735,227.83122,
2699.825,252.91949,
2696.914,247.22047,
2694.003,230.66646,
2691.093,243.35725,
2688.182,245.3613,
2685.272,232.60295,
2682.361,247.58352,
2679.450,240.1827,
2676.540,246.26727,
2673.629,248.47929,
2670.719,242.33665,
2667.808,257.4441,
2664.898,230.02091,
2661.987,245.65842,
2659.076,253.48922,
2656.166,243.83494,
2653.255,250.49405,
2650.345,252.55694,
2647.434,261.72517,
2644.524,265.80844,
2641.613,261.43927,
2638.702,278.84094,
2635.792,250.18582,
2632.881,268.89871,
2629.971,264.40011,
2627.060,281.95968,
2624.149,269.2875,
2621.239,264.11907,
2618.328,274.04023,
2615.418,276.10682,
2612.507,272.33453,
2609.597,272.39047,
2606.686,280.0989,
2603.775,278.36309,
2600.865,274.41852,
2597.954,288.55003,
2595.044,273.16043,
2592.133,274.29707,
2589.223,276.55868,
2586.312,285.95415,
2583.401,284.22719,
2580.491,291.83651,
2577.580,294.10685,
2574.670,285.61564,
2571.759,291.57449,
2568.848,292.77142,
2565.938,288.26778,
2563.027,297.29547,
2560.117,295.39603,
2557.206,288.89253,
2554.296,286.72912,
2551.385,308.50504,
2548.474,299.34693,
2545.564,277.63149,
2542.653,296.75587,
2539.743,309.16197,
2536.832,309.14556,
2533.922,313.31423,
2531.011,320.17542,
2528.100,313.52223,
2525.190,312.00984,
2522.279,309.70292,
2519.369,305.35116,
2516.458,307.89766,
2513.548,319.11567,
2510.637,316.57166,
2507.726,314.99491,
2504.816,324.49929,
2501.905,302.27012,
2498.995,299.43882,
2496.084,318.59189,
2493.173,323.96739,
2490.263,327.93403,
2487.352,322.54233,
2484.442,330.70102,
2481.531,349.76839,
2478.621,337.11066,
2475.710,340.07899,
2472.799,337.57788,
2469.889,341.33828,
2466.978,343.50635,
2464.068,339.4636,
2461.157,345.66009,
2458.247,343.06631,
2455.336,347.25414,
2452.425,335.77594,
2449.515,355.26637,
2446.604,356.52817,
2443.694,359.0781,
2440.783,343.83784,
2437.872,332.07309,
2434.962,353.71026,
2432.051,347.05098,
2429.141,350.83676,
2426.230,357.66866,
2423.320,370.59637,
2420.409,363.29186,
2417.498,362.6812,
2414.588,373.94249,
2411.677,356.9856,
2408.767,374.81299,
2405.856,365.69163,
2402.946,376.5477,
2400.035,379.92312,
2397.124,367.33891,
2394.214,369.55939,
2391.303,390.34045,
2388.393,387.89941,
2385.482,386.125,
2382.571,396.97328,
2379.661,394.84586,
2376.750,399.38856,
2373.840,400.47811,
2370.929,409.03836,
2368.019,394.125,
2365.108,386.61453,
2362.197,400.8073,
2359.287,396.57012,
2356.376,404.10211,
2353.466,402.56511,
2350.555,400.4203,
2347.645,404.83627,
2344.734,412.52134,
2341.823,406.29083,
2338.913,387.34146,
2336.002,405.74232,
2333.092,415.15901,
2330.181,435.37053,
2327.270,430.40003,
2324.360,425.66273,
2321.449,432.03317,
2318.539,425.35739,
2315.628,437.53548,
2312.718,427.81001,
2309.807,416.94476,
2306.896,426.86522,
2303.986,424.43021,
2301.075,434.14625,
2298.165,435.93263,
2295.254,446.86648,
2292.344,427.28267,
2289.433,437.19455,
2286.522,451.01789,
2283.612,441.60458,
2280.701,450.3761,
2277.791,438.88455,
2274.880,441.04285,
2271.969,470.89866,
2269.059,470.44925,
2266.148,468.39545,
2263.238,466.32577,
2260.327,467.50423,
2257.417,466.71611,
2254.506,481.011,
2251.595,467.83772,
2248.685,483.11918,
2245.774,487.22392,
2242.864,495.54147,
2239.953,486.44225,
2237.043,487.24214,
2234.132,487.71983,
2231.221,499.04755,
2228.311,487.72811,
2225.400,478.32202,
2222.490,489.95247,
2219.579,513.86023,
2216.669,518.62738,
2213.758,520.73415,
2210.847,522.125,
2207.937,524.04356,
2205.026,547.01451,
2202.116,535.10694,
2199.205,552.0123,
2196.294,558.37299,
2193.384,575.04552,
2190.473,584.55693,
2187.563,572.1975,
2184.652,592.54703,
2181.742,627.26188,
2178.831,626.57243,
2175.920,607.8791,
2173.010,616.45096,
2170.099,629.79068,
2167.189,653.23263,
2164.278,670.61947,
2161.368,690.26724,
2158.457,707.36127,
2155.546,729.94234,
2152.636,746.60903,
2149.725,753.9505,
2146.815,777.35751,
2143.904,823.52648,
2140.993,826.4266,
2138.083,818.28916,
2135.172,820.52004,
2132.262,823.7368,
2129.351,818.125,
2126.441,799.57155,
2123.530,783.78828,
2120.619,752.06087,
2117.709,731.47806,
2114.798,694.97483,
2111.888,677.27473,
2108.977,659.60181,
2106.067,647.64176,
2103.156,642.84599,
2100.245,625.09991,
2097.335,586.08835,
2094.424,591.44955,
2091.514,576.47169,
2088.603,563.39687,
2085.692,583.49294,
2082.782,580.69536,
2079.871,572.66059,
2076.961,587.09175,
2074.050,583.24015,
2071.140,601.74596,
2068.229,582.49219,
2065.318,575.8285,
2062.408,566.21578,
2059.497,574.55359,
2056.587,572.77635,
2053.676,581.19087,
2050.766,599.81633,
2047.855,575.86869,
2044.944,572.17947,
2042.034,597.06709,
2039.123,580.30682,
2036.213,595.47166,
2033.302,589.95112,
2030.391,572.66779,
2027.481,584.95407,
2024.570,593.81067,
2021.660,574.36671,
2018.749,606.84682,
2015.839,620.5515,
2012.928,593.88339,
2010.017,604.09894,
2007.107,594.8203,
2004.196,590.89885,
2001.286,594.87413,
1998.375,586.64567,
1995.465,590.63125,
1992.554,602.64256,
1989.643,584.81627,
1986.733,610.4864,
1983.822,554.30668,
1980.912,601.39211,
1978.001,583.34577,
1975.090,574.08684,
1972.180,593.95212,
1969.269,594.03016,
1966.359,589.47634,
1963.448,584.74191,
1960.538,562.02575,
1957.627,581.19932,
1954.716,610.34938,
1951.806,587.27403,
1948.895,588.97724,
1945.985,582.75899,
1943.074,589.96632,
1940.164,588.56723,
1937.253,569.21223,
1934.342,566.24478,
1931.432,578.39314,
1928.521,564.78648,
1925.611,581.1897,
1922.700,578.25346,
1919.790,572.54121,
1916.879,573.05525,
1913.968,590.1041,
1911.058,558.77666,
1908.147,580.66367,
1905.237,569.13969,
1902.326,572.20053,
1899.415,580.4896,
1896.505,537.64914,
1893.594,575.83244,
1890.684,589.82451,
1887.773,569.59043,
1884.863,575.95188,
1881.952,592.77235,
1879.041,591.5601,
1876.131,567.95115,
1873.220,581.43038,
1870.310,556.27752,
1867.399,609.22936,
1864.489,573.96923,
1861.578,573.20718,
1858.667,604.15194,
1855.757,602.15364,
1852.846,573.64294,
1849.936,591.38025,
1847.025,591.19072,
1844.114,589.09451,
1841.204,625.35927,
1838.293,618.62251,
1835.383,611.92751,
1832.472,602.15978,
1829.562,644.20235,
1826.651,637.67124,
1823.740,618.02921,
1820.830,616.89666,
1817.919,628.52627,
1815.009,626.84383,
1812.098,633.3061,
1809.188,611.61342,
1806.277,629.68236,
1803.366,648.10836,
1800.456,647.39979,
1797.545,650.18893,
1794.635,631.51201,
1791.724,632.96968,
1788.813,633.93374,
1785.903,661.59399,
1782.992,664.46629,
1780.082,655.77324,
1777.171,638.1309,
1774.261,650.99982,
1771.350,637.89525,
1768.439,657.44629,
1765.529,669.03238,
1762.618,666.33814,
1759.708,659.28788,
1756.797,674.78409,
1753.887,719.17748,
1750.976,691.84884,
1748.065,666.1972,
1745.155,692.3958,
1742.244,713.4085,
1739.334,696.58383,
1736.423,706.90815,
1733.512,694.75096,
1730.602,706.57344,
1727.691,699.30711,
1724.781,699.05788,
1721.870,733.9252,
1718.960,732.25821,
1716.049,747.74347,
1713.138,730.6051,
1710.228,714.94084,
1707.317,724.62443,
1704.407,741.39775,
1701.496,761.35596,
1698.586,776.06078,
1695.675,774.31787,
1692.764,790.21927,
1689.854,741.37694,
1686.943,773.91088,
1684.033,787.80213,
1681.122,796.97207,
1678.211,820.89658,
1675.301,838.07258,
1672.390,826.23267,
1669.480,861.96456,
1666.569,842.77249,
1663.659,893.27199,
1660.748,902.91555,
1657.837,943.03752,
1654.927,939.47644,
1652.016,952.42406,
1649.106,885.20217,
1646.195,929.53961,
1643.285,986.21354,
1640.374,948.00304,
1637.463,989.57536,
1634.553,1015.4402,
1631.642,1103.1033,
1628.732,1101.6583,
1625.821,1191.1224,
1622.911,1187.1475,
1620.000,1262.1675,
1617.089,1363.0951,
1614.179,1471.0511,
1611.268,1540.5597,
1608.358,1579.3457,
1605.447,1587.7251,
1602.536,1693.4282,
1599.626,1699.2851,
1596.715,1649.2069,
1593.805,1646.808,
1590.894,1648.0057,
1587.984,1610.0169,
1585.073,1582.0038,
1582.162,1601.5018,
1579.252,1600.3969,
1576.341,1546.2548,
1573.431,1497.099,
1570.520,1479.4812,
1567.610,1459.2424,
1564.699,1455.3001,
1561.788,1453.3081,
1558.878,1432.3249,
1555.967,1352.4339,
1553.057,1378.0037,
1550.146,1339.9943,
1547.235,1307.1122,
1544.325,1297.4624,
1541.414,1279.3446,
1538.504,1297.1909,
1535.593,1328.324,
1532.683,1285.4571,
1529.772,1253.8995,
1526.861,1299.1366,
1523.951,1294.2979,
1521.040,1287.2913,
1518.130,1296.0091,
1515.219,1296.9644,
1512.309,1302.2601,
1509.398,1271.5183,
1506.487,1314.346,
1503.577,1260.8669,
1500.666,1213.9524,
1497.756,1271.2525,
1494.845,1306.4836,
1491.934,1243.2793,
1489.024,1290.4415,
1486.113,1206.8212,
1483.203,1246.3097,
1480.292,1212.245,
1477.382,1215.6322,
1474.471,1186.6625,
1471.560,1192.364,
1468.650,1198.125,
1465.739,1205.1704,
1462.829,1207.3345,
1459.918,1227.1197,
1457.008,1248.6943,
1454.097,1231.8657,
1451.186,1192.154,
1448.276,1168.1732,
1445.365,1159.9102,
1442.455,1150.6651,
1439.544,1142.1059,
1436.633,1127.2601,
1433.723,1091.7451,
1430.812,1100.3913,
1427.902,1067.0044,
1424.991,1103.9672,
1422.081,1050.9939,
1419.170,1004.6501,
1416.259,1055.6395,
1413.349,1061.5726,
1410.438,1050.0279,
1407.528,1031.9627,
1404.617,1029.9963,
1401.707,1072.8107,
1398.796,1061.3384,
1395.885,1023.3535,
1392.975,1038.5832,
1390.064,1016.5266,
1387.154,970.24589,
1384.243,928.36401,
1381.332,876.97422,
1378.422,959.31313,
1375.511,1021.1407,
1372.601,1077.4192,
1369.690,1150.7028,
1366.780,1171.6294,
1363.869,1139.9806,
1360.958,1140.9895,
1358.048,1145.7518,
1355.137,1191.9622,
1352.227,1245.1904,
1349.316,1282.3989,
1346.406,1330.7464,
1343.495,1352.6128,
1340.584,1363.8392,
1337.674,1361.8722,
1334.763,1319.3953,
1331.853,1352.7756,
1328.942,1406.6034,
1326.032,1440.0405,
1323.121,1396.4804,
1320.210,1440.3897,
1317.300,1459.9106,
1314.389,1452.6389,
1311.479,1451.8143,
1308.568,1461.6191,
1305.657,1500.3872,
1302.747,1548.5403,
1299.836,1565.7959,
1296.926,1649.0823,
1294.015,1648.1629,
1291.105,1663.0942,
1288.194,1736.2131,
1285.283,1741.2369,
1282.373,1761.4374,
1279.462,1820.5947,
1276.552,1839.0068,
1273.641,1809.0144,
1270.731,1823.822,
1267.820,1883.9071,
1264.909,1837.6192,
1261.999,1812.6576,
1259.088,1827.2515,
1256.178,1814.4217,
1253.267,1791.4107,
1250.356,1741.1035,
1247.446,1716.0179,
1244.535,1724.5223,
1241.625,1704.2325,
1238.714,1647.7841,
1235.804,1624.7221,
1232.893,1616.749,
1229.982,1620.2051,
1227.072,1593.0457,
1224.161,1570.9529,
1221.251,1555.2129,
1218.340,1464.966,
1215.430,1435.1916,
1212.519,1433.7312,
1209.608,1437.0963,
1206.698,1482.2315,
1203.787,1493.5421,
1200.877,1478.4155,
1197.966,1547.6508,
1195.055,1574.1627,
1192.145,1600.6653,
1189.234,1652.2429,
1186.324,1737.2218,
1183.413,1746.6123,
1180.503,1700.8701,
1177.592,1714.3573,
1174.681,1713.7312,
1171.771,1703.1565,
1168.860,1661.1813,
1165.950,1606.3288,
1163.039,1607.3947,
1160.129,1620.2033,
1157.218,1625.125,
1154.307,1635.5137,
1151.397,1658.5993,
1148.486,1671.4276,
1145.576,1657.3585,
1142.665,1685.7717,
1139.754,1653.9526,
1136.844,1643.3238,
1133.933,1640.952,
1131.023,1635.404,
1128.112,1625.4828,
1125.202,1606.497,
1122.291,1575.0051,
1119.380,1587.9431,
1116.470,1569.41,
1113.559,1592.6422,
1110.649,1580.4796,
1107.738,1565.3026,
1104.828,1566.1182,
1101.917,1554.1893,
1099.006,1521.7432,
1096.096,1579.5124,
1093.185,1553.1723,
1090.275,1579.4495,
1087.364,1586.125,
1084.453,1582.7502,
1081.543,1599.4067,
1078.632,1608.1419,
1075.722,1580.4594,
1072.811,1610.5116,
1069.901,1587.8069,
1066.990,1610.3749,
1064.079,1612.7224,
1061.169,1622.7233,
1058.258,1636.3599,
1055.348,1630.0727,
1052.437,1604.5688,
1049.527,1621.7558,
1046.616,1612.1986,
1043.705,1586.4605,
1040.795,1585.51,
1037.884,1600.757,
1034.974,1623.2977,
1032.063,1637.3559,
1029.153,1624.2022,
1026.242,1641.5014,
1023.331,1645.4581,
1020.421,1639.8511,
1017.510,1658.4155,
1014.600,1696.2715,
1011.689,1742.5143,
1008.778,1777.7682,
1005.868,1729.542,
1002.957,1776.0011,
1000.047,1835.541,
997.136,1831.632,
994.226,1816.0173,
991.315,1810.427,
988.404,1790.099,
985.494,1763.5688,
982.583,1738.7286,
979.673,1719.7604,
976.762,1730.5639,
973.852,1725.3286,
970.941,1726.9463,
968.030,1778.2695,
965.120,1762.0964,
962.209,1755.276,
959.299,1773.956,
956.388,1790.5245,
953.477,1788.4934,
950.567,1779.0007,
947.656,1784.2283,
944.746,1762.1399,
941.835,1798.3764,
938.925,1803.1767,
936.014,1788.4793,
933.103,1777.8905,
930.193,1781.924,
927.282,1783.0627,
924.372,1745.0104,
921.461,1753.3802,
918.551,1722.1071,
915.640,1694.4252,
912.729,1685.4161,
909.819,1667.0138,
906.908,1666.1714,
903.998,1680.4416,
901.087,1710.2218,
898.176,1714.1495,
895.266,1715.4558,
892.355,1748.2086,
889.445,1770.0295,
886.534,1804.3547,
883.624,1807.7608,
880.713,1789.7936,
877.802,1772.7354,
874.892,1774.5373,
871.981,1793.6713,
869.071,1774.4568,
866.160,1792.5137,
863.250,1790.5925,
860.339,1793.728,
857.428,1806.0725,
854.518,1756.3286,
851.607,1797.9321,
848.697,1800.3103,
845.786,1785.1508,
842.875,1803.1862,
839.965,1848.5276,
837.054,1800.6646,
834.144,1848.7322,
831.233,1842.1262,
828.323,1817.8041,
825.412,1795.3297,
822.501,1787.2953,
819.591,1810.4345,
816.680,1789.4903,
813.770,1762.1974,
810.859,1753.6374,
807.949,1771.5275,
805.038,1800.2422,
802.127,1768.1403,
799.217,1758.4165,
796.306,1756.6926,
793.396,1754.7891,
790.485,1749.0192,
787.574,1741.5609,
784.664,1753.0425,
781.753,1767.2027,
778.843,1769.2043,
775.932,1767.5941,
773.022,1773.6322,
770.111,1776.9025,
767.200,1769.5119,
764.290,1769.4365,
761.379,1766.3986,
758.469,1755.5675,
755.558,1742.3924,
752.648,1751.3531,
749.737,1719.18,
746.826,1677.8139,
743.916,1619.0141,
741.005,1517.6923,
738.095,1354.5051,
735.184,1199.9787,
732.274,1166.1091,
729.363,1292.3912,
726.452,1528.344,
723.542,1651.3718,
720.631,1736.108,
717.721,1742.9396,
714.810,1740.0227,
711.899,1760.4517,
708.989,1779.011,
706.078,1762.2976,
703.168,1754.4817,
700.257,1761.6142,
697.347,1770.1255,
694.436,1751.7977,
691.525,1739.7406,
688.615,1729.5781,
685.704,1738.0758,
682.794,1752.0825,
679.883,1743.9272,
676.973,1783.9957,
674.062,1771.0683,
671.151,1773.5899,
668.241,1786.8835,
665.330,1772.2805,
662.420,1817.8082,
659.509,1810.6168,
656.598,1805.4525,
653.688,1802.1533,
650.777,1773.7451,
647.867,1821.5248,
644.956,1812.3122,
642.046,1810.9046,
639.135,1826.125,
636.224,1826.117,
633.314,1824.5292,
630.403,1830.6283,
627.493,1836.2772,
624.582,1830.1793,
621.672,1794.5396,
618.761,1801.4843,
615.850,1810.1859,
612.940,1833.9094,
610.029,1866.1793,
607.119,1842.4904,
604.208,1841.545,
601.297,1829.6621,
598.387,1824.2908,
595.476,1838.5596,
592.566,1800.7803,
589.655,1816.8012,
586.745,1820.0117,
583.834,1809.0033,
580.923,1811.7885,
578.013,1756.0724,
575.102,1776.6875,
572.192,1824.2048,
569.281,1857.907,
566.371,1834.4283,
563.460,1873.0422,
560.549,1865.2738,
557.639,1850.9418,
554.728,1884.5539,
551.818,1907.183,
548.907,1899.3273,
545.996,1899.2896,
543.086,1912.9638,
540.175,1916.857,
537.265,1950.4418,
534.354,1931.5185,
531.444,1899.0104,
528.533,1894.911,
525.622,1877.8402,
522.712,1896.5749,
519.801,1915.7076,
516.891,1925.0031,
513.980,1934.2946,
511.070,1944.9859,
508.159,1946.7372,
505.248,1941.1207,
502.338,1932.9835,
499.427,1962.3131,
496.517,1964.4684,
493.606,1973.5847,
490.695,2001.3018,
487.785,2009.7695,
484.874,1980.1063,
481.964,1964.3708,
479.053,1969.986,
476.143,1986.1132,
473.232,1988.5638,
470.321,1974.0411,
467.411,1951.287,
464.500,1931.8813,
461.590,1961.7452,
458.679,1954.1665,
455.769,1961.9192,
452.858,2006.091,
449.947,1996.1599,
447.037,2005.6535,
444.126,2007.2099,
441.216,2002.8134,
438.305,2035.5765,
435.395,1998.8199,
432.484,1990.4611,
429.573,2011.7875,
426.663,2023.1896,
423.752,2036.6785,
420.842,2037.1015,
417.931,2029.4012,
415.020,2023.3344,
412.110,2112.3818,
409.199,2119.2082,
406.289,2078.3502,
403.378,2036.1609,
400.468,2046.7448,
397.557,2057.3231,
394.646,2045.8095,
391.736,1993.3725,
388.825,1907.3901,
385.915,1873.6099,
383.004,1879.5455,
380.094,1914.1615,
377.183,1934.4784,
374.272,1997.6597,
371.362,2055.2491,
368.451,2077.4441,
365.541,2082.6979,
362.630,2079.2088,
359.719,2095.2508,
356.809,2141.0861,
353.898,2107.3902,
350.988,2103.5499,
348.077,2114.8044,
345.167,2130.0276,
342.256,2108.3626,
339.345,2115.9422,
336.435,2117.2989,
333.524,2089.3834,
330.614,2097.5801,
327.703,2097.558,
324.793,2107.499,
321.882,2143.1881,
318.971,2169.2086,
316.061,2177.1484,
313.150,2173.5845,
310.240,2165.4213,
307.329,2190.1373,
304.418,2188.7262,
301.508,2166.0665,
298.597,2132.0073,
295.687,2041.761,
292.776,2038.0419,
289.866,2128.8021,
286.955,2307.5737,
284.044,2388.1524,
281.134,2443.4531,
278.223,2497.9988,
275.313,2599.6848,
272.402,2596.1462,
269.492,2602.5227,
266.581,2657.9627,
263.670,2697.6625,
260.760,2735.2442,
257.849,2768.8768,
254.939,2796.7644,
252.028,2826.8026,
249.117,2819.8519,
246.207,2798.3144,
243.296,2799.0464,
240.386,2819.3677,
237.475,2785.9435,
234.565,2717.0806,
231.654,2729.4971,
228.743,2721.7684,
225.833,2698.8802,
222.922,2664.2949,
220.012,2667.9376,
217.101,2643.6078,
214.191,2614.9394,
211.280,2607.6648,
208.369,2588.2862,
205.459,2527.6217,
202.548,2467.7992,
199.638,2570.1157,
196.727,2596.8872,
193.816,2581.2575,
190.906,2536.4455,
187.995,2574.0948,
185.085,2567.2651,
182.174,2544.9291,
179.264,2544.2064,
176.353,2497.3481,
173.442,2497.5917,
170.532,2535.6403,
167.621,2462.8217,
164.711,2386.8893,
161.800,2304.1756,
158.890,2210.611,
155.979,2048.6413,
153.068,1894.1928,
150.158,1722.1895,
147.247,1422.8034,
144.337,1168.7582,
141.426,924.47462,
138.516,674.99647,
135.605,481.68849,
132.694,339.55272,
129.784,235.56441,
126.873,145.45805,
123.963,91.842652,
121.052,65.125,
118.141,65.125,
115.231,45.22903,
112.320,34.159549,
109.410,29.852289,
106.499,28.427979,
103.589,25.883982,
100.678,21.408783,
97.767,14.299407,
94.857,20.361901,
91.946,19.900113,
89.036,15.237898,
86.125,15.947103,
83.215,19.310522,
80.304,19.251808,
77.393,10.753769,
74.483,10.780135,
71.572,11.487352,
68.662,12.332802,
65.751,14.452156,
62.840,9.8262782,
59.930,6.3724344,
57.019,14.833418,
54.109,13.139196,
51.198,11.125,
48.288,11.130662,
45.377,11.834041,
42.466,10.063903,
39.556,7.3552372,
36.645,8.7596176,
33.735,14.317485,
30.824,18.020565,
27.914,14.514689,
25.003,14.125,
22.092,16.708236,
19.182,22.857252,
16.271,45.240936,
13.361,149.3745,
10.450,377.83927,
7.539,945.56967,
4.629,1467.9769,
1.718,1769.0918,
-1.192,1605.96,
-4.103,972.59416,
-7.013,399.87996,
-9.924,-5.875,
