,PLAE70~1,
Wavenumbers [1/cm],Intensity,
3014.167,0,
3011.256,-0.20004295,
3008.346,22.677754,
3005.435,3.657248,
3002.525,19.207494,
2999.614,16.663645,
2996.704,15.867012,
2993.793,3.9723517,
2990.882,18.786293,
2987.972,28.909191,
2985.061,17.206905,
2982.151,23.238654,
2979.240,22.949617,
2976.329,19.740444,
2973.419,24.030551,
2970.508,35.466653,
2967.598,30.900803,
2964.687,12.820652,
2961.777,-4.7438108,
2958.866,37.67607,
2955.955,27.276546,
2953.045,36.816554,
2950.134,36.606415,
2947.224,30.227751,
2944.313,39.797721,
2941.403,42,
2938.492,40.701891,
2935.581,46.268689,
2932.671,37.480693,
2929.760,46.346162,
2926.850,32.992859,
2923.939,25.280377,
2921.028,47.117879,
2918.118,45.739293,
2915.207,38.82277,
2912.297,38,
2909.386,43.598541,
2906.476,35.744392,
2903.565,42.532595,
2900.654,39.446912,
2897.744,44.062861,
2894.833,46.525819,
2891.923,41.378199,
2889.012,25.497111,
2886.102,33.18784,
2883.191,24.007552,
2880.280,49.583725,
2877.370,-12.092876,
2874.459,-67.761056,
2871.549,-51.670752,
2868.638,-5.315487,
2865.727,13.919245,
2862.817,18.200526,
2859.906,25.595437,
2856.996,51.936598,
2854.085,60.718478,
2851.175,36.786138,
2848.264,39.642166,
2845.353,26.603877,
2842.443,50.80557,
2839.532,36.686624,
2836.622,32.061848,
2833.711,45.362647,
2830.801,39.41029,
2827.890,52.877646,
2824.979,53.160088,
2822.069,50.045488,
2819.158,50.579511,
2816.248,43.50579,
2813.337,50.63903,
2810.427,43.345727,
2807.516,30.165627,
2804.605,41.043274,
2801.695,51.263163,
2798.784,48.369615,
2795.874,35.554066,
2792.963,43.642658,
2790.052,54.996568,
2787.142,43.6185,
2784.231,42.774856,
2781.321,45.125721,
2778.410,51.564713,
2775.500,46.512073,
2772.589,52.538228,
2769.678,50.856646,
2766.768,40.013574,
2763.857,47.52794,
2760.947,55.465327,
2758.036,61.012805,
2755.126,54.331198,
2752.215,59.468175,
2749.304,45.043181,
2746.394,57.211691,
2743.483,58,
2740.573,54.451312,
2737.662,38.786979,
2734.751,53.373661,
2731.841,46.620874,
2728.930,50.470279,
2726.020,59,
2723.109,40.381752,
2720.199,61.903228,
2717.288,51.350368,
2714.377,63.708201,
2711.467,61.065928,
2708.556,52.818946,
2705.646,56.619709,
2702.735,61.167526,
2699.825,58.087257,
2696.914,58.047733,
2694.003,66.48618,
2691.093,68.803843,
2688.182,66.071851,
2685.272,61.96444,
2682.361,51.576419,
2679.450,57.539081,
2676.540,55.040648,
2673.629,56.00449,
2670.719,61.065624,
2667.808,63.097271,
2664.898,64.116729,
2661.987,63.933156,
2659.076,58.745688,
2656.166,74.787998,
2653.255,57.551025,
2650.345,66.079854,
2647.434,48.057732,
2644.524,69.227814,
2641.613,72.114394,
2638.702,70.063124,
2635.792,59.875372,
2632.881,62.196341,
2629.971,72.979908,
2627.060,70.666875,
2624.149,75.890615,
2621.239,71.224802,
2618.328,59.745677,
2615.418,57.981823,
2612.507,78.411021,
2609.597,64.203592,
2606.686,63.558239,
2603.775,63.757933,
2600.865,66.17409,
2597.954,74.143742,
2595.044,75.017713,
2592.133,59.382048,
2589.223,65.373696,
2586.312,76.291477,
2583.401,66.65328,
2580.491,78.793231,
2577.580,58.99835,
2574.670,54.402416,
2571.759,66.470021,
2568.848,70.828661,
2565.938,87.142917,
2563.027,72.047771,
2560.117,70.803761,
2557.206,68.86347,
2554.296,68.141876,
2551.385,71.884079,
2548.474,100.29666,
2545.564,86.696422,
2542.653,95.463087,
2539.743,80.703323,
2536.832,70.796265,
2533.922,84.110385,
2531.011,92.924837,
2528.100,92.13587,
2525.190,85.418853,
2522.279,96.343428,
2519.369,79.981315,
2516.458,73.555949,
2513.548,85.327114,
2510.637,95.385173,
2507.726,89.434953,
2504.816,89.686581,
2501.905,86.434756,
2498.995,78.940281,
2496.084,85.358929,
2493.173,85.420528,
2490.263,83.168379,
2487.352,92.666133,
2484.442,85,
2481.531,87.632952,
2478.621,90.767775,
2475.710,109.91565,
2472.799,93.080783,
2469.889,77.423827,
2466.978,85.773141,
2464.068,102.36513,
2461.157,88.464914,
2458.247,99.588196,
2455.336,97.637968,
2452.425,85.627344,
2449.515,87.226617,
2446.604,91.769615,
2443.694,92.139823,
2440.783,87.474098,
2437.872,92.291719,
2434.962,96.059913,
2432.051,94.753267,
2429.141,104.28824,
2426.230,92.782294,
2423.320,102.15712,
2420.409,93.545053,
2417.498,101.93261,
2414.588,95.110366,
2411.677,77.8606,
2408.767,99.482284,
2405.856,99.221406,
2402.946,95.785524,
2400.035,90.201877,
2397.124,99.684482,
2394.214,117.2172,
2391.303,104.56369,
2388.393,91.225594,
2385.482,88.220309,
2382.571,104.67094,
2379.661,89.976979,
2376.750,87.679681,
2373.840,102,
2370.929,103.97834,
2368.019,106.12006,
2365.108,114.20942,
2362.197,108.2219,
2359.287,108.99164,
2356.376,118.98415,
2353.466,133.09256,
2350.555,104.65484,
2347.645,96.223843,
2344.734,102.8802,
2341.823,104.01658,
2338.913,119.02683,
2336.002,104.52863,
2333.092,111.11508,
2330.181,104.24553,
2327.270,105.88999,
2324.360,111.92454,
2321.449,107.58504,
2318.539,124.7462,
2315.628,127.63069,
2312.718,116.05066,
2309.807,120.54651,
2306.896,123.71674,
2303.986,117.09096,
2301.075,122.53192,
2298.165,135.36565,
2295.254,122.36623,
2292.344,137.05396,
2289.433,125.28181,
2286.522,117.13389,
2283.612,124.76021,
2280.701,136.38563,
2277.791,131.8779,
2274.880,107.35396,
2271.969,114.83951,
2269.059,124.73026,
2266.148,107.00668,
2263.238,123.08878,
2260.327,107.62077,
2257.417,116.71167,
2254.506,125.87752,
2251.595,125.15279,
2248.685,133.20379,
2245.774,119.17617,
2242.864,138.89777,
2239.953,126.64131,
2237.043,131.5968,
2234.132,117.24677,
2231.221,133.47554,
2228.311,130.56187,
2225.400,134.02815,
2222.490,135,
2219.579,139.44475,
2216.669,154.96661,
2213.758,141.12677,
2210.847,127.58187,
2207.937,153.8599,
2205.026,148.11079,
2202.116,154.90234,
2199.205,148.17506,
2196.294,152.61998,
2193.384,152.73699,
2190.473,126.11854,
2187.563,171.96133,
2184.652,162.19266,
2181.742,150.22705,
2178.831,153.91443,
2175.920,162.83424,
2173.010,162,
2170.099,169.79911,
2167.189,167.06458,
2164.278,179.08141,
2161.368,192.14344,
2158.457,183.38902,
2155.546,190.80289,
2152.636,186.03193,
2149.725,187.16107,
2146.815,205.39936,
2143.904,193.10408,
2140.993,204.62961,
2138.083,210.36474,
2135.172,214.96641,
2132.262,215.24472,
2129.351,219.79659,
2126.441,222,
2123.530,212.93266,
2120.619,205.76152,
2117.709,195.62681,
2114.798,183.94994,
2111.888,176,
2108.977,187.44372,
2106.067,191.72487,
2103.156,184.84115,
2100.245,174.99937,
2097.335,173.75916,
2094.424,167.45236,
2091.514,160.86566,
2088.603,174.0507,
2085.692,174.77322,
2082.782,185.1887,
2079.871,175.85648,
2076.961,185.16049,
2074.050,184.3697,
2071.140,173.44816,
2068.229,176.10157,
2065.318,169.88951,
2062.408,171.15129,
2059.497,176.02978,
2056.587,189.54645,
2053.676,182.83383,
2050.766,197.61435,
2047.855,180.19935,
2044.944,187.53205,
2042.034,185.78606,
2039.123,175.80135,
2036.213,181.92441,
2033.302,182.23899,
2030.391,183.5595,
2027.481,194.13401,
2024.570,199.84283,
2021.660,196.23652,
2018.749,216.16421,
2015.839,193.65485,
2012.928,185.91946,
2010.017,184.13029,
2007.107,185.72339,
2004.196,194.83331,
2001.286,203.71022,
1998.375,197.29921,
1995.465,198.65268,
1992.554,184.3472,
1989.643,182,
1986.733,189.25088,
1983.822,180.6551,
1980.912,198.06842,
1978.001,169.15214,
1975.090,183.01526,
1972.180,177.48271,
1969.269,179.69828,
1966.359,164.13492,
1963.448,182.02907,
1960.538,190.37698,
1957.627,168.6006,
1954.716,168.91382,
1951.806,193.49678,
1948.895,199.93932,
1945.985,176.95752,
1943.074,173.48701,
1940.164,185.35578,
1937.253,177.82191,
1934.342,159.43583,
1931.432,159.50473,
1928.521,180.58549,
1925.611,161.61067,
1922.700,169.99447,
1919.790,169.83243,
1916.879,165.279,
1913.968,161.00492,
1911.058,194.48047,
1908.147,174.59417,
1905.237,180.63232,
1902.326,168.80147,
1899.415,164.3329,
1896.505,124.741,
1893.594,131.27135,
1890.684,132.45099,
1887.773,139.66357,
1884.863,153.01595,
1881.952,175.13482,
1879.041,180.73053,
1876.131,171.04183,
1873.220,155.05304,
1870.310,173.42149,
1867.399,221.2483,
1864.489,148.01253,
1861.578,173.7472,
1858.667,178.79942,
1855.757,162.01432,
1852.846,151.52819,
1849.936,163.46547,
1847.025,144.88566,
1844.114,160.98128,
1841.204,212.41259,
1838.293,209.5158,
1835.383,189.07001,
1832.472,203.1287,
1829.562,206.86276,
1826.651,213.67555,
1823.740,205.44059,
1820.830,200.77166,
1817.919,196.11374,
1815.009,172.73792,
1812.098,187.85038,
1809.188,220.95342,
1806.277,199.53116,
1803.366,186.91682,
1800.456,183.48384,
1797.545,211.39704,
1794.635,232.29096,
1791.724,214.99028,
1788.813,216.99614,
1785.903,197.49618,
1782.992,172.73174,
1780.082,156.33435,
1777.171,99.98928,
1774.261,83.725479,
1771.350,142.80876,
1768.439,196.81226,
1765.529,246.1843,
1762.618,251.37123,
1759.708,211.39102,
1756.797,207.12879,
1753.887,237.71866,
1750.976,251.30694,
1748.065,235.95238,
1745.155,234.21928,
1742.244,227.4194,
1739.334,225.79294,
1736.423,225.88038,
1733.512,232.27644,
1730.602,272.40085,
1727.691,258.89954,
1724.781,280.10333,
1721.870,280.7571,
1718.960,268.31098,
1716.049,271.03385,
1713.138,255.75508,
1710.228,273.88713,
1707.317,269.92343,
1704.407,266.30481,
1701.496,284.23096,
1698.586,299.85977,
1695.675,317.84276,
1692.764,277.34424,
1689.854,242.47242,
1686.943,312.5043,
1684.033,277.94378,
1681.122,290.76211,
1678.211,318.73351,
1675.301,339.93525,
1672.390,329.86243,
1669.480,284.50538,
1666.569,347.0127,
1663.659,347.83668,
1660.748,337.59508,
1657.837,318.09349,
1654.927,367.21086,
1652.016,375.17383,
1649.106,342.24481,
1646.195,353.46256,
1643.285,413.36459,
1640.374,427.22301,
1637.463,344.9908,
1634.553,399.28078,
1631.642,418.4126,
1628.732,456.11258,
1625.821,474.9928,
1622.911,464.06199,
1620.000,478.81102,
1617.089,487.8209,
1614.179,552.13873,
1611.268,575.18209,
1608.358,601.73578,
1605.447,673.71486,
1602.536,622.08677,
1599.626,674.11591,
1596.715,667.20118,
1593.805,671.36599,
1590.894,648.22191,
1587.984,651.92874,
1585.073,623.22141,
1582.162,596.29296,
1579.252,624.73204,
1576.341,610.37129,
1573.431,611.26539,
1570.520,595.41933,
1567.610,584.03912,
1564.699,589.97533,
1561.788,569.76079,
1558.878,594.82092,
1555.967,582.59142,
1553.057,543.12094,
1550.146,525.31274,
1547.235,524.18065,
1544.325,554.97319,
1541.414,537.49571,
1538.504,536.91097,
1535.593,563.15703,
1532.683,531.27392,
1529.772,519.11222,
1526.861,531.7348,
1523.951,532.51787,
1521.040,545.21403,
1518.130,540.41965,
1515.219,593.44057,
1512.309,572.76126,
1509.398,563.62937,
1506.487,543.27563,
1503.577,541.61648,
1500.666,551.33577,
1497.756,554.07628,
1494.845,554.59978,
1491.934,544.79842,
1489.024,483.19888,
1486.113,552.3956,
1483.203,534.01947,
1480.292,515.72679,
1477.382,523.50723,
1474.471,482.2594,
1471.560,477.70799,
1468.650,484.41637,
1465.739,490.48343,
1462.829,503.1459,
1459.918,537.62455,
1457.008,530.04577,
1454.097,512.09179,
1451.186,509.61315,
1448.276,481.72752,
1445.365,451.38942,
1442.455,421.2061,
1439.544,447.18618,
1436.633,431.90268,
1433.723,423.74472,
1430.812,436.29553,
1427.902,440.60884,
1424.991,466.19843,
1422.081,417.45624,
1419.170,453.61084,
1416.259,444.6088,
1413.349,425.89518,
1410.438,446.89185,
1407.528,438.68775,
1404.617,456.76928,
1401.707,445.20357,
1398.796,387.26232,
1395.885,374.66946,
1392.975,399.39564,
1390.064,395.12033,
1387.154,393.0833,
1384.243,348.82663,
1381.332,322.78268,
1378.422,312.0339,
1375.511,293.29828,
1372.601,376.8629,
1369.690,412.28834,
1366.780,408.28761,
1363.869,430.70022,
1360.958,422.17416,
1358.048,421.89968,
1355.137,462.69515,
1352.227,476.61427,
1349.316,466.49838,
1346.406,500.24285,
1343.495,525.29091,
1340.584,491.07135,
1337.674,494.07038,
1334.763,481.31681,
1331.853,568.47654,
1328.942,524.8584,
1326.032,570.3841,
1323.121,523.46381,
1320.210,534.9642,
1317.300,554.54139,
1314.389,562.13899,
1311.479,580.98048,
1308.568,602.23272,
1305.657,597.04266,
1302.747,581.73798,
1299.836,634.21132,
1296.926,650.12819,
1294.015,652.88616,
1291.105,603.68966,
1288.194,664.09441,
1285.283,644.48384,
1282.373,648.98431,
1279.462,664.39207,
1276.552,688.44103,
1273.641,705.54669,
1270.731,678.53431,
1267.820,639.41548,
1264.909,639.79109,
1261.999,631.19973,
1259.088,636.67245,
1256.178,675.54054,
1253.267,645.17462,
1250.356,642.8043,
1247.446,633.50528,
1244.535,639.36156,
1241.625,642.88892,
1238.714,636.20903,
1235.804,659.47088,
1232.893,652.50231,
1229.982,643.28788,
1227.072,681.31099,
1224.161,633.56977,
1221.251,600.92022,
1218.340,581.9872,
1215.430,602.97623,
1212.519,611.41722,
1209.608,589.32999,
1206.698,585.89379,
1203.787,600.08039,
1200.877,569.83879,
1197.966,599.51105,
1195.055,612.09223,
1192.145,655.32389,
1189.234,667.70242,
1186.324,689.36578,
1183.413,701.37563,
1180.503,709.52552,
1177.592,723.8784,
1174.681,668.30821,
1171.771,698.28848,
1168.860,710.79173,
1165.950,708.77484,
1163.039,696.82556,
1160.129,689.64058,
1157.218,709.63312,
1154.307,730.77385,
1151.397,727.52136,
1148.486,726.30258,
1145.576,710.30614,
1142.665,694.32371,
1139.754,749.14038,
1136.844,729.08577,
1133.933,719.69205,
1131.023,697.97892,
1128.112,688.92583,
1125.202,715.99519,
1122.291,695.0027,
1119.380,702.1559,
1116.470,718.04141,
1113.559,672.83181,
1110.649,665.54846,
1107.738,664.71346,
1104.828,654.75851,
1101.917,643.33717,
1099.006,642.6081,
1096.096,668.03244,
1093.185,652.22839,
1090.275,687.41716,
1087.364,678.16081,
1084.453,698.12321,
1081.543,701.1565,
1078.632,694.55009,
1075.722,736.00897,
1072.811,746.45586,
1069.901,710.65216,
1066.990,712.84999,
1064.079,689.5015,
1061.169,684.07531,
1058.258,686.0356,
1055.348,680.82417,
1052.437,676.85208,
1049.527,671.26853,
1046.616,678.21917,
1043.705,667.43852,
1040.795,665.27701,
1037.884,674.59754,
1034.974,680.02062,
1032.063,673.80773,
1029.153,675.40084,
1026.242,720.37857,
1023.331,681.16928,
1020.421,730.16232,
1017.510,731.46841,
1014.600,714.69172,
1011.689,709.01803,
1008.778,692.81189,
1005.868,714.60617,
1002.957,670.7281,
1000.047,674.92,
997.136,715.41419,
994.226,749.47679,
991.315,752.99753,
988.404,733.10887,
985.494,712.40542,
982.583,685.85218,
979.673,705.41269,
976.762,724.56784,
973.852,721.39175,
970.941,713.92761,
968.030,723.94213,
965.120,701.179,
962.209,743.8061,
959.299,737.54327,
956.388,737.03968,
953.477,736.06767,
950.567,738.67267,
947.656,764.66307,
944.746,754.4684,
941.835,759.66869,
938.925,788.63811,
936.014,787.31939,
933.103,772,
930.193,774.19733,
927.282,782.26674,
924.372,768.73703,
921.461,774.364,
918.551,759.572,
915.640,746.15011,
912.729,742.58479,
909.819,735.55518,
906.908,732.18548,
903.998,744.72583,
901.087,749.27301,
898.176,741.88768,
895.266,735.22179,
892.355,740.31412,
889.445,741.99265,
886.534,750.34872,
883.624,758.05549,
880.713,757.42751,
877.802,743.23086,
874.892,720.97769,
871.981,708.62651,
869.071,565.77091,
866.160,569.97831,
863.250,633.32347,
860.339,704.0582,
857.428,749.76524,
854.518,752.0612,
851.607,719.6105,
848.697,691.98985,
845.786,680.4431,
842.875,684.94232,
839.965,708.03432,
837.054,763.40005,
834.144,799.0364,
831.233,815.33266,
828.323,825.44029,
825.412,836.79533,
822.501,845.72332,
819.591,827.54254,
816.680,826.19872,
813.770,808.45793,
810.859,795.7438,
807.949,795.75611,
805.038,800.01326,
802.127,775.31944,
799.217,781.1993,
796.306,778.89185,
793.396,796.02312,
790.485,824.99897,
787.574,810.46706,
784.664,822.76875,
781.753,843.78755,
778.843,842.21819,
775.932,836.24683,
773.022,842.42091,
770.111,806.44746,
767.200,816.181,
764.290,832.71331,
761.379,842.39387,
758.469,839.2332,
755.558,825.63214,
752.648,846.81183,
749.737,803.34639,
746.826,795.25018,
743.916,815.27922,
741.005,813.52397,
738.095,791.60329,
735.184,737.5157,
732.274,698.59359,
729.363,685.69854,
726.452,702.35536,
723.542,754.15654,
720.631,768.46809,
717.721,810.38065,
714.810,854.22717,
711.899,877.30693,
708.989,870.0446,
706.078,859.58306,
703.168,853.35667,
700.257,861.72687,
697.347,870.26158,
694.436,845.36716,
691.525,822.05681,
688.615,811.3398,
685.704,822.24589,
682.794,849.89352,
679.883,878.06287,
676.973,857.22723,
674.062,874.05671,
671.151,876.79507,
668.241,873.33869,
665.330,898.37391,
662.420,864.02844,
659.509,848.7459,
656.598,860.4445,
653.688,884.99055,
650.777,895.054,
647.867,896.64666,
644.956,862.94675,
642.046,849.46277,
639.135,845.32736,
636.224,790.24668,
633.314,839.47087,
630.403,853.18242,
627.493,855.15222,
624.582,848.17143,
621.672,808.57172,
618.761,854.11624,
615.850,908.67112,
612.940,940.65847,
610.029,935.00214,
607.119,904.99618,
604.208,902,
601.297,924.4333,
598.387,933.81492,
595.476,898.92018,
592.566,876.88227,
589.655,901.50716,
586.745,922.20762,
583.834,922.85165,
580.923,901.11847,
578.013,920.73682,
575.102,905.92441,
572.192,902.79039,
569.281,924.1406,
566.371,924.92322,
563.460,929.93828,
560.549,957.82577,
557.639,987.9542,
554.728,993.97987,
551.818,961.98692,
548.907,952.56235,
545.996,951.77758,
543.086,951.32237,
540.175,943.53592,
537.265,961.83126,
534.354,963.98309,
531.444,953.98416,
528.533,942.93138,
525.622,970.08953,
522.712,942.62857,
519.801,929.01948,
516.891,940.74796,
513.980,934.55359,
511.070,960.7652,
508.159,960.53841,
505.248,947.49928,
502.338,946.33888,
499.427,957.91636,
496.517,954.77778,
493.606,945.62561,
490.695,937.85588,
487.785,944.0142,
484.874,944.35378,
481.964,939.01666,
479.053,934.02244,
476.143,942.47003,
473.232,913.50445,
470.321,913.19126,
467.411,928.29238,
464.500,937.72849,
461.590,927.00813,
458.679,949.31355,
455.769,959.91795,
452.858,941.42,
449.947,974.26905,
447.037,955.51606,
444.126,944.54545,
441.216,955.05831,
438.305,961.15376,
435.395,957.41054,
432.484,956.66701,
429.573,943.55732,
426.663,877.42509,
423.752,796.67874,
420.842,687.73344,
417.931,574.37578,
415.020,494.74818,
412.110,644.17553,
409.199,785.08548,
406.289,877.19773,
403.378,886.91291,
400.468,861.2091,
397.557,855.0566,
394.646,878.00896,
391.736,935.09658,
388.825,938.1135,
385.915,948.04729,
383.004,948.29033,
380.094,928.46255,
377.183,917.92788,
374.272,931.82619,
371.362,963.36532,
368.451,1003.1764,
365.541,973.15491,
362.630,954.62143,
359.719,942.15242,
356.809,934.31396,
353.898,956.02911,
350.988,978.81709,
348.077,984.57815,
345.167,963.96216,
342.256,963.21509,
339.345,962.46857,
336.435,960.05685,
333.524,955.07046,
330.614,957.30593,
327.703,974.94237,
324.793,1002.3428,
321.882,1034.9513,
318.971,1014.8784,
316.061,1006.0467,
313.150,1011.8524,
310.240,1037.0843,
307.329,1020.8487,
304.418,1021.2953,
301.508,1032.7569,
298.597,1043.1228,
295.687,1037.2276,
292.776,1013.1666,
289.866,997.54507,
286.955,1061.8142,
284.044,1069.1025,
281.134,1096.8825,
278.223,1144.2755,
275.313,1132.4858,
272.402,1118.3819,
269.492,1122.991,
266.581,1146.1128,
263.670,1077.741,
260.760,1072.6267,
257.849,1128.3435,
254.939,1249.4341,
252.028,1182.9586,
249.117,1143.2952,
246.207,1140.0693,
243.296,1190.5799,
240.386,1182.2872,
237.475,1184.2205,
234.565,1203.0262,
231.654,1228.5896,
228.743,1197.1764,
225.833,1170.9147,
222.922,1170.9616,
220.012,1127.2483,
217.101,1144.4058,
214.191,1174.3773,
211.280,1165.6477,
208.369,1140.1059,
205.459,1114.0262,
202.548,1104.0307,
199.638,1167.8878,
196.727,1125.1071,
193.816,1090.6225,
190.906,1104.1716,
187.995,1052.0418,
185.085,1043.4571,
182.174,1049.6906,
179.264,1033.7897,
176.353,1026.8738,
173.442,1023.6374,
170.532,1018.1276,
167.621,976.311,
164.711,945.02843,
161.800,897.99978,
158.890,813.07192,
155.979,763.80902,
153.068,703.44654,
150.158,631.19734,
147.247,550.06873,
144.337,471.21732,
141.426,379.02281,
138.516,264.32022,
135.605,183.71045,
132.694,124.29964,
129.784,82.84332,
126.873,56.383516,
123.963,37.911387,
121.052,23.184083,
118.141,11.047749,
115.231,18.105704,
112.320,16.340005,
109.410,9.7272895,
106.499,8.302979,
103.589,6.3192366,
100.678,3.6418915,
97.767,0.087203603,
94.857,0,
91.946,2.8217761,
89.036,7,
86.125,7,
83.215,2.2217168,
80.304,-1.7605673,
77.393,-1.0523974,
74.483,5.5513496,
71.572,6.8258873,
68.662,2.44586,
65.751,-3.2057486,
62.840,3.6706357,
59.930,11.127138,
57.019,4.0763182,
54.109,-1.1801259,
51.198,-2.1903443,
48.288,2,
45.377,2,
42.466,2.8244387,
39.556,4.6907115,
36.645,8.9038528,
33.735,4.8075153,
30.824,0.66266092,
27.914,2.7661867,
25.003,1.1320876,
22.092,0.32290456,
19.182,1.5949544,
16.271,19.781698,
13.361,80.103705,
10.450,168.74486,
7.539,260.22417,
4.629,159.04936,
1.718,-74.744116,
-1.192,-455.38503,
-4.103,-457.20945,
-7.013,-296.87842,
-9.924,1,
