,PL9B97~1,
Wavenumbers [1/cm],Intensity,
3014.167,-2.375,
3011.256,-0.375,
3008.346,31.091148,
3005.435,12.550798,
3002.525,28.795022,
2999.614,28.476963,
2996.704,38.987886,
2993.793,25.625,
2990.882,27.88453,
2987.972,43.55437,
2985.061,34.058503,
2982.151,32.579616,
2979.240,26.955782,
2976.329,39.873635,
2973.419,45.363382,
2970.508,45.541683,
2967.598,37.147088,
2964.687,35.266304,
2961.777,41.813016,
2958.866,62.968232,
2955.955,51.901546,
2953.045,52.625,
2950.134,55.657076,
2947.224,39.938157,
2944.313,53.321581,
2941.403,60.970346,
2938.492,55.454255,
2935.581,60.936619,
2932.671,56.586386,
2929.760,52.932676,
2926.850,52.154699,
2923.939,54.868013,
2921.028,75.448839,
2918.118,66.625,
2915.207,60.150236,
2912.297,61.599612,
2909.386,73.026459,
2906.476,60.72614,
2903.565,64.721293,
2900.654,62.225623,
2897.744,58.662717,
2894.833,61.625,
2891.923,38.91979,
2889.012,44.994943,
2886.102,64.041214,
2883.191,50.63916,
2880.280,79.285277,
2877.370,-26.142176,
2874.459,-92.211303,
2871.549,-31.690398,
2868.638,5.9899373,
2865.727,25.859633,
2862.817,43.397706,
2859.906,35.701913,
2856.996,63.606885,
2854.085,76.427537,
2851.175,68.859991,
2848.264,69.321327,
2845.353,46.862237,
2842.443,57.625,
2839.532,56.848885,
2836.622,61.956382,
2833.711,63.668971,
2830.801,69.128675,
2827.890,62.792842,
2824.979,64.773026,
2822.069,72.613628,
2819.158,75.425543,
2816.248,68.177107,
2813.337,89.789646,
2810.427,67.625,
2807.516,67.625,
2804.605,77.80769,
2801.695,72.361837,
2798.784,78.033615,
2795.874,66.598579,
2792.963,71.695953,
2790.052,73.622212,
2787.142,82.059424,
2784.231,75.530316,
2781.321,68.122118,
2778.410,64.774739,
2775.500,79.815341,
2772.589,76.855886,
2769.678,73.983384,
2766.768,73.49491,
2763.857,76.993015,
2760.947,71.612392,
2758.036,84.026361,
2755.126,89.103631,
2752.215,92.72967,
2749.304,85.051278,
2746.394,78.201618,
2743.483,83.224972,
2740.573,93.06086,
2737.662,83.614648,
2734.751,71.600803,
2731.841,75.652475,
2728.930,68.646137,
2726.020,79.51794,
2723.109,81.738417,
2720.199,96.821945,
2717.288,83.90602,
2714.377,82.49582,
2711.467,96.29752,
2708.556,76.018685,
2705.646,81.230654,
2702.735,101.45747,
2699.825,98.668628,
2696.914,99.863186,
2694.003,96.524185,
2691.093,98.606955,
2688.182,99.73463,
2685.272,104.87251,
2682.361,83.83679,
2679.450,86.871897,
2676.540,89.645324,
2673.629,85.979286,
2670.719,97.179542,
2667.808,100.06272,
2664.898,94.66391,
2661.987,96.491645,
2659.076,97.370688,
2656.166,96.737571,
2653.255,97.91922,
2650.345,87.944417,
2647.434,92.310911,
2644.524,94.991885,
2641.613,104.76831,
2638.702,105.73547,
2635.792,105.25112,
2632.881,107.01768,
2629.971,116.36998,
2627.060,109.79219,
2624.149,106.54375,
2621.239,101.61314,
2618.328,98.794549,
2615.418,106.275,
2612.507,116.72776,
2609.597,95.012225,
2606.686,95.351919,
2603.775,101.82341,
2600.865,107.32811,
2597.954,118.00831,
2595.044,117.36547,
2592.133,103.68236,
2589.223,110.0829,
2586.312,119.06221,
2583.401,104.82937,
2580.491,118.59611,
2577.580,111.6415,
2574.670,119.4111,
2571.759,129.03937,
2568.848,118.57516,
2565.938,137.24422,
2563.027,110.96593,
2560.117,105.26052,
2557.206,117.37777,
2554.296,113.16962,
2551.385,125.00504,
2548.474,150.32909,
2545.564,118.92288,
2542.653,126.10821,
2539.743,137.74823,
2536.832,113.27733,
2533.922,135.59346,
2531.011,132.80007,
2528.100,122.62846,
2525.190,129.85533,
2522.279,137.5312,
2519.369,126.56894,
2516.458,111.74044,
2513.548,121.47948,
2510.637,129.56352,
2507.726,136.74398,
2504.816,138.31045,
2501.905,128.87134,
2498.995,138.10275,
2496.084,143.78527,
2493.173,128.57202,
2490.263,153.92788,
2487.352,138.999,
2484.442,129.46653,
2481.531,144.25795,
2478.621,128.19839,
2475.710,142.56366,
2472.799,132.15866,
2469.889,125.59453,
2466.978,134.56307,
2464.068,136.66732,
2461.157,148.00999,
2458.247,147.9191,
2455.336,146.94398,
2452.425,144.05896,
2449.515,137.71025,
2446.604,140.28638,
2443.694,130.41615,
2440.783,146.10248,
2437.872,132.2449,
2434.962,144.94759,
2432.051,144.86593,
2429.141,144.23691,
2426.230,141.49462,
2423.320,146.13896,
2420.409,155.08663,
2417.498,151.81321,
2414.588,156.25997,
2411.677,149.80429,
2408.767,151.08366,
2405.856,150.94399,
2402.946,150.30329,
2400.035,162.60623,
2397.124,165.27741,
2394.214,156.5714,
2391.303,159.01728,
2388.393,141.94822,
2385.482,156.6997,
2382.571,126.91564,
2379.661,142.13665,
2376.750,146.57077,
2373.840,152.40937,
2370.929,169.44089,
2368.019,164.66134,
2365.108,173.27422,
2362.197,175.30438,
2359.287,182.78489,
2356.376,188.62324,
2353.466,179.73298,
2350.555,157.94523,
2347.645,166.4409,
2344.734,165.625,
2341.823,183.3265,
2338.913,169.25035,
2336.002,164.37849,
2333.092,173.61366,
2330.181,165.87053,
2327.270,178.85493,
2324.360,171.71694,
2321.449,189.36309,
2318.539,180.02866,
2315.628,181.90198,
2312.718,181.97522,
2309.807,194.48837,
2306.896,190.35739,
2303.986,191.89131,
2301.075,189.6676,
2298.165,202.37539,
2295.254,195.88352,
2292.344,176.14777,
2289.433,187.94545,
2286.522,188.21872,
2283.612,203.35588,
2280.701,208.625,
2277.791,186.2662,
2274.880,197.34508,
2271.969,187.04064,
2269.059,190.03916,
2266.148,177.59996,
2263.238,187.21959,
2260.327,198.03885,
2257.417,202.91333,
2254.506,210.739,
2251.595,211.35236,
2248.685,203.57114,
2245.774,201.92175,
2242.864,206.59755,
2239.953,216.30094,
2237.043,190.32537,
2234.132,193.54958,
2231.221,207.78261,
2228.311,218.80282,
2225.400,215.42798,
2222.490,210.85306,
2219.579,217.88977,
2216.669,229.54392,
2213.758,223.79491,
2210.847,214.04313,
2207.937,229.97351,
2205.026,233.51392,
2202.116,229.74072,
2199.205,228.22453,
2196.294,242.12099,
2193.384,237.09899,
2190.473,213.03345,
2187.563,259.625,
2184.652,259.625,
2181.742,253.41969,
2178.831,243.02191,
2175.920,253.8709,
2173.010,265.60062,
2170.099,244.3611,
2167.189,232.01248,
2164.278,285.33153,
2161.368,284.19636,
2158.457,289.01402,
2155.546,298.6702,
2152.636,281.024,
2149.725,279.94714,
2146.815,297.0911,
2143.904,308.71795,
2140.993,291.625,
2138.083,300.37875,
2135.172,315.625,
2132.262,321.25792,
2129.351,332.93195,
2126.441,319.72204,
2123.530,311.87193,
2120.619,330.46,
2117.709,307.46075,
2114.798,292.40955,
2111.888,280.57509,
2108.977,293.24753,
2106.067,276.59853,
2103.156,272.14434,
2100.245,262.62625,
2097.335,269.68258,
2094.424,296.57232,
2091.514,258.90452,
2088.603,266.66179,
2085.692,273.62136,
2082.782,272.40005,
2079.871,269.05324,
2076.961,282.59175,
2074.050,295.21894,
2071.140,269.55588,
2068.229,278.26433,
2065.318,273.8595,
2062.408,271.14769,
2059.497,287.66074,
2056.587,295.36925,
2053.676,291.99177,
2050.766,291.625,
2047.855,275.82435,
2044.944,280.23078,
2042.034,270.78693,
2039.123,303.88762,
2036.213,307.95602,
2033.302,302.90727,
2030.391,302.94754,
2027.481,311.96628,
2024.570,295.86846,
2021.660,274.68933,
2018.749,322.2071,
2015.839,307.0515,
2012.928,282.45218,
2010.017,291.8074,
2007.107,285.99885,
2004.196,297.11309,
2001.286,308.10554,
1998.375,310.75393,
1995.465,292.10625,
1992.554,278.86037,
1989.643,288.2448,
1986.733,276.28377,
1983.822,308.7284,
1980.912,314.18827,
1978.001,279.28549,
1975.090,301.82805,
1972.180,298.69415,
1969.269,299.45547,
1966.359,294.48977,
1963.448,309.6184,
1960.538,310.94443,
1957.627,313.19157,
1954.716,281.57299,
1951.806,291.27082,
1948.895,301.96713,
1945.985,293.89298,
1943.074,294.00527,
1940.164,282.97163,
1937.253,301.82542,
1934.342,286.21483,
1931.432,285.65654,
1928.521,289.96352,
1925.611,294.46268,
1922.700,307.87085,
1919.790,295.26102,
1916.879,300.067,
1913.968,263.67049,
1911.058,319.97334,
1908.147,299.28196,
1905.237,302.92638,
1902.326,255.53609,
1899.415,275.00061,
1896.505,263.75144,
1893.594,255.07927,
1890.684,255.625,
1887.773,278.72787,
1884.863,317.31065,
1881.952,310.79269,
1879.041,316.24183,
1876.131,318.99624,
1873.220,307.2931,
1870.310,339.97023,
1867.399,322.94487,
1864.489,283.45535,
1861.578,327.78441,
1858.667,313.61007,
1855.757,286.19779,
1852.846,315.36859,
1849.936,307.69508,
1847.025,295.80262,
1844.114,293.44148,
1841.204,317.9222,
1838.293,333.1408,
1835.383,311.05551,
1832.472,321.38152,
1829.562,336.2638,
1826.651,340.72766,
1823.740,324.42573,
1820.830,316.08168,
1817.919,322.95439,
1815.009,322.0563,
1812.098,334.19192,
1809.188,372.20631,
1806.277,323.77586,
1803.366,319.74145,
1800.456,327.44936,
1797.545,341.90158,
1794.635,347.33404,
1791.724,369.42106,
1788.813,383.41831,
1785.903,351.13477,
1782.992,326.23309,
1780.082,345.86314,
1777.171,287.27862,
1774.261,253.22529,
1771.350,288.9145,
1768.439,328.03253,
1765.529,379.62876,
1762.618,396.86124,
1759.708,365.61389,
1756.797,361.98864,
1753.887,382.57398,
1750.976,386.80432,
1748.065,378.40841,
1745.155,414.77954,
1742.244,422.07158,
1739.334,386.92148,
1736.423,383.81003,
1733.512,390.53558,
1730.602,426.03378,
1727.691,410.75688,
1724.781,438.02095,
1721.870,429.11537,
1718.960,458.33652,
1716.049,421.99831,
1713.138,423.88495,
1710.228,434.32797,
1707.317,433.85586,
1704.407,439.01538,
1701.496,458.7675,
1698.586,443.0693,
1695.675,482.79618,
1692.764,437.34219,
1689.854,420.2746,
1686.943,478.56774,
1684.033,461.12172,
1681.122,477.33613,
1678.211,479.60597,
1675.301,501.55716,
1672.390,484.44855,
1669.480,425.96192,
1666.569,468.41215,
1663.659,529.60867,
1660.748,528.2008,
1657.837,506.51565,
1654.927,502.70274,
1652.016,547.23621,
1649.106,532.23703,
1646.195,557.20043,
1643.285,581.85547,
1640.374,633.9142,
1637.463,600.04853,
1634.553,569.157,
1631.642,604.93988,
1628.732,633.72573,
1625.821,650.66818,
1622.911,716.25308,
1620.000,678.11635,
1617.089,736.43097,
1614.179,744.42759,
1611.268,786.02635,
1608.358,872.45774,
1605.447,886.05365,
1602.536,884.76123,
1599.626,901.18379,
1596.715,967.97228,
1593.805,900.39545,
1590.894,924.20979,
1587.984,926.89282,
1585.073,883.23334,
1582.162,890.65295,
1579.252,842.89033,
1576.341,828.42075,
1573.431,832.32404,
1570.520,802.28554,
1567.610,827.64515,
1564.699,796.12321,
1561.788,818.35702,
1558.878,827.79737,
1555.967,796.87708,
1553.057,760.93556,
1550.146,759.07225,
1547.235,778.61218,
1544.325,785.36287,
1541.414,773.90397,
1538.504,780.52527,
1535.593,782.93905,
1532.683,753.62741,
1529.772,732.76251,
1526.861,732.02733,
1523.951,752.00647,
1521.040,785.99528,
1518.130,796.10309,
1515.219,805.06557,
1512.309,779.18354,
1509.398,762.41773,
1506.487,770.45189,
1503.577,762.53539,
1500.666,775.19195,
1497.756,789.30318,
1494.845,807.26371,
1491.934,750.52421,
1489.024,719.72444,
1486.113,755.71362,
1483.203,747.96699,
1480.292,716.07859,
1477.382,713.85799,
1474.471,735.34423,
1471.560,724.93468,
1468.650,702.9097,
1465.739,671.92686,
1462.829,715.91947,
1459.918,759.04493,
1457.008,729.62458,
1454.097,705.94385,
1451.186,726.43738,
1448.276,711.73849,
1445.365,657.08867,
1442.455,650.9916,
1439.544,654.625,
1436.633,654.625,
1433.723,654.625,
1430.812,654.25559,
1427.902,650.23384,
1424.991,675.82343,
1422.081,650.01816,
1419.170,683.91553,
1416.259,691.24513,
1413.349,642.53433,
1410.438,631.52346,
1407.528,658.73093,
1404.617,690.23885,
1401.707,677.18786,
1398.796,648.96068,
1395.885,646.75889,
1392.975,636.33265,
1390.064,624.57786,
1387.154,660.61518,
1384.243,628.65782,
1381.332,590.38361,
1378.422,626.40297,
1375.511,583.31104,
1372.601,639.76236,
1369.690,672.91334,
1366.780,658.61616,
1363.869,691.40181,
1360.958,689.11959,
1358.048,678.84506,
1355.137,713.37151,
1352.227,745.16748,
1349.316,743.45851,
1346.406,763.0189,
1343.495,790.1894,
1340.584,744.98141,
1337.674,797.55624,
1334.763,838.20158,
1331.853,827.0748,
1328.942,818.61982,
1326.032,830.67493,
1323.121,821.76957,
1320.210,855.58248,
1317.300,878.75662,
1314.389,892.41688,
1311.479,879.90672,
1308.568,882.9522,
1305.657,918.71031,
1302.747,880.21555,
1299.836,948.39649,
1296.926,939.9241,
1294.015,946.35937,
1291.105,969.51909,
1288.194,1007.7697,
1285.283,979.39284,
1282.373,974.74996,
1279.462,992.15419,
1276.552,1024.3889,
1273.641,1032.4039,
1270.731,1001.1548,
1267.820,1007.5965,
1264.909,1039.0969,
1261.999,991.39199,
1259.088,985.00714,
1256.178,1027.4478,
1253.267,979.38693,
1250.356,987.68339,
1247.446,991.99755,
1244.535,955.90187,
1241.625,929.87313,
1238.714,948.52267,
1235.804,972.40655,
1232.893,974.24595,
1229.982,991.39845,
1227.072,955.18596,
1224.161,972.79709,
1221.251,942.37758,
1218.340,903.4169,
1215.430,911.19695,
1212.519,931.8888,
1209.608,925.76561,
1206.698,917.02944,
1203.787,931.61493,
1200.877,896.24388,
1197.966,938.50437,
1195.055,921.85353,
1192.145,970.46769,
1189.234,1016.8207,
1186.324,1042.4441,
1183.413,1033.4016,
1180.503,1029.8368,
1177.592,1063.3017,
1174.681,1050.0497,
1171.771,1012.2638,
1168.860,1039.9495,
1165.950,1052.3005,
1163.039,1039.9585,
1160.129,1011.2105,
1157.218,1011.0086,
1154.307,1029.4801,
1151.397,1032.1036,
1148.486,1035.4204,
1145.576,1060.8904,
1142.665,1020.9343,
1139.754,1037.9657,
1136.844,1021.6159,
1133.933,1023.7686,
1131.023,1023.1273,
1128.112,1008.6257,
1125.202,995.76028,
1122.291,988.76383,
1119.380,1024.7116,
1116.470,1033.5369,
1113.559,1002.1485,
1110.649,995.89923,
1107.738,984.76537,
1104.828,981.94699,
1101.917,988.29933,
1099.006,981.05785,
1096.096,1005.6037,
1093.185,988.92164,
1090.275,995.7177,
1087.364,1011.3475,
1084.453,1030.5617,
1081.543,1041.0632,
1078.632,1044.4455,
1075.722,1051.3772,
1072.811,1054.5629,
1069.901,1053.6897,
1066.990,1019.6751,
1064.079,1028.6378,
1061.169,1046.0141,
1058.258,1043.0379,
1055.348,1033.3283,
1052.437,1040.0333,
1049.527,1017.5984,
1046.616,1042.7945,
1043.705,1038.6881,
1040.795,1042.3715,
1037.884,1035.0045,
1034.974,1018.2938,
1032.063,1012.6325,
1029.153,1030.0791,
1026.242,1042.1885,
1023.331,995.12804,
1020.421,1059.5178,
1017.510,1082.1003,
1014.600,1073.7791,
1011.689,1070.3444,
1008.778,1066.0911,
1005.868,1074.4937,
1002.957,1059.8677,
1000.047,1088.201,
997.136,1138.9758,
994.226,1158.1482,
991.315,1142.4493,
988.404,1127.3824,
985.494,1110.9894,
982.583,1127.264,
979.673,1109.8705,
976.762,1092.0572,
973.852,1091.2552,
970.941,1095.1793,
968.030,1084.4747,
965.120,1083.7575,
962.209,1115.3015,
959.299,1112.8343,
956.388,1105.1453,
953.477,1088.4721,
950.567,1090.2775,
947.656,1149.4049,
944.746,1155.3518,
941.835,1151.5759,
938.925,1162.4699,
936.014,1160.026,
933.103,1150.5657,
930.193,1151.6214,
927.282,1162.8917,
924.372,1149.362,
921.461,1169.717,
918.551,1151.483,
915.640,1122.4264,
912.729,1117.4808,
909.819,1140.513,
906.908,1132.0887,
903.998,1121.2853,
901.087,1119.898,
898.176,1124.4426,
895.266,1132.7512,
892.355,1144.9233,
889.445,1162.5479,
886.534,1154.2763,
883.624,1171.4643,
880.713,1172.9697,
877.802,1155.5506,
874.892,1126.1457,
871.981,1077.5733,
869.071,990.69035,
866.160,970.79528,
863.250,1051.449,
860.339,1137.0063,
857.428,1162.3208,
854.518,1189.5899,
851.607,1153.8109,
848.697,1086.4093,
845.786,1035.7905,
842.875,1053.0753,
839.965,1135.7612,
837.054,1187.1739,
834.144,1236.0703,
831.233,1276.9561,
828.323,1279.2716,
825.412,1265.625,
822.501,1267.4123,
819.591,1277.3291,
816.680,1263.2019,
813.770,1232.0589,
810.859,1207.5027,
807.949,1200.9323,
805.038,1211.2179,
802.127,1224.388,
799.217,1196.5547,
796.306,1189.4629,
793.396,1195.9075,
790.485,1200.9404,
787.574,1195.7771,
784.664,1226.1212,
781.753,1253.0965,
778.843,1244.5118,
775.932,1229.2546,
773.022,1239.7518,
770.111,1240.5694,
767.200,1236.8184,
764.290,1228.1126,
761.379,1229.7146,
758.469,1242.5084,
755.558,1249.7709,
752.648,1254.6585,
749.737,1266.7224,
746.826,1257.7059,
743.916,1247.3264,
741.005,1265.542,
738.095,1273.6608,
735.184,1206.6943,
732.274,1147.0194,
729.363,1136.1177,
726.452,1181.8342,
723.542,1232.826,
720.631,1242.5059,
717.721,1236.0323,
714.810,1263.8861,
711.899,1316.8032,
708.989,1304.6993,
706.078,1283.7911,
703.168,1283.4828,
700.257,1277.5484,
697.347,1264.8424,
694.436,1266.1487,
691.525,1285.4401,
688.615,1280.1913,
685.704,1268.1496,
682.794,1269.6887,
679.883,1303.3098,
676.973,1318.5359,
674.062,1301.2064,
671.151,1297.0766,
668.241,1301.6218,
665.330,1286.9864,
662.420,1315.7407,
659.509,1312.101,
656.598,1302.7303,
653.688,1308.207,
650.777,1343.0039,
647.867,1324.6884,
644.956,1330.5314,
642.046,1308.4323,
639.135,1266.3193,
636.224,1257.7961,
633.314,1291.9354,
630.403,1324.2734,
627.493,1338.7046,
624.582,1332.7999,
621.672,1320.128,
618.761,1331.0241,
615.850,1349.5017,
612.940,1379.0433,
610.029,1410.5206,
607.119,1397.8865,
604.208,1400.8851,
601.297,1402.1265,
598.387,1395.8924,
595.476,1377.7625,
592.566,1336.8349,
589.655,1384.0478,
586.745,1394.5304,
583.834,1370.9425,
580.923,1375.7293,
578.013,1392.9934,
575.102,1397.0514,
572.192,1404.128,
569.281,1415.3754,
566.371,1402.8534,
563.460,1405.1523,
560.549,1410.5232,
557.639,1426.4418,
554.728,1457.8367,
551.818,1445.3516,
548.907,1420.6861,
545.996,1421.399,
543.086,1435.2303,
540.175,1391.6261,
537.265,1393.695,
534.354,1424.2214,
531.444,1425.8738,
528.533,1361.4259,
525.622,1428.9333,
522.712,1425.4224,
519.801,1403.3142,
516.891,1384.4339,
513.980,1373.5938,
511.070,1386.7119,
508.159,1414.5931,
505.248,1439.6264,
502.338,1443.4383,
499.427,1471.2243,
496.517,1447.5139,
493.606,1417.2317,
490.695,1408.3695,
487.785,1435.3121,
484.874,1444.1486,
481.964,1430.8444,
479.053,1408.0734,
476.143,1405.7695,
473.232,1428.6459,
470.321,1433.7324,
467.411,1416.962,
464.500,1379.7026,
461.590,1382.7655,
458.679,1400.1338,
455.769,1414.5702,
452.858,1420.9199,
449.947,1462.1722,
447.037,1433.0058,
444.126,1433.025,
441.216,1468.1429,
438.305,1430.8082,
435.395,1446.6054,
432.484,1457.625,
429.573,1448.0399,
426.663,1406.9923,
423.752,1310.1708,
420.842,1205.2323,
417.931,1098.6748,
415.020,993.26306,
412.110,1154.238,
409.199,1301.6665,
406.289,1403.9401,
403.378,1438.4764,
400.468,1394.6288,
397.557,1373.9411,
394.646,1390.5194,
391.736,1453.1803,
388.825,1470.5277,
385.915,1447.4187,
383.004,1425.1949,
380.094,1431.5866,
377.183,1430.8341,
374.272,1420.3122,
371.362,1430.1676,
368.451,1474.4882,
365.541,1472.2366,
362.630,1474.3562,
359.719,1482.5444,
356.809,1495.9907,
353.898,1485.5075,
350.988,1489.1348,
348.077,1492.0113,
345.167,1485.398,
342.256,1480.9155,
339.345,1486.5336,
336.435,1483.742,
333.524,1461.0478,
330.614,1474.4606,
327.703,1495.054,
324.793,1507.5315,
321.882,1498.6286,
318.971,1500.1155,
316.061,1502.5783,
313.150,1514.7869,
310.240,1547.44,
307.329,1547.1957,
304.418,1557.5679,
301.508,1574.7604,
298.597,1590.3091,
295.687,1571.985,
292.776,1569.2917,
289.866,1582.8286,
286.955,1602.7742,
284.044,1613.8475,
281.134,1666.7624,
278.223,1745.4994,
275.313,1724.1306,
272.402,1726.5958,
269.492,1719.2677,
266.581,1690.3653,
263.670,1658.7526,
260.760,1712.8334,
257.849,1776.5274,
254.939,1793.4067,
252.028,1777.7004,
249.117,1736.4493,
246.207,1711.8614,
243.296,1778.4767,
240.386,1765.3823,
237.475,1773.066,
234.565,1798.5988,
231.654,1773.0354,
228.743,1789.489,
225.833,1777.2696,
222.922,1714.1538,
220.012,1746.9388,
217.101,1752.7178,
214.191,1742.161,
211.280,1723.9744,
208.369,1719.9337,
205.459,1716.2295,
202.548,1712.625,
199.638,1712.625,
196.727,1718.9634,
193.816,1736.87,
190.906,1765.4918,
187.995,1704.6738,
185.085,1660.4551,
182.174,1649.1204,
179.264,1702.6051,
176.353,1657.3627,
173.442,1657.2671,
170.532,1697.7962,
167.621,1613.442,
164.711,1545.9517,
161.800,1464.0908,
158.890,1342.4568,
155.979,1253.0902,
153.068,1141.9758,
150.158,1010.1955,
147.247,866.60506,
144.337,729.23117,
141.426,580.48379,
138.516,410.58057,
135.605,286.15096,
132.694,197.90545,
129.784,137.14786,
126.873,88.519029,
123.963,58.138475,
121.052,36.109348,
118.141,19.689602,
115.231,26.730704,
112.320,24.541369,
109.410,17.625,
106.499,17.625,
103.589,12.58271,
100.678,8.3533783,
97.767,7.6424407,
94.857,6.2390219,
91.946,7.6405544,
89.036,10.173408,
86.125,7.3365873,
83.215,7.6868407,
80.304,5.7518078,
77.393,-2.7462315,
74.483,6.4520244,
71.572,10.175592,
68.662,7.2786625,
65.751,3.7464071,
62.840,6.9603179,
59.930,10.12671,
57.019,4.4860545,
54.109,1.8335175,
51.198,0.92660928,
48.288,1.625,
45.377,1.625,
42.466,0.80056132,
39.556,0.77618578,
36.645,7.7980879,
33.735,7.0287577,
30.824,2.8579042,
27.914,-2.7514977,
25.003,-4.620275,
22.092,-3.4375727,
19.182,0.83094576,
16.271,7.126357,
13.361,67.786201,
10.450,159.88436,
7.539,231.11252,
4.629,53.937834,
1.718,-211.05312,
-1.192,-477.36233,
-4.103,-510.76733,
-7.013,-354.71555,
-9.924,1.625,
