,PLCB9D~1,
Wavenumbers [1/cm],Intensity,
3014.167,2.5,
3011.256,0.15003221,
3008.346,33.562279,
3005.435,18.309189,
3002.525,30.255034,
2999.614,31.302618,
2996.704,46.907215,
2993.793,37.509216,
2990.882,30.5,
2987.972,56.358741,
2985.061,30.716752,
2982.151,26.454616,
2979.240,32.5,
2976.329,44.521841,
2973.419,47.315404,
2970.508,47.733327,
2967.598,52.114056,
2964.687,32.618885,
2961.777,40.594008,
2958.866,58.834323,
2955.955,50.670363,
2953.045,56.683446,
2950.134,58.712831,
2947.224,43.727751,
2944.313,60.039175,
2941.403,60.071169,
2938.492,63.223582,
2935.581,62.569949,
2932.671,62.182425,
2929.760,66.480757,
2926.850,69.925187,
2923.939,64.378493,
2921.028,71.811788,
2918.118,66.779596,
2915.207,61.734155,
2912.297,77.428068,
2909.386,69.113135,
2906.476,54.345532,
2903.565,62.822966,
2900.654,69.346289,
2897.744,66.474856,
2894.833,64.087637,
2891.923,47.281993,
2889.012,55.205203,
2886.102,55.231092,
2883.191,36.511328,
2880.280,8.7296561,
2877.370,-92.697414,
2874.459,-160.25485,
2871.549,-108.94646,
2868.638,9.5514946,
2865.727,18.157694,
2862.817,46.64436,
2859.906,52.639598,
2856.996,56.024908,
2854.085,79.548371,
2851.175,60.906596,
2848.264,64.720502,
2845.353,50.190145,
2842.443,79.902785,
2839.532,63.529936,
2836.622,66.196615,
2833.711,69.759034,
2830.801,87.08971,
2827.890,74.77098,
2824.979,73.574013,
2822.069,74.636465,
2819.158,83.079511,
2816.248,79.741315,
2813.337,87.386586,
2810.427,81.242429,
2807.516,81.39203,
2804.605,86.295673,
2801.695,79.276303,
2798.784,67.091385,
2795.874,72.494716,
2792.963,70.428403,
2790.052,86.49571,
2787.142,88.539578,
2784.231,86.726724,
2781.321,74.688581,
2778.410,77.914974,
2775.500,90.753789,
2772.589,89.730886,
2769.678,96.141616,
2766.768,77.962103,
2763.857,85.447978,
2760.947,87.481087,
2758.036,109.91417,
2755.126,92.5,
2752.215,95.159124,
2749.304,94.010795,
2746.394,100.5,
2743.483,100.5,
2740.573,88.966764,
2737.662,88.946745,
2734.751,88.267024,
2731.841,94.527475,
2728.930,83.071996,
2726.020,92.949074,
2723.109,91.180501,
2720.199,98.696945,
2717.288,92.306572,
2714.377,102.46656,
2711.467,100.94285,
2708.556,97.27642,
2705.646,95.894346,
2702.735,118.317,
2699.825,101.03272,
2696.914,107.59547,
2694.003,113.14227,
2691.093,116.6071,
2688.182,107.09926,
2685.272,102.5441,
2682.361,98.199783,
2679.450,101.42184,
2676.540,96.560972,
2673.629,98.172653,
2670.719,99.996306,
2667.808,105.35409,
2664.898,101.20136,
2661.987,96.366645,
2659.076,94.627156,
2656.166,109.32251,
2653.255,111.86905,
2650.345,105.30762,
2647.434,91.043299,
2644.524,107.11391,
2641.613,119.52891,
2638.702,108.76828,
2635.792,107.03041,
2632.881,119.27371,
2629.971,113.90263,
2627.060,110.8325,
2624.149,118.41875,
2621.239,111.2337,
2618.328,99.220583,
2615.418,113.17727,
2612.507,107.87945,
2609.597,116.58184,
2606.686,108.86346,
2603.775,116.9008,
2600.865,117.97098,
2597.954,120.55411,
2595.044,135.55314,
2592.133,110.04763,
2589.223,131.81371,
2586.312,131.62062,
2583.401,118.90875,
2580.491,123.93747,
2577.580,134.47689,
2574.670,115.24199,
2571.759,109.7577,
2568.848,121.43925,
2565.938,138.59537,
2563.027,124.89088,
2560.117,117.24763,
2557.206,130.19741,
2554.296,133.21625,
2551.385,132.30191,
2548.474,145.83383,
2545.564,128.41801,
2542.653,153.41611,
2539.743,140.57394,
2536.832,126.94859,
2533.922,137.31077,
2531.011,132.92437,
2528.100,146.63587,
2525.190,135.17541,
2522.279,147.46824,
2519.369,129.51869,
2516.458,123.15723,
2513.548,132.72699,
2510.637,151.62297,
2507.726,153.81227,
2504.816,141.56087,
2501.905,139.61585,
2498.995,138.81382,
2496.084,157.04702,
2493.173,135.47318,
2490.263,141.64579,
2487.352,131.91733,
2484.442,144.06316,
2481.531,148.92023,
2478.621,140.59002,
2475.710,155.44633,
2472.799,151.21297,
2469.889,166.77148,
2466.978,155.73729,
2464.068,153.28838,
2461.157,158.61745,
2458.247,164.51467,
2455.336,151.9266,
2452.425,156.4151,
2449.515,151.60396,
2446.604,152.44936,
2443.694,144.73274,
2440.783,159.83559,
2437.872,156.97404,
2434.962,168.71198,
2432.051,171.8643,
2429.141,175.36473,
2426.230,175.43481,
2423.320,177.67179,
2420.409,160.60901,
2417.498,179.63767,
2414.588,159.34806,
2411.677,150.39646,
2408.767,174.75295,
2405.856,182.53568,
2402.946,168.59473,
2400.035,176.48123,
2397.124,171.3877,
2394.214,174.0684,
2391.303,171.85366,
2388.393,162.75349,
2385.482,167.27969,
2382.571,153.32266,
2379.661,152.29079,
2376.750,153.91865,
2373.840,174.83431,
2370.929,182.45668,
2368.019,173.58373,
2365.108,184.12827,
2362.197,182.29179,
2359.287,197.86992,
2356.376,182.53346,
2353.466,207.59256,
2350.555,183.10499,
2347.645,178.94769,
2344.734,189.10832,
2341.823,186.5995,
2338.913,201.10593,
2336.002,181.14106,
2333.092,194.12075,
2330.181,178.67395,
2327.270,174.5,
2324.360,187.51649,
2321.449,206.63947,
2318.539,217.96789,
2315.628,211.6179,
2312.718,208.61674,
2309.807,199.07121,
2306.896,217.47652,
2303.986,207.62986,
2301.075,207.11702,
2298.165,225.85611,
2295.254,203.1032,
2292.344,219.07673,
2289.433,219.10227,
2286.522,217.90166,
2283.612,235.26021,
2280.701,230.44172,
2277.791,234.65843,
2274.880,211.71805,
2271.969,209.62346,
2269.059,220.82425,
2266.148,213.66361,
2263.238,231.29149,
2260.327,223.18948,
2257.417,210.00722,
2254.506,228.95016,
2251.595,227.50732,
2248.685,225.18268,
2245.774,214.78592,
2242.864,220.76929,
2239.953,245.53463,
2237.043,222.00678,
2234.132,236.861,
2231.221,250.89538,
2228.311,231.75389,
2225.400,246.38742,
2222.490,242.87134,
2219.579,248.94475,
2216.669,248.54293,
2213.758,237.54313,
2210.847,241.33627,
2207.937,262.64492,
2205.026,265.27784,
2202.116,258.25585,
2199.205,252.57436,
2196.294,254.82203,
2193.384,245.7895,
2190.473,264.37559,
2187.563,269.53867,
2184.652,280.51224,
2181.742,283.31642,
2178.831,263.13041,
2175.920,277.00273,
2173.010,283.20068,
2170.099,295.16568,
2167.189,281.5574,
2164.278,291.11407,
2161.368,299.64296,
2158.457,300.04176,
2155.546,326.48369,
2152.636,311.75009,
2149.725,314.9765,
2146.815,313.66684,
2143.904,333.80111,
2140.993,333.24078,
2138.083,328.70058,
2135.172,349.91183,
2132.262,333.58715,
2129.351,342.42084,
2126.441,357.56798,
2123.530,351.56734,
2120.619,354.74782,
2117.709,331.96256,
2114.798,314.94614,
2111.888,312.5,
2108.977,316.31457,
2106.067,290.44002,
2103.156,310.53456,
2100.245,304.49624,
2097.335,297.65707,
2094.424,291.73935,
2091.514,288.20964,
2088.603,297.58749,
2085.692,319.45537,
2082.782,310.19083,
2079.871,310.42882,
2076.961,290.92071,
2074.050,301.4697,
2071.140,316.79914,
2068.229,301.30989,
2065.318,314.17925,
2062.408,315.05295,
2059.497,319.91668,
2056.587,326.91858,
2053.676,327.5,
2050.766,304.42452,
2047.855,299.21198,
2044.944,320.3077,
2042.034,301.86997,
2039.123,316.64141,
2036.213,315.9066,
2033.302,319.78227,
2030.391,326.26304,
2027.481,340.32907,
2024.570,332.32897,
2021.660,340.79045,
2018.749,363.7022,
2015.839,344.30709,
2012.928,344.44295,
2010.017,331.72042,
2007.107,335.89438,
2004.196,331.54763,
2001.286,342.56359,
1998.375,335.27854,
1995.465,326.35357,
1992.554,325.5,
1989.643,348.67047,
1986.733,342.69737,
1983.822,335.8353,
1980.912,364.78586,
1978.001,323.41467,
1975.090,344.71832,
1972.180,327.84576,
1969.269,334.48282,
1966.359,341.66209,
1963.448,343.61361,
1960.538,342.25396,
1957.627,325.45045,
1954.716,328.35637,
1951.806,349.5,
1948.895,344.39886,
1945.985,315.62745,
1943.074,337.53693,
1940.164,328.58645,
1937.253,332.26064,
1934.342,325.82461,
1931.432,322.24133,
1928.521,342.94214,
1925.611,335.96765,
1922.700,338.62293,
1919.790,349.11262,
1916.879,343.058,
1913.968,318.52951,
1911.058,373.12161,
1908.147,335.78026,
1905.237,317.05886,
1902.326,334.48964,
1899.415,301.80119,
1896.505,270.93985,
1893.594,288.40551,
1890.684,296.01634,
1887.773,310.93929,
1884.863,332.34282,
1881.952,371.97967,
1879.041,341.86707,
1876.131,343.78758,
1873.220,324.83619,
1870.310,345.63449,
1867.399,385.87625,
1864.489,356.26634,
1861.578,350.4066,
1858.667,347.73953,
1855.757,334.31146,
1852.846,327.27947,
1849.936,339.96547,
1847.025,326.67762,
1844.114,329.14473,
1841.204,354.93356,
1838.293,361.01912,
1835.383,344.03501,
1832.472,369.15217,
1829.562,369.69713,
1826.651,361.91889,
1823.740,367.86782,
1820.830,354.06679,
1817.919,364.15878,
1815.009,354.65649,
1812.098,365.96456,
1809.188,396.57745,
1806.277,359.38527,
1803.366,370.26709,
1800.456,357.59914,
1797.545,375.67025,
1794.635,369.04802,
1791.724,382.96597,
1788.813,407.30874,
1785.903,416.20943,
1782.992,353.81743,
1780.082,316.67502,
1777.171,221.81958,
1774.261,189.48038,
1771.350,269.99002,
1768.439,368.46108,
1765.529,412.59262,
1762.618,429.78064,
1759.708,420.15201,
1756.797,407.18939,
1753.887,415.70554,
1750.976,432.88285,
1748.065,451.94547,
1745.155,452.75165,
1742.244,429.6359,
1739.334,418.13059,
1736.423,425.27195,
1733.512,449.60169,
1730.602,481.43654,
1727.691,459.56124,
1724.781,480.38991,
1721.870,475.62373,
1718.960,501.27812,
1716.049,465.55126,
1713.138,475.45491,
1710.228,483.72178,
1707.317,487.15371,
1704.407,467.73526,
1701.496,509.25429,
1698.586,499.64023,
1695.675,518.14988,
1692.764,478.79096,
1689.854,458.32282,
1686.943,479.72431,
1684.033,522.43204,
1681.122,536.2791,
1678.211,504.80456,
1675.301,515.46608,
1672.390,524.39831,
1669.480,490.62835,
1666.569,507.04592,
1663.659,549.5,
1660.748,549.65425,
1657.837,557.78431,
1654.927,571.0623,
1652.016,593.45514,
1649.106,552.16099,
1646.195,579.60291,
1643.285,624.24935,
1640.374,613.20732,
1637.463,599.82426,
1634.553,617.97289,
1631.642,649.85831,
1628.732,682.54148,
1625.821,689.54383,
1622.911,756.12245,
1620.000,753.5378,
1617.089,785.84328,
1614.179,787.4718,
1611.268,836.60393,
1608.358,838.5,
1605.447,900.72908,
1602.536,890.52169,
1599.626,916.17805,
1596.715,932.11402,
1593.805,910.24737,
1590.894,906.61933,
1587.984,961.92989,
1585.073,897.32976,
1582.162,907.04192,
1579.252,892.67907,
1576.341,868.47342,
1573.431,872.11492,
1570.520,843.92492,
1567.610,870.26526,
1564.699,855.6739,
1561.788,839.16203,
1558.878,834.45171,
1555.967,805.09142,
1553.057,805.17227,
1550.146,821.48907,
1547.235,794.03204,
1544.325,784.50723,
1541.414,795.58011,
1538.504,823.21773,
1535.593,823.18045,
1532.683,779.50241,
1529.772,779.33719,
1526.861,807.51164,
1523.951,815.71809,
1521.040,834.09198,
1518.130,860.28967,
1515.219,859.58134,
1512.309,820.93246,
1509.398,835.76629,
1506.487,808.04328,
1503.577,806.38531,
1500.666,789.55127,
1497.756,845.95768,
1494.845,849.57895,
1491.934,803.31102,
1489.024,745.56145,
1486.113,790.78799,
1483.203,769.63131,
1480.292,744.4387,
1477.382,821.32482,
1474.471,779.87706,
1471.560,744.08401,
1468.650,725.88435,
1465.739,759.5699,
1462.829,743.9005,
1459.918,753.30693,
1457.008,755.09966,
1454.097,743.36474,
1451.186,765.73791,
1448.276,770.44134,
1445.365,737.45972,
1442.455,684.95988,
1439.544,696.21119,
1436.633,703.41163,
1433.723,674.70699,
1430.812,771.5447,
1427.902,734.97354,
1424.991,754.87656,
1422.081,705.95624,
1419.170,698.04376,
1416.259,721.80189,
1413.349,713.90566,
1410.438,725.59493,
1407.528,720.26891,
1404.617,732.87523,
1401.707,718.41315,
1398.796,688.30771,
1395.885,698.62218,
1392.975,693.87385,
1390.064,655.56668,
1387.154,686.36929,
1384.243,674.56564,
1381.332,590.60264,
1378.422,606.34068,
1375.511,583.85794,
1372.601,620.36281,
1369.690,676.64779,
1366.780,689.46018,
1363.869,713.74726,
1360.958,735.04411,
1358.048,753.36624,
1355.137,757.82021,
1352.227,764.56542,
1349.316,786.60955,
1346.406,797.0717,
1343.495,789.23695,
1340.584,804.42829,
1337.674,824.75122,
1334.763,844.24099,
1331.853,863.71284,
1328.942,884.06821,
1326.032,867.74073,
1323.121,845.71685,
1320.210,886.11445,
1317.300,908.90977,
1314.389,923.40307,
1311.479,943.61646,
1308.568,947.18971,
1305.657,924.04734,
1302.747,910.98692,
1299.836,1009.6031,
1296.926,969.38008,
1294.015,1009.8303,
1291.105,970.11454,
1288.194,1048.368,
1285.283,1028.6878,
1282.373,1020.7265,
1279.462,1036.4802,
1276.552,1058.0434,
1273.641,1053.8993,
1270.731,1021.4418,
1267.820,1015.669,
1264.909,1011.8955,
1261.999,1007.4334,
1259.088,1005.6092,
1256.178,1061.1697,
1253.267,1026.0027,
1250.356,1024.0133,
1247.446,1041.2345,
1244.535,1020.759,
1241.625,983.82965,
1238.714,985.88856,
1235.804,1010.4758,
1232.893,995.37057,
1229.982,1014.7641,
1227.072,993.03658,
1224.161,1009.9911,
1221.251,997.86531,
1218.340,976.3047,
1215.430,965.84839,
1212.519,950.0117,
1209.608,927.18437,
1206.698,928.47899,
1203.787,961.90201,
1200.877,968.27414,
1197.966,948.49264,
1195.055,958.59223,
1192.145,1014.5967,
1189.234,1064.2908,
1186.324,1077.1359,
1183.413,1087.1904,
1180.503,1108.8843,
1177.592,1118.6616,
1174.681,1116.2911,
1171.771,1074.3036,
1168.860,1109.1341,
1165.950,1077.8296,
1163.039,1082.0713,
1160.129,1056.8275,
1157.218,1064.8249,
1154.307,1102.0654,
1151.397,1096.6413,
1148.486,1070.6845,
1145.576,1160.8039,
1142.665,1121.7357,
1139.754,1125.009,
1136.844,1109.6927,
1133.933,1107.192,
1131.023,1114.2768,
1128.112,1112.4295,
1125.202,1099.8092,
1122.291,1091.2412,
1119.380,1068.7598,
1116.470,1095.2357,
1113.559,1090.7675,
1110.649,1069.5095,
1107.738,1049.3195,
1104.828,1054.6474,
1101.917,1073.6124,
1099.006,1068.5207,
1096.096,1054.3387,
1093.185,1051.7047,
1090.275,1057.9742,
1087.364,1045.7775,
1084.453,1076.6226,
1081.543,1089.2858,
1078.632,1077.9018,
1075.722,1107.3388,
1072.811,1143.2661,
1069.901,1111.8287,
1066.990,1090.9084,
1064.079,1084.4585,
1061.169,1098.9644,
1058.258,1104.3007,
1055.348,1096.8517,
1052.437,1099.5482,
1049.527,1085.2385,
1046.616,1104.3527,
1043.705,1091.8555,
1040.795,1086.223,
1037.884,1082.4656,
1034.974,1088.0657,
1032.063,1103.4538,
1029.153,1105.2537,
1026.242,1094.8742,
1023.331,1115.332,
1020.421,1122.9855,
1017.510,1133.4644,
1014.600,1151.9191,
1011.689,1156.6673,
1008.778,1127.1542,
1005.868,1113.5077,
1002.957,1114.3681,
1000.047,1139.98,
997.136,1168.2944,
994.226,1197.5613,
991.315,1218.7178,
988.404,1211.4479,
985.494,1159.7493,
982.583,1170.8846,
979.673,1162.2569,
976.762,1154.9774,
973.852,1157.3621,
970.941,1159.9434,
968.030,1148.3439,
965.120,1130.7685,
962.209,1194.7092,
959.299,1177.17,
956.388,1156.5406,
953.477,1164.708,
950.567,1189.8985,
947.656,1198.1631,
944.746,1187.9684,
941.835,1223.1318,
938.925,1248.6093,
936.014,1238.7844,
933.103,1230.0335,
930.193,1243.1053,
927.282,1223.5752,
924.372,1188.0597,
921.461,1223.2656,
918.551,1227.6241,
915.640,1204.7771,
912.729,1187.7937,
909.819,1200.3896,
906.908,1207.129,
903.998,1208.2954,
901.087,1193.8604,
898.176,1182.6368,
895.266,1196.9569,
892.355,1232.3012,
889.445,1220.5514,
886.534,1222.1697,
883.624,1201.6422,
880.713,1211.4039,
877.802,1214.52,
874.892,1169.0569,
871.981,1096.5149,
869.071,927.76154,
866.160,930.23814,
863.250,1048.8164,
860.339,1172.1379,
857.428,1227.1349,
854.518,1241.1038,
851.607,1192.8438,
848.697,1139.1041,
845.786,1078.5396,
842.875,1077.1539,
839.965,1156.7916,
837.054,1218.0117,
834.144,1263.5931,
831.233,1287.1656,
828.323,1287.576,
825.412,1289.8369,
822.501,1311.2873,
819.591,1321.2041,
816.680,1326.3077,
813.770,1319.3555,
810.859,1286.5231,
807.949,1269.5879,
805.038,1310.4181,
802.127,1276.6699,
799.217,1257.8468,
796.306,1249.6621,
793.396,1254.5077,
790.485,1269.0799,
787.574,1283.0916,
784.664,1298.6737,
781.753,1305.5259,
778.843,1314.3612,
775.932,1319.6482,
773.022,1318.5431,
770.111,1338.165,
767.200,1330.3643,
764.290,1286.4707,
761.379,1272.2547,
758.469,1299.639,
755.558,1311.889,
752.648,1324.9227,
749.737,1309.8747,
746.826,1272.5267,
743.916,1243.013,
741.005,1252.8931,
738.095,1282.9325,
735.184,1213.5639,
732.274,1135.5915,
729.363,1115.0361,
726.452,1172.9018,
723.542,1236.0345,
720.631,1262.4362,
717.721,1288.9767,
714.810,1325.5794,
711.899,1360.9356,
708.989,1358.5149,
706.078,1348.8844,
703.168,1347.7144,
700.257,1341.0737,
697.347,1326.8047,
694.436,1313.4782,
691.525,1312.6744,
688.615,1326.965,
685.704,1322.9809,
682.794,1324.5211,
679.883,1382.7791,
676.973,1366.7517,
674.062,1382.0044,
671.151,1366.2002,
668.241,1351.0834,
665.330,1408.1932,
662.420,1359.4706,
659.509,1364.7383,
656.598,1372.6345,
653.688,1392.6639,
650.777,1462.9329,
647.867,1446.2101,
644.956,1415.8765,
642.046,1375.0387,
639.135,1332.7445,
636.224,1303.8422,
633.314,1372.1209,
630.403,1386.5439,
627.493,1400.2471,
624.582,1414.9057,
621.672,1367.3861,
618.761,1402.737,
615.850,1420.5609,
612.940,1434.3799,
610.029,1446.3706,
607.119,1415.575,
604.208,1440.1905,
601.297,1465.4585,
598.387,1464.3085,
595.476,1426.0543,
592.566,1421.3319,
589.655,1449.0072,
586.745,1448.0092,
583.834,1417.7166,
580.923,1386.5758,
578.013,1399.1316,
575.102,1407.0887,
572.192,1423.7195,
569.281,1449.609,
566.371,1461.3484,
563.460,1468.1437,
560.549,1481.2201,
557.639,1498.9455,
554.728,1515.4653,
551.818,1499.0787,
548.907,1485.14,
545.996,1483.9431,
543.086,1487.8026,
540.175,1466.0006,
537.265,1455.0844,
534.354,1455.5135,
531.444,1463.1226,
528.533,1474.1555,
525.622,1497.4339,
522.712,1479.4434,
519.801,1458.7718,
516.891,1448.248,
513.980,1442.0536,
511.070,1466.8565,
508.159,1490.8719,
505.248,1500.7431,
502.338,1486.1611,
499.427,1474.5836,
496.517,1469.803,
493.606,1482.6327,
490.695,1510.286,
487.785,1508.7464,
484.874,1516.2547,
481.964,1492.2611,
479.053,1452.6839,
476.143,1453.4518,
473.232,1466.4493,
470.321,1478.3121,
467.411,1477.6489,
464.500,1454.403,
461.590,1450.5743,
458.679,1466.0088,
455.769,1482.6506,
452.858,1491.5679,
449.947,1511.4301,
447.037,1481.5214,
444.126,1483.5303,
441.216,1523.3094,
438.305,1516.452,
435.395,1525.9902,
432.484,1516.9137,
429.573,1480.7023,
426.663,1413.0498,
423.752,1302.8871,
420.842,1146.0686,
417.931,975.79296,
415.020,843.08029,
412.110,1068.9581,
409.199,1292.3752,
406.289,1415.1159,
403.378,1346.4462,
400.468,1330.5703,
397.557,1335.783,
394.646,1374.32,
391.736,1453.0553,
388.825,1470.4027,
385.915,1462.7274,
383.004,1446.9313,
380.094,1436.5365,
377.183,1456.8534,
374.272,1485.2968,
371.362,1502.734,
368.451,1499.0471,
365.541,1508.0535,
362.630,1503.3989,
359.719,1493.0605,
356.809,1484.1764,
353.898,1511.882,
350.988,1527.0948,
348.077,1532.048,
345.167,1526.0403,
342.256,1477.4809,
339.345,1494.3231,
336.435,1517.6137,
333.524,1506.6075,
330.614,1478.2915,
327.703,1492.0898,
324.793,1512.9844,
321.882,1511.5523,
318.971,1533.1121,
316.061,1517.0609,
313.150,1510.5142,
310.240,1568.3993,
307.329,1598.3708,
304.418,1597.1893,
301.508,1588.9985,
298.597,1613.4322,
295.687,1557.9346,
292.776,1536.3334,
289.866,1552.1288,
286.955,1588.3264,
284.044,1617.535,
281.134,1674.8237,
278.223,1744.4043,
275.313,1716.4038,
272.402,1712.2427,
269.492,1725.8573,
266.581,1743.8817,
263.670,1623.3121,
260.760,1652.7531,
257.849,1712.0133,
254.939,1713.481,
252.028,1761.9976,
249.117,1786.4388,
246.207,1776.6424,
243.296,1711.4912,
240.386,1750.8624,
237.475,1788.1782,
234.565,1808.9601,
231.654,1811.8817,
228.743,1811.9246,
225.833,1789.2426,
222.922,1737.4808,
220.012,1715.6241,
217.101,1732.0544,
214.191,1751.036,
211.280,1732.8494,
208.369,1706.6059,
205.459,1674.1382,
202.548,1654.7814,
199.638,1720.0898,
196.727,1666.659,
193.816,1655.4289,
190.906,1739.6654,
187.995,1630.3377,
185.085,1603.3757,
182.174,1610.2111,
179.264,1590.6965,
176.353,1572.4805,
173.442,1571.8388,
170.532,1580.9555,
167.621,1533.3711,
164.711,1455.8552,
161.800,1351.542,
158.890,1216.953,
155.979,1124.2263,
153.068,1029.6095,
150.158,929.81144,
147.247,819.96475,
144.337,677.28047,
141.426,523.85594,
138.516,368.29054,
135.605,278.71514,
132.694,202.66137,
129.784,136.65357,
126.873,75.867536,
123.963,54.963948,
121.052,42.267637,
118.141,26.561793,
115.231,25.078859,
112.320,18.569097,
109.410,11.999908,
106.499,19.833615,
103.589,16.45771,
100.678,10.327026,
97.767,4.6395258,
94.857,5.8859781,
91.946,8.9186652,
89.036,11.709715,
86.125,6.7452777,
83.215,7.6236814,
80.304,6.1479424,
77.393,-3.7664367,
74.483,1.3962146,
71.572,3.7752958,
68.662,2.2921975,
65.751,0.17284427,
62.840,-0.018298017,
59.930,1.2491448,
57.019,4.0694727,
54.109,5.6943217,
51.198,5.2935629,
48.288,2.4830127,
45.377,0.37287847,
42.466,-0.087780661,
39.556,1.0755929,
36.645,4.586544,
33.735,4.4615031,
30.824,2.6164521,
27.914,-0.18824887,
25.003,-1.745275,
22.092,-1.5312863,
19.182,0.98054012,
16.271,15.669833,
13.361,73.760789,
10.450,157.15841,
7.539,224.895,
4.629,76.243358,
1.718,-178.92493,
-1.192,-503.09714,
-4.103,-510.47051,
-7.013,-339.52904,
-9.924,1.5,
