,PLB9E1~1,
Wavenumbers [1/cm],Intensity,
3014.167,-5.375,
3011.256,0.17501074,
3008.346,40.980508,
3005.435,27.165639,
3002.525,41.587528,
2999.614,46.427618,
2996.704,48.403354,
2993.793,37.491936,
2990.882,48.708942,
2987.972,57.529146,
2985.061,48.822057,
2982.151,44.01154,
2979.240,59.157313,
2976.329,55.608619,
2973.419,66.178787,
2970.508,67.391673,
2967.598,41.816165,
2964.687,55.654211,
2961.777,62.095039,
2958.866,74.960808,
2955.955,67.830757,
2953.045,69.725677,
2950.134,70.986508,
2947.224,62.222845,
2944.313,79.029558,
2941.403,92.006385,
2938.492,78.625,
2935.581,86.372223,
2932.671,79.466213,
2929.760,88.832697,
2926.850,79.304324,
2923.939,82.625,
2921.028,104.20169,
2918.118,92.724495,
2915.207,77.441317,
2912.297,91.531911,
2909.386,85.062944,
2906.476,80.470532,
2903.565,84.463517,
2900.654,90.68364,
2897.744,88.549567,
2894.833,92.521724,
2891.923,89.596093,
2889.012,77.45737,
2886.102,75.188519,
2883.191,74.622168,
2880.280,54.830726,
2877.370,-33.10157,
2874.459,-94.375,
2871.549,-50.808672,
2868.638,38.948664,
2865.727,48.625,
2862.817,65.383007,
2859.906,76.85292,
2856.996,85.095563,
2854.085,130.35616,
2851.175,94.908174,
2848.264,96.394827,
2845.353,91.819103,
2842.443,105.81595,
2839.532,103.53551,
2836.622,96.383463,
2833.711,102.20271,
2830.801,102.72574,
2827.890,106.70892,
2824.979,108.983,
2822.069,118.63637,
2819.158,117.34467,
2816.248,114.37211,
2813.337,124.2433,
2810.427,107.05888,
2807.516,109.46672,
2804.605,111.28126,
2801.695,118.23026,
2798.784,108.21638,
2795.874,108.32947,
2792.963,107.98191,
2790.052,108.62371,
2787.142,104.90158,
2784.231,126.23836,
2781.321,114.05926,
2778.410,107.2849,
2775.500,122.64465,
2772.589,118.20222,
2769.678,122.16084,
2766.768,132.98812,
2763.857,133.99109,
2760.947,113.6187,
2758.036,127.8735,
2755.126,129.57586,
2752.215,129.90223,
2749.304,123.1358,
2746.394,126.89515,
2743.483,135.47498,
2740.573,144.8352,
2737.662,118.0821,
2734.751,126.625,
2731.841,116.81364,
2728.930,117.0147,
2726.020,137.2934,
2723.109,130.64575,
2720.199,143.88137,
2717.288,140.7637,
2714.377,140.43352,
2711.467,147.314,
2708.556,125.10374,
2705.646,146.59689,
2702.735,145.45232,
2699.825,145.49411,
2696.914,158.10137,
2694.003,140.75345,
2691.093,145.1966,
2688.182,154.97093,
2685.272,153.74876,
2682.361,139.28985,
2679.450,141.82661,
2676.540,141.74694,
2673.629,141.65194,
2670.719,141.82926,
2667.808,160.04137,
2664.898,150.70282,
2661.987,148.69151,
2659.076,139.13362,
2656.166,152.33494,
2653.255,161.40051,
2650.345,155.86456,
2647.434,137.1683,
2644.524,159.41639,
2641.613,170.6822,
2638.702,155.8775,
2635.792,154.5293,
2632.881,164.42866,
2629.971,164.98744,
2627.060,166.79219,
2624.149,163.08437,
2621.239,163.625,
2618.328,172.86203,
2615.418,159.60682,
2612.507,170.1072,
2609.597,144.37949,
2606.686,160.27362,
2603.775,171.14087,
2600.865,173.67966,
2597.954,190.86457,
2595.044,190.66928,
2592.133,170.22999,
2589.223,177.89028,
2586.312,182.54966,
2583.401,177.50095,
2580.491,188.17308,
2577.580,189.60685,
2574.670,177.79479,
2571.759,183.33219,
2568.848,189.625,
2565.938,205.38713,
2563.027,180.1136,
2560.117,178.18572,
2557.206,189.70618,
2554.296,205.16962,
2551.385,202.5509,
2548.474,214.25512,
2545.564,193.63798,
2542.653,215.07802,
2539.743,200.2051,
2536.832,189.8493,
2533.922,203.67231,
2531.011,207.99988,
2528.100,191.3671,
2525.190,209.20082,
2522.279,220.87463,
2519.369,204.71939,
2516.458,198.73336,
2513.548,217.47015,
2510.637,220.31759,
2507.726,213.75139,
2504.816,213.00042,
2501.905,221.3061,
2498.995,209.26669,
2496.084,206.99784,
2493.173,207.44056,
2490.263,213.59112,
2487.352,229.58327,
2484.442,223.78347,
2481.531,217.94409,
2478.621,222.08945,
2475.710,225.67867,
2472.799,224.23944,
2469.889,209.77461,
2466.978,212.24365,
2464.068,222.99013,
2461.157,231.58748,
2458.247,227.94844,
2455.336,226.85789,
2452.425,234.29953,
2449.515,237.23831,
2446.604,237.74715,
2443.694,233.53208,
2440.783,254.24775,
2437.872,238.625,
2434.962,231.79552,
2432.051,229.20555,
2429.141,238.08393,
2426.230,236.49462,
2423.320,241.23882,
2420.409,249.27906,
2417.498,237.80478,
2414.588,236.0851,
2411.677,250.87601,
2408.767,259.39567,
2405.856,270.72259,
2402.946,256.40427,
2400.035,262.80811,
2397.124,263.8496,
2394.214,270.16659,
2391.303,261.94004,
2388.393,237.66684,
2385.482,259.47939,
2382.571,257.15702,
2379.661,245.36917,
2376.750,237.36397,
2373.840,272.19669,
2370.929,259.88491,
2368.019,273.38487,
2365.108,263.53076,
2362.197,278.01405,
2359.287,280.42333,
2356.376,289.60915,
2353.466,304.15766,
2350.555,270.41503,
2347.645,280.50578,
2344.734,280.32084,
2341.823,284.5255,
2338.913,294.60558,
2336.002,286.92877,
2333.092,282.41837,
2330.181,293.25921,
2327.270,295.90003,
2324.360,295.10376,
2321.449,301.3937,
2318.539,300.75345,
2315.628,308.01988,
2312.718,312.15804,
2309.807,312.625,
2306.896,311.61717,
2303.986,313.41076,
2301.075,320.85904,
2298.165,312.0479,
2295.254,303.75426,
2292.344,305.04406,
2289.433,312.96091,
2286.522,324.40616,
2283.612,334.625,
2280.701,337.22141,
2277.791,329.90552,
2274.880,333.62906,
2271.969,322.625,
2269.059,332.67951,
2266.148,309.98393,
2263.238,326.51301,
2260.327,346.14218,
2257.417,340.57389,
2254.506,342.81588,
2251.595,341.05409,
2248.685,339.15193,
2245.774,329.61417,
2242.864,354.07886,
2239.953,358.34918,
2237.043,344.78036,
2234.132,335.07435,
2231.221,347.41576,
2228.311,361.32344,
2225.400,363.01904,
2222.490,375.69664,
2219.579,370.59929,
2216.669,378.5773,
2213.758,371.6655,
2210.847,368.26731,
2207.937,382.09567,
2205.026,388.18039,
2202.116,386.33202,
2199.205,374.81206,
2196.294,388.12099,
2193.384,380.25698,
2190.473,386.77876,
2187.563,408.66367,
2184.652,413.61276,
2181.742,388.64674,
2178.831,385.89355,
2175.920,402.54485,
2173.010,419.92659,
2170.099,434.55754,
2167.189,436.51737,
2164.278,421.33153,
2161.368,430.48083,
2158.457,452.54148,
2155.546,452.35193,
2152.636,454.14097,
2149.725,445.96729,
2146.815,469.75741,
2143.904,464.41684,
2140.993,451.14344,
2138.083,472.98974,
2135.172,483.04523,
2132.262,484.48856,
2129.351,496.99407,
2126.441,491.13953,
2123.530,519.625,
2120.619,513.84543,
2117.709,471.82387,
2114.798,467.27898,
2111.888,477.93784,
2108.977,462.36009,
2106.067,440.18231,
2103.156,458.38055,
2100.245,440.64131,
2097.335,465.78207,
2094.424,457.94955,
2091.514,446.54699,
2088.603,439.42222,
2085.692,432.39458,
2082.782,428.15911,
2079.871,463.30527,
2076.961,468.75416,
2074.050,477.47955,
2071.140,474.94681,
2068.229,477.98567,
2065.318,477.41474,
2062.408,471.60987,
2059.497,478.03572,
2056.587,479.49713,
2053.676,474.54192,
2050.766,477.31708,
2047.855,466.71044,
2044.944,469.09295,
2042.034,465.625,
2039.123,481.60816,
2036.213,493.60936,
2033.302,501.68973,
2030.391,497.06654,
2027.481,494.50291,
2024.570,494.56799,
2021.660,487.0389,
2018.749,504.90318,
2015.839,487.16306,
2012.928,497.52098,
2010.017,510.56093,
2007.107,495.90539,
2004.196,511.27978,
2001.286,529.10554,
1998.375,531.05807,
1995.465,493.22768,
1992.554,473.10744,
1989.643,510.24245,
1986.733,490.92939,
1983.822,483.84435,
1980.912,511.7534,
1978.001,501.76044,
1975.090,518.18837,
1972.180,510.90296,
1969.269,501.21125,
1966.359,498.65186,
1963.448,498.19964,
1960.538,503.05953,
1957.627,499.16679,
1954.716,527.76319,
1951.806,501.37661,
1948.895,499.43063,
1945.985,521.89298,
1943.074,522.84659,
1940.164,500.80788,
1937.253,508.30776,
1934.342,506.18917,
1931.432,520.55245,
1928.521,520.42984,
1925.611,514.02114,
1922.700,499.17058,
1919.790,508.54393,
1916.879,516.2065,
1913.968,507.63607,
1911.058,530.74813,
1908.147,543.03811,
1905.237,522.40443,
1902.326,533.3613,
1899.415,513.92619,
1896.505,478.75757,
1893.594,494.98175,
1890.684,504.49431,
1887.773,508.13343,
1884.863,541.68878,
1881.952,544.37263,
1879.041,546.94639,
1876.131,523.56488,
1873.220,537.67375,
1870.310,564.75949,
1867.399,548.91288,
1864.489,533.8976,
1861.578,543.05338,
1858.667,565.59806,
1855.757,559.22643,
1852.846,553.10194,
1849.936,540.53191,
1847.025,534.51066,
1844.114,540.94978,
1841.204,577.58654,
1838.293,573.14246,
1835.383,569.72949,
1832.472,611.20761,
1829.562,599.21327,
1826.651,591.61677,
1823.740,601.99282,
1820.830,590.50677,
1817.919,596.39752,
1815.009,581.50032,
1812.098,586.70374,
1809.188,606.38465,
1806.277,560.68733,
1803.366,604.34218,
1800.456,588.22953,
1797.545,600.65327,
1794.635,625.91408,
1791.724,656.50856,
1788.813,629.62371,
1785.903,626.09399,
1782.992,626.82023,
1780.082,596.90885,
1777.171,497.93975,
1774.261,461.11066,
1771.350,548.09776,
1768.439,610.79748,
1765.529,651.7195,
1762.618,664.47936,
1759.708,634.72264,
1756.797,633.29924,
1753.887,675.26785,
1750.976,674.21794,
1748.065,670.29934,
1745.155,687.20558,
1742.244,685.3415,
1739.334,659.02971,
1736.423,688.1913,
1733.512,685.70625,
1730.602,695.08137,
1727.691,699.08968,
1724.781,724.58203,
1721.870,725.99163,
1718.960,728.73616,
1716.049,717.87935,
1713.138,725.02995,
1710.228,736.19827,
1707.317,749.12443,
1704.407,751.5234,
1701.496,737.04024,
1698.586,725.46117,
1695.675,764.86047,
1692.764,736.38318,
1689.854,719.3179,
1686.943,756.3097,
1684.033,739.09689,
1681.122,769.09823,
1678.211,749.81535,
1675.301,786.51091,
1672.390,770.67883,
1669.480,788.82555,
1666.569,813.99318,
1663.659,841.92271,
1660.748,800.22273,
1657.837,831.04052,
1654.927,849.67186,
1652.016,851.91659,
1649.106,863.06194,
1646.195,841.17646,
1643.285,864.3086,
1640.374,893.12326,
1637.463,870.868,
1634.553,939.20134,
1631.642,978.05932,
1628.732,1017.5065,
1625.821,997.62827,
1622.911,1002.5968,
1620.000,1033.2344,
1617.089,1097.3315,
1614.179,1130.6944,
1611.268,1161.4725,
1608.358,1210.2838,
1605.447,1226.768,
1602.536,1245.3309,
1599.626,1246.625,
1596.715,1299.2659,
1593.805,1270.6404,
1590.894,1272.7897,
1587.984,1254.571,
1585.073,1215.8907,
1582.162,1208.7901,
1579.252,1217.6263,
1576.341,1218.0229,
1573.431,1158.1038,
1570.520,1158.4413,
1567.610,1158.4092,
1564.699,1163.1503,
1561.788,1188.8642,
1558.878,1155.6109,
1555.967,1125.715,
1553.057,1136.5731,
1550.146,1111.8251,
1547.235,1110.6961,
1544.325,1125.7561,
1541.414,1132.0256,
1538.504,1118.6419,
1535.593,1109.4156,
1532.683,1104.3026,
1529.772,1092.5062,
1526.861,1102.4529,
1523.951,1106.2705,
1521.040,1109.5318,
1518.130,1144.0739,
1515.219,1177.3054,
1512.309,1152.9718,
1509.398,1121.6991,
1506.487,1128.1603,
1503.577,1139.3311,
1500.666,1139.9754,
1497.756,1156.4891,
1494.845,1128.5439,
1491.934,1078.5904,
1489.024,1068.0029,
1486.113,1097.2959,
1483.203,1137.8162,
1480.292,1082.3807,
1477.382,1108.8044,
1474.471,1105.3469,
1471.560,1067.5187,
1468.650,1062.141,
1465.739,1057.9391,
1462.829,1076.9009,
1459.918,1105.8848,
1457.008,1098.8555,
1454.097,1085.7844,
1451.186,1084.803,
1448.276,1074.4112,
1445.365,1060.016,
1442.455,1035.1651,
1439.544,1031.5415,
1436.633,1038.6538,
1433.723,1029.7345,
1430.812,1065.9944,
1427.902,1070.9181,
1424.991,1083.2391,
1422.081,1058.8531,
1419.170,1066.1297,
1416.259,1062.7646,
1413.349,1093.3451,
1410.438,1104.3248,
1407.528,1075.0129,
1404.617,1090.3299,
1401.707,1095.137,
1398.796,1044.223,
1395.885,1044.7238,
1392.975,1071.5196,
1390.064,1023.6884,
1387.154,1051.8407,
1384.243,1085.8659,
1381.332,1071.297,
1378.422,1058.6928,
1375.511,1021.2216,
1372.601,1060.2525,
1369.690,1054.1956,
1366.780,1078.7622,
1363.869,1110.3252,
1360.958,1104.44,
1358.048,1091.8785,
1355.137,1138.565,
1352.227,1168.9844,
1349.316,1170.6776,
1346.406,1211.8009,
1343.495,1225.6598,
1340.584,1202.0531,
1337.674,1231.8394,
1334.763,1235.4598,
1331.853,1283.6758,
1328.942,1218.0257,
1326.032,1278.9528,
1323.121,1253.872,
1320.210,1264.93,
1317.300,1290.6101,
1314.389,1328.9172,
1311.479,1344.3921,
1308.568,1337.964,
1305.657,1350.6916,
1302.747,1354.5761,
1299.836,1416.1361,
1296.926,1462.2832,
1294.015,1454.9286,
1291.105,1428.2087,
1288.194,1447.7885,
1285.283,1467.9451,
1282.373,1464.7657,
1279.462,1469.5072,
1276.552,1493.8849,
1273.641,1497.4407,
1270.731,1482.328,
1267.820,1505.0018,
1264.909,1498.6356,
1261.999,1468.2935,
1259.088,1431.8086,
1256.178,1486.1511,
1253.267,1484.8843,
1250.356,1468.7572,
1247.446,1456.7577,
1244.535,1465.5089,
1241.625,1472.1658,
1238.714,1453.5955,
1235.804,1440.8337,
1232.893,1467.8731,
1229.982,1476.7477,
1227.072,1480.3689,
1224.161,1500.7971,
1221.251,1468.1441,
1218.340,1435.5428,
1215.430,1433.9841,
1212.519,1432.5698,
1209.608,1418.4356,
1206.698,1412.625,
1203.787,1415.2732,
1200.877,1427.6748,
1197.966,1396.2042,
1195.055,1440.7004,
1192.145,1483.1868,
1189.234,1538.0941,
1186.324,1574.1717,
1183.413,1576.6758,
1180.503,1581.127,
1177.592,1595.6853,
1174.681,1555.327,
1171.771,1593.5535,
1168.860,1547.1129,
1165.950,1527.3055,
1163.039,1543.1803,
1160.129,1535.1091,
1157.218,1528.4324,
1154.307,1546.6109,
1151.397,1554.027,
1148.486,1528.5098,
1145.576,1615.7339,
1142.665,1549.1405,
1139.754,1569.6611,
1136.844,1572.1235,
1133.933,1580.5956,
1131.023,1561.1876,
1128.112,1551.6221,
1125.202,1572.8907,
1122.291,1526.3743,
1119.380,1524.9281,
1116.470,1555.8166,
1113.559,1538.7473,
1110.649,1553.5801,
1107.738,1548.0146,
1104.828,1536.9538,
1101.917,1546.9507,
1099.006,1558.924,
1096.096,1554.3349,
1093.185,1533.2629,
1090.275,1558.3309,
1087.364,1570.114,
1084.453,1551.8138,
1081.543,1546.5805,
1078.632,1559.058,
1075.722,1556.9414,
1072.811,1563.6799,
1069.901,1578.5253,
1066.990,1540.8251,
1064.079,1584.7051,
1061.169,1601.3405,
1058.258,1585.3083,
1055.348,1572.625,
1052.437,1568.6893,
1049.527,1550.2362,
1046.616,1591.94,
1043.705,1584.2928,
1040.795,1581.902,
1037.884,1588.6939,
1034.974,1581.2178,
1032.063,1569.8323,
1029.153,1604.5864,
1026.242,1595.9368,
1023.331,1575.6263,
1020.421,1631.5757,
1017.510,1648.6606,
1014.600,1655.5817,
1011.689,1669.4937,
1008.778,1650.6139,
1005.868,1615.9571,
1002.957,1652.9523,
1000.047,1684.105,
997.136,1718.2927,
994.226,1753.4709,
991.315,1766.7958,
988.404,1738.5185,
985.494,1696.203,
982.583,1677.3588,
979.673,1674.625,
976.762,1701.6317,
973.852,1699.8505,
970.941,1671.254,
968.030,1664.573,
965.120,1658.9651,
962.209,1739.9566,
959.299,1747.959,
956.388,1716.5069,
953.477,1696.5022,
950.567,1723.6303,
947.656,1788.2908,
944.746,1785.7421,
941.835,1763.76,
938.925,1761.9153,
936.014,1772.7299,
933.103,1785.1559,
930.193,1780.2389,
927.282,1735.2208,
924.372,1746.2137,
921.461,1764.5622,
918.551,1763.0729,
915.640,1748.2762,
912.729,1728.9161,
909.819,1713.8499,
906.908,1738.2803,
903.998,1747.5786,
901.087,1749.625,
898.176,1750.5794,
895.266,1756.0686,
892.355,1761.3844,
889.445,1738.7242,
886.534,1824.6168,
883.624,1804.6192,
880.713,1817.2464,
877.802,1839.6772,
874.892,1814.1234,
871.981,1753.6338,
869.071,1542.2744,
866.160,1522.184,
863.250,1614.5459,
860.339,1726.3485,
857.428,1791.4946,
854.518,1802.8066,
851.607,1774.5162,
848.697,1709.7849,
845.786,1681.0681,
842.875,1705.142,
839.965,1758.0135,
837.054,1783.1925,
834.144,1833.7464,
831.233,1878.9558,
828.323,1884.2607,
825.412,1887.4012,
822.501,1922.4123,
819.591,1932.3291,
816.680,1880.5416,
813.770,1873.2635,
810.859,1856.7704,
807.949,1838.1372,
805.038,1854.8153,
802.127,1872.9241,
799.217,1873.1342,
796.306,1828.922,
793.396,1819.3733,
790.485,1857.4673,
787.574,1860.1268,
784.664,1847.005,
781.753,1862.7416,
778.843,1883.8771,
775.932,1916.3778,
773.022,1955.1727,
770.111,1920.0168,
767.200,1925.9994,
764.290,1931.5144,
761.379,1922.9906,
758.469,1917.7161,
755.558,1959.3819,
752.648,1951.2358,
749.737,1935.9164,
746.826,1930.4899,
743.916,1947.4239,
741.005,1989.2015,
738.095,2020.8647,
735.184,2014.6142,
732.274,1999.0553,
729.363,1948.6136,
726.452,1875.1797,
723.542,1905.9367,
720.631,1922.1512,
717.721,1964.4328,
714.810,1984.6307,
711.899,1979.9023,
708.989,2015.407,
706.078,1991.5859,
703.168,1984.4106,
700.257,1962.9964,
697.347,1933.1903,
694.436,1932.1705,
691.525,1952.2657,
688.615,1972.3478,
685.704,1945.3627,
682.794,1919.6248,
679.883,1992.454,
676.973,2010.8855,
674.062,2024.1962,
671.151,2023.05,
668.241,2022.2489,
665.330,2043.6753,
662.420,1981.3743,
659.509,2020.6893,
656.598,2043.2683,
653.688,2046.9675,
650.777,2090.4369,
647.867,2055.3985,
644.956,2021.0015,
642.046,1992.6017,
639.135,1970.3848,
636.224,1950.7284,
633.314,1971.3708,
630.403,2008.5504,
627.493,2031.7772,
624.582,2028.8576,
621.672,2007.4737,
618.761,2037.0226,
615.850,2073.0724,
612.940,2108.9695,
610.029,2128.9967,
607.119,2083.1981,
604.208,2099.9254,
601.297,2103.1413,
598.387,2086.4463,
595.476,2060.9277,
592.566,2085.3268,
589.655,2070.1883,
586.745,2070.0402,
583.834,2085.6013,
580.923,2092.5681,
578.013,2083.1513,
575.102,2080.0514,
572.192,2089.629,
569.281,2116.3422,
566.371,2164.8649,
563.460,2161.8648,
560.549,2160.0868,
557.639,2179.0816,
554.728,2223.8658,
551.818,2180.1681,
548.907,2154.1708,
545.996,2151.4008,
543.086,2154.9013,
540.175,2114.4118,
537.265,2106.555,
534.354,2122.1842,
531.444,2130.1506,
528.533,2105.3491,
525.622,2101.4694,
522.712,2113.3668,
519.801,2093.7477,
516.891,2053.3201,
513.980,2076.549,
511.070,2131.4511,
508.159,2145.0288,
505.248,2144.1373,
502.338,2169.0376,
499.427,2148.97,
496.517,2167.9482,
493.606,2188.3075,
490.695,2182.9593,
487.785,2120.6062,
484.874,2147.4598,
481.964,2136.4791,
479.053,2095.7506,
476.143,2108.806,
473.232,2149.9116,
470.321,2152.0009,
467.411,2120.4033,
464.500,2070.3232,
461.590,2097.8898,
458.679,2139.7433,
455.769,2155.0224,
452.858,2131.9994,
449.947,2174.0156,
447.037,2146.2194,
444.126,2130.7583,
441.216,2142.5084,
438.305,2130.3175,
435.395,2162.7181,
432.484,2147.7016,
429.573,2094.8799,
426.663,2065.9946,
423.752,1999.4624,
420.842,1862.477,
417.931,1683.0672,
415.020,1508.6448,
412.110,1779.9064,
409.199,1983.8254,
406.289,2081.7697,
403.378,2054.5507,
400.468,2032.6269,
397.557,2029.7382,
394.646,2067.2932,
391.736,2158.5767,
388.825,2157.0682,
385.915,2155.0284,
383.004,2159.6214,
380.094,2173.3582,
377.183,2148.5264,
374.272,2148.1384,
371.362,2158.6286,
368.451,2170.3515,
365.541,2165.8482,
362.630,2164.0788,
359.719,2167.1766,
356.809,2175.0813,
353.898,2166.0957,
350.988,2169.0499,
348.077,2188.1454,
345.167,2221.1275,
342.256,2171.821,
339.345,2178.3509,
336.435,2198.2906,
333.524,2201.7559,
330.614,2174.1852,
327.703,2163.058,
324.793,2164.2341,
321.882,2174.6737,
318.971,2194.7466,
316.061,2180.1392,
313.150,2174.0226,
310.240,2226.7128,
307.329,2272.9325,
304.418,2285.1536,
301.508,2292.8035,
298.597,2346.1135,
295.687,2331.6623,
292.776,2326.7917,
289.866,2332.625,
286.955,2332.625,
284.044,2365.515,
281.134,2406.1017,
278.223,2440.5772,
275.313,2426.5769,
272.402,2428.2722,
269.492,2413.5644,
266.581,2374.152,
263.670,2367.5354,
260.760,2404.2814,
257.849,2427.3069,
254.939,2392.0805,
252.028,2448.0849,
249.117,2449.0678,
246.207,2426.5191,
243.296,2433.8395,
240.386,2470.5395,
237.475,2469.6473,
234.565,2431.1831,
231.654,2390.2816,
228.743,2377.5974,
225.833,2402.6755,
222.922,2462.4123,
220.012,2372.0714,
217.101,2370.1051,
214.191,2394.4724,
211.280,2380.6506,
208.369,2340.6018,
205.459,2318.431,
202.548,2314.3771,
199.638,2318.731,
196.727,2302.9147,
193.816,2291.8291,
190.906,2292.9997,
187.995,2246.6622,
185.085,2224.9507,
182.174,2215.0991,
179.264,2202.0893,
176.353,2153.8481,
173.442,2121.8241,
170.532,2097.4278,
167.621,1975.5829,
164.711,1913.7188,
161.800,1829.133,
158.890,1657.8379,
155.979,1531.1698,
153.068,1371.6872,
150.158,1189.264,
147.247,1028.4427,
144.337,849.3117,
141.426,667.46036,
138.516,489.67133,
135.605,336.12532,
132.694,229.54822,
129.784,158.33605,
126.873,100.41053,
123.963,72.691036,
121.052,53.542769,
118.141,35.695219,
115.231,35.625,
112.320,30.965005,
109.410,24.625,
106.499,24.625,
103.589,19.022455,
100.678,14.625,
97.767,14.625,
94.857,10.467066,
91.946,13.865441,
89.036,19.818633,
86.125,8.4713491,
83.215,8.8105221,
80.304,8.5123751,
77.393,-0.69383408,
74.483,7.1417545,
71.572,10.537944,
68.662,8.5557325,
65.751,7.8492814,
62.840,9.070106,
59.930,8.9394242,
57.019,2.5936863,
54.109,2.2221608,
51.198,2.9266093,
48.288,3.6193376,
45.377,2.9159595,
42.466,6.3349741,
39.556,11.164526,
36.645,8.3557648,
33.735,5.5480061,
30.824,2.5205651,
27.914,-0.98531109,
25.003,-5.7334623,
22.092,-7.0833818,
19.182,-4.2377028,
16.271,-0.040762029,
13.361,19.326235,
10.450,12.255473,
7.539,-170.00484,
4.629,-528.20263,
1.718,-900.19785,
-1.192,-1163.7185,
-4.103,-908.12432,
-7.013,-501.56683,
-9.924,1.625,
