,PL2AF3~1,
Wavenumbers [1/cm],Intensity,
3014.167,-2.25,
3011.256,1.0999678,
3008.346,32.418082,
3005.435,6.407248,
3002.525,22.75,
2999.614,28.888973,
2996.704,37.112886,
2993.793,35.626152,
2990.882,34.185118,
2987.972,32.714685,
2985.061,29.740153,
2982.151,26.823943,
2979.240,36.865008,
2976.329,51.009556,
2973.419,42.642427,
2970.508,43.916634,
2967.598,34.224297,
2964.687,35.689537,
2961.777,30.630158,
2958.866,44.751485,
2955.955,35.920363,
2953.045,39.418922,
2950.134,52.717924,
2947.224,28.632533,
2944.313,54.255698,
2941.403,50.488138,
2938.492,57.313682,
2935.581,54.454293,
2932.671,43.634158,
2929.760,59.403838,
2926.850,60.436466,
2923.939,50.427552,
2921.028,64.144172,
2918.118,56.930101,
2915.207,48.332162,
2912.297,63.656911,
2909.386,64.779188,
2906.476,61.432604,
2903.565,65.299639,
2900.654,48.420368,
2897.744,60.661995,
2894.833,54.98709,
2891.923,51.884598,
2889.012,55.703758,
2886.102,74.374321,
2883.191,40.783985,
2880.280,94.75,
2877.370,76.697731,
2874.459,-3.118119,
2871.549,-8.0917696,
2868.638,18.47783,
2865.727,49.407694,
2862.817,64.779398,
2859.906,50.826913,
2856.996,67.781701,
2854.085,82.756342,
2851.175,62.439771,
2848.264,67.098163,
2845.353,56.008804,
2842.443,67.75,
2839.532,69.302229,
2836.622,69.053385,
2833.711,68.120483,
2830.801,64.850735,
2827.890,62.337449,
2824.979,77.614035,
2822.069,70.693139,
2819.158,71.450814,
2816.248,71.037633,
2813.337,81.481717,
2810.427,74.743103,
2807.516,64.023597,
2804.605,71.793274,
2801.695,75.223675,
2798.784,68.045692,
2795.874,64.739432,
2792.963,65.749785,
2790.052,73.747212,
2787.142,77.72377,
2784.231,74.686351,
2781.321,61.755764,
2778.410,74.260157,
2775.500,78.408618,
2772.589,70.826456,
2769.678,70.712424,
2766.768,86.054864,
2763.857,75.434007,
2760.947,77.775217,
2758.036,80.902861,
2755.126,82.897433,
2752.215,76.600072,
2749.304,80.005398,
2746.394,73.866911,
2743.483,86.699979,
2740.573,87.201312,
2737.662,71.399414,
2734.751,70.356637,
2731.841,88.561359,
2728.930,68.588841,
2726.020,91.530671,
2723.109,80.451252,
2720.199,90.378185,
2717.288,83.925184,
2714.377,89.233281,
2711.467,94.815928,
2708.556,79.271263,
2705.646,78.059855,
2702.735,91.917526,
2699.825,86.391793,
2696.914,97.560023,
2694.003,96.00691,
2691.093,95.964202,
2688.182,89.167777,
2685.272,101.11273,
2682.361,87.444322,
2679.450,82.704713,
2676.540,79.993889,
2673.629,90.75449,
2670.719,82.326706,
2667.808,95.874559,
2664.898,104.75,
2661.987,98.516545,
2659.076,95.495688,
2656.166,94.442685,
2653.255,89.525513,
2650.345,99.670146,
2647.434,81.379038,
2644.524,97.977814,
2641.613,107.03598,
2638.702,110.76578,
2635.792,101.87463,
2632.881,100.7084,
2629.971,109.96484,
2627.060,94.915315,
2624.149,105.29063,
2621.239,106.25296,
2618.328,94.792387,
2615.418,98.404549,
2612.507,110.57606,
2609.597,93.861776,
2606.686,117.97088,
2603.775,109.46825,
2600.865,109.86606,
2597.954,101.61245,
2595.044,117.09809,
2592.133,106.41235,
2589.223,101.75,
2586.312,111.0917,
2583.401,103.77187,
2580.491,112.35091,
2577.580,97.763203,
2574.670,103.25936,
2571.759,113.81591,
2568.848,117.04829,
2565.938,108.84523,
2563.027,106.45684,
2560.117,111.55376,
2557.206,115.94188,
2554.296,118.6905,
2551.385,113.13004,
2548.474,125.78718,
2545.564,115.19318,
2542.653,127.3708,
2539.743,126.3301,
2536.832,121.26028,
2533.922,133.70269,
2531.011,132.39986,
2528.100,127.68725,
2525.190,130.02746,
2522.279,136.89069,
2519.369,141.25934,
2516.458,137.52266,
2513.548,141.45895,
2510.637,136.04114,
2507.726,149.50463,
2504.816,129.56172,
2501.905,136.1122,
2498.995,128.88466,
2496.084,140.92418,
2493.173,120.56556,
2490.263,141.07547,
2487.352,146.70667,
2484.442,127.02193,
2481.531,138.80318,
2478.621,120.55562,
2475.710,151.64265,
2472.799,135.03703,
2469.889,131.59765,
2466.978,133.86343,
2464.068,131.79232,
2461.157,142.51998,
2458.247,144.0441,
2455.336,149.00441,
2452.425,144.72641,
2449.515,155.24065,
2446.604,156.28228,
2443.694,145.35442,
2440.783,148.84685,
2437.872,151.64061,
2434.962,147.96198,
2432.051,155.99093,
2429.141,159.63244,
2426.230,152.07596,
2423.320,150.32123,
2420.409,153.45523,
2417.498,159.10957,
2414.588,147.49534,
2411.677,133.57474,
2408.767,156.76181,
2405.856,162.56427,
2402.946,149.32105,
2400.035,165.12561,
2397.124,154.1992,
2394.214,158.7232,
2391.303,159.67818,
2388.393,157.25697,
2385.482,163.44157,
2382.571,155.59828,
2379.661,148.63374,
2376.750,156.01103,
2373.840,150.20006,
2370.929,165.54424,
2368.019,162.02646,
2365.108,174.95942,
2362.197,167.18011,
2359.287,175.52326,
2356.376,179.74824,
2353.466,186.82713,
2350.555,163.9849,
2347.645,160.34205,
2344.734,167.05416,
2341.823,179.56758,
2338.913,184.48729,
2336.002,173.27863,
2333.092,177.61225,
2330.181,178.04921,
2327.270,171.30005,
2324.360,178.55659,
2321.449,180.5187,
2318.539,185.4962,
2315.628,178.6165,
2312.718,173.39978,
2309.807,201.09157,
2306.896,203.73435,
2303.986,200.79548,
2301.075,197.34577,
2298.165,195.14428,
2295.254,174.22395,
2292.344,190.27277,
2289.433,191.65727,
2286.522,191.87927,
2283.612,207.84948,
2280.701,207.34641,
2277.791,211.34925,
2274.880,201.964,
2271.969,209.71297,
2269.059,208.46116,
2266.148,179.78172,
2263.238,197.93917,
2260.327,190.64667,
2257.417,204.41055,
2254.506,210.55912,
2251.595,203.75732,
2248.685,221.31915,
2245.774,222.54133,
2242.864,224.49065,
2239.953,218.92934,
2237.043,210.0225,
2234.132,205.19935,
2231.221,211.85598,
2228.311,213.01031,
2225.400,239.32782,
2222.490,223.4503,
2219.579,215.69858,
2216.669,216.72615,
2213.758,215.22712,
2210.847,214.97418,
2207.937,239.73205,
2205.026,217.41647,
2202.116,221.96338,
2199.205,222.22482,
2196.294,222.37801,
2193.384,232.53902,
2190.473,239.46596,
2187.563,251.70166,
2184.652,243.25612,
2181.742,243.77174,
2178.831,238.8201,
2175.920,257.91576,
2173.010,265.27551,
2170.099,259.08432,
2167.189,257.84328,
2164.278,269.13593,
2161.368,262.6068,
2158.457,273.56264,
2155.546,282.67405,
2152.636,287.14361,
2149.725,294.40771,
2146.815,310.24947,
2143.904,312.55668,
2140.993,322.23156,
2138.083,304.3974,
2135.172,319.17863,
2132.262,312.72887,
2129.351,333.95708,
2126.441,313.71107,
2123.530,308.0755,
2120.619,331.79608,
2117.709,301.80475,
2114.798,295.42682,
2111.888,283.31239,
2108.977,287.65729,
2106.067,268.2738,
2103.156,282.86604,
2100.245,282.74247,
2097.335,269.66623,
2094.424,262.7074,
2091.514,274.68825,
2088.603,285.05417,
2085.692,275.20355,
2082.782,267.09542,
2079.871,268.03588,
2076.961,306.16688,
2074.050,274.89545,
2071.140,279.68088,
2068.229,282.67449,
2065.318,272.93601,
2062.408,287.75,
2059.497,294.36311,
2056.587,298.04071,
2053.676,277.33458,
2050.766,305.05568,
2047.855,295.29433,
2044.944,280.14904,
2042.034,286.77896,
2039.123,301.7904,
2036.213,300.44331,
2033.302,305.16287,
2030.391,294.14039,
2027.481,301.34739,
2024.570,323.76386,
2021.660,281.5882,
2018.749,310.59804,
2015.839,305.67388,
2012.928,296.22147,
2010.017,289.04859,
2007.107,288.40046,
2004.196,292.96432,
2001.286,317.46022,
1998.375,306.17814,
1995.465,308.54911,
1992.554,283.70318,
1989.643,325.1255,
1986.733,288.26842,
1983.822,284.26403,
1980.912,310.83904,
1978.001,308.37709,
1975.090,308.55458,
1972.180,302.40559,
1969.269,298.31609,
1966.359,303.93926,
1963.448,317.70773,
1960.538,333.11114,
1957.627,289.38464,
1954.716,324.54347,
1951.806,311.3029,
1948.895,303.51517,
1945.985,308.75,
1943.074,303.14123,
1940.164,294.79821,
1937.253,305.75,
1934.342,297.68155,
1931.432,309.95505,
1928.521,316.30786,
1925.611,295.89302,
1922.700,318.24171,
1919.790,308.52476,
1916.879,294.58699,
1913.968,289.75492,
1911.058,342.64488,
1908.147,302.33689,
1905.237,319.99261,
1902.326,297.54111,
1899.415,294.17316,
1896.505,274.91858,
1893.594,269.10978,
1890.684,277.26634,
1887.773,279.48271,
1884.863,287.76595,
1881.952,311.27981,
1879.041,341.68822,
1876.131,330.01929,
1873.220,303.95788,
1870.310,319.31499,
1867.399,338.46212,
1864.489,306.16585,
1861.578,297.07377,
1858.667,343.17519,
1855.757,311.54714,
1852.846,317.01153,
1849.936,318.30857,
1847.025,299.39964,
1844.114,302.23476,
1841.204,333.67308,
1838.293,328.2791,
1835.383,334.79598,
1832.472,344.07522,
1829.562,351.44245,
1826.651,348.12578,
1823.740,343.47797,
1820.830,326.00181,
1817.919,342.73817,
1815.009,337.47519,
1812.098,352.80511,
1809.188,366.00579,
1806.277,312.96725,
1803.366,373.61874,
1800.456,310.37717,
1797.545,371.36709,
1794.635,360.71705,
1791.724,380.91505,
1788.813,377.94511,
1785.903,359.93607,
1782.992,361.21203,
1780.082,379.80834,
1777.171,330.40255,
1774.261,268.98982,
1771.350,286.20151,
1768.439,344.68742,
1765.529,379.93618,
1762.618,403.40187,
1759.708,364.5214,
1756.797,366.17424,
1753.887,398.00656,
1750.976,394.44306,
1748.065,385.22005,
1745.155,402.82727,
1742.244,413.42573,
1739.334,377.83001,
1736.423,413.3275,
1733.512,403.46129,
1730.602,418.67861,
1727.691,402.4172,
1724.781,440.37144,
1721.870,446.31187,
1718.960,443.92777,
1716.049,426.13153,
1713.138,458.65982,
1710.228,428.19753,
1707.317,426.28829,
1704.407,442.02275,
1701.496,446.48464,
1698.586,454.14188,
1695.675,488.43551,
1692.764,444.36063,
1689.854,429.31298,
1686.943,452.90686,
1684.033,460.57615,
1681.122,484.34218,
1678.211,490.6929,
1675.301,540.59583,
1672.390,537.54962,
1669.480,471.0789,
1666.569,511.87696,
1663.659,522.17464,
1660.748,547.9621,
1657.837,558.59691,
1654.927,551.56257,
1652.016,542.87523,
1649.106,508.63132,
1646.195,545.54823,
1643.285,618.52213,
1640.374,606.93119,
1637.463,522.95698,
1634.553,589.54801,
1631.642,643.04316,
1628.732,669.66112,
1625.821,654.74346,
1622.911,644.80635,
1620.000,680.29645,
1617.089,719.95398,
1614.179,751.84757,
1611.268,774.89491,
1608.358,797.67307,
1605.447,846.8361,
1602.536,903.79945,
1599.626,914.18953,
1596.715,905.67399,
1593.805,869.87106,
1590.894,878.96005,
1587.984,917.12587,
1585.073,889.56815,
1582.162,873.73137,
1579.252,839.01796,
1576.341,835.75532,
1573.431,829.70143,
1570.520,816.28434,
1567.610,823.18153,
1564.699,778.173,
1561.788,780.17234,
1558.878,799.67421,
1555.967,777.00208,
1553.057,767.8534,
1550.146,752.31368,
1547.235,753.73718,
1544.325,761.61894,
1541.414,746.16845,
1538.504,747.62267,
1535.593,764.1584,
1532.683,739.72695,
1529.772,729.60589,
1526.861,748.4848,
1523.951,754.48595,
1521.040,785.21344,
1518.130,775.11222,
1515.219,774.1108,
1512.309,748.48424,
1509.398,761.69854,
1506.487,783.3252,
1503.577,751.51344,
1500.666,763.9885,
1497.756,781.75,
1494.845,780.66941,
1491.934,754.63031,
1489.024,718.05558,
1486.113,772.38293,
1483.203,740.33513,
1480.292,724.71935,
1477.382,764.77891,
1474.471,747.89174,
1471.560,714.35169,
1468.650,702.70018,
1465.739,690.86167,
1462.829,696.08953,
1459.918,711.48487,
1457.008,738.56565,
1454.097,734.71778,
1451.186,729.20648,
1448.276,745.99123,
1445.365,704.03278,
1442.455,654.26406,
1439.544,627.64015,
1436.633,667.00224,
1433.723,659.24849,
1430.812,664.74483,
1427.902,690.13335,
1424.991,706.24531,
1422.081,694.8228,
1419.170,685.1094,
1416.259,670.78899,
1413.349,656.42138,
1410.438,693.33722,
1407.528,711.39374,
1404.617,744.62918,
1401.707,712.63619,
1398.796,665.63811,
1395.885,659.8956,
1392.975,651.93763,
1390.064,684.53214,
1387.154,744.07678,
1384.243,734.7856,
1381.332,757.9954,
1378.422,706.05001,
1375.511,595.50985,
1372.601,674.84819,
1369.690,695.46556,
1366.780,689.82965,
1363.869,719.71499,
1360.958,716.56503,
1358.048,736.63565,
1355.137,790.44515,
1352.227,804.82179,
1349.316,803.02496,
1346.406,807.16298,
1343.495,765.96084,
1340.584,805.10677,
1337.674,829.8572,
1334.763,830.53829,
1331.853,824.9749,
1328.942,809.62911,
1326.032,809.38124,
1323.121,790.48492,
1320.210,826.36893,
1317.300,852.47186,
1314.389,891.20903,
1311.479,907.2744,
1308.568,893.0114,
1305.657,903.25468,
1302.747,902.87046,
1299.836,949.94413,
1296.926,972.53635,
1294.015,967.93974,
1291.105,965.10837,
1288.194,979.12737,
1285.283,972.72596,
1282.373,976.34372,
1279.462,960.98567,
1276.552,981.91551,
1273.641,1007.6677,
1270.731,987.10075,
1267.820,1001.8417,
1264.909,986.15613,
1261.999,952.4837,
1259.088,945.18673,
1256.178,990.99865,
1253.267,974.19975,
1250.356,959.97746,
1247.446,976.69872,
1244.535,954.57599,
1241.625,909.67595,
1238.714,922.65895,
1235.804,972.94421,
1232.893,955.87481,
1229.982,955.95274,
1227.072,932.41463,
1224.161,976.97771,
1221.251,955.96963,
1218.340,938.62407,
1215.430,930.89625,
1212.519,928.20276,
1209.608,923.78874,
1206.698,906.83491,
1203.787,883.43844,
1200.877,884.36888,
1197.966,926.62937,
1195.055,918.51102,
1192.145,925.01478,
1189.234,990.68286,
1186.324,1012.2033,
1183.413,988.05963,
1180.503,1002.1148,
1177.592,1048.184,
1174.681,998.01712,
1171.771,1006.6058,
1168.860,1000.3541,
1165.950,997.33113,
1163.039,986.27396,
1160.129,977.03116,
1157.218,1001.6327,
1154.307,1024.3295,
1151.397,1011.4893,
1148.486,1012.9978,
1145.576,1024.1695,
1142.665,987.76512,
1139.754,995.32717,
1136.844,1029.2636,
1133.933,1023.9818,
1131.023,998.47551,
1128.112,990.10637,
1125.202,999.75,
1122.291,997.36859,
1119.380,980.85394,
1116.470,991.44428,
1113.559,974.19202,
1110.649,977.91784,
1107.738,981.67836,
1104.828,995.72958,
1101.917,1006.0987,
1099.006,978.64696,
1096.096,967.78244,
1093.185,951.97839,
1090.275,979.88373,
1087.364,975.08591,
1084.453,993.93596,
1081.543,988.64785,
1078.632,972.47954,
1075.722,1010.956,
1072.811,1035.0818,
1069.901,997.53154,
1066.990,1018.1916,
1064.079,1001.9736,
1061.169,1000.5868,
1058.258,1003.5151,
1055.348,1003.0413,
1052.437,1007.8786,
1049.527,969.02552,
1046.616,1002.041,
1043.705,1016.5407,
1040.795,1025.4965,
1037.884,1024.1984,
1034.974,1014.5361,
1032.063,1000.504,
1029.153,989.04698,
1026.242,1033.1598,
1023.331,984.7532,
1020.421,1025.6384,
1017.510,1033.1828,
1014.600,1040.3589,
1011.689,1060.6187,
1008.778,1050.2424,
1005.868,1064.5801,
1002.957,1045.6523,
1000.047,1068.23,
997.136,1078.3373,
994.226,1100.6112,
991.315,1117.703,
988.404,1091.1831,
985.494,1072.7884,
982.583,1074.5015,
979.673,1074.0184,
976.762,1070.8145,
973.852,1060.3518,
970.941,1051.2319,
968.030,1052.9465,
965.120,1042.8896,
962.209,1076.1388,
959.299,1079.6253,
956.388,1084.9096,
953.477,1082.7625,
950.567,1082.1613,
947.656,1109.7527,
944.746,1117.3987,
941.835,1103.9832,
938.925,1131.6784,
936.014,1128.0228,
933.103,1113.3402,
930.193,1120.5515,
927.282,1115.7042,
924.372,1114.8586,
921.461,1122.114,
918.551,1114.8741,
915.640,1095.8516,
912.729,1091.826,
909.819,1123.3043,
906.908,1112.3528,
903.998,1102.2056,
901.087,1110.5706,
898.176,1101.0026,
895.266,1090.098,
892.355,1109.4042,
889.445,1139.6178,
886.534,1146.429,
883.624,1131.602,
880.713,1140.5917,
877.802,1163.003,
874.892,1155.8138,
871.981,1069.718,
869.071,983.67049,
866.160,950.12109,
863.250,1032.4371,
860.339,1106.1586,
857.428,1105.0982,
854.518,1163.8483,
851.607,1098.1149,
848.697,1074.3693,
845.786,1027.2327,
842.875,1029.9967,
839.965,1119.1436,
837.054,1176.1873,
834.144,1215.1386,
831.233,1228.0829,
828.323,1204.5377,
825.412,1186.765,
822.501,1207.0905,
819.591,1214.5281,
816.680,1206.7372,
813.770,1215.4005,
810.859,1189.2607,
807.949,1156.0891,
805.038,1173.0487,
802.127,1175.5181,
799.217,1148.9159,
796.306,1130.1013,
793.396,1156.6206,
790.485,1201.5374,
787.574,1170.9991,
784.664,1177.56,
781.753,1196.1956,
778.843,1223.3731,
775.932,1244.2932,
773.022,1241.6637,
770.111,1202.42,
767.200,1210.4084,
764.290,1198.1473,
761.379,1202.8986,
758.469,1227.75,
755.558,1227.4096,
752.648,1216.0052,
749.737,1218.3195,
746.826,1237.534,
743.916,1265.9644,
741.005,1300.1127,
738.095,1391.8547,
735.184,1427.062,
732.274,1398.8854,
729.363,1318.6864,
726.452,1226.7268,
723.542,1221.061,
720.631,1208.5174,
717.721,1207.6142,
714.810,1226.4999,
711.899,1251.3044,
708.989,1240.8144,
706.078,1234.3396,
703.168,1219.9984,
700.257,1210.9249,
697.347,1215.4016,
694.436,1235.1172,
691.525,1211.8068,
688.615,1211.7813,
685.704,1224.2473,
682.794,1245.4095,
679.883,1273.4256,
676.973,1266.2133,
674.062,1259.6453,
671.151,1251.49,
668.241,1254.0417,
665.330,1282.5021,
662.420,1256.1439,
659.509,1245.0356,
656.598,1231.364,
653.688,1244.895,
650.777,1335.1019,
647.867,1315.9901,
644.956,1312.9883,
642.046,1272.7048,
639.135,1214.75,
636.224,1214.9688,
633.314,1258.6354,
630.403,1273.2973,
627.493,1280.3589,
624.582,1282.2763,
621.672,1257.7245,
618.761,1273.4687,
615.850,1299.6875,
612.940,1327.3376,
610.029,1346.4348,
607.119,1338.5385,
604.208,1310.7695,
601.297,1324.6759,
598.387,1339.1446,
595.476,1310.5216,
592.566,1286.9096,
589.655,1324.8629,
586.745,1343.8443,
583.834,1334.3583,
580.923,1319.058,
578.013,1370.0657,
575.102,1358.5121,
572.192,1344.752,
569.281,1350.3756,
566.371,1331.5926,
563.460,1367.8453,
560.549,1368.6444,
557.639,1356.5099,
554.728,1366.6515,
551.818,1365.0908,
548.907,1351.3429,
545.996,1345.0827,
543.086,1341.3684,
540.175,1307.108,
537.265,1319.2356,
534.354,1330.7703,
531.444,1346.503,
528.533,1370.536,
525.622,1353.4652,
522.712,1368.5594,
519.801,1341.7982,
516.891,1286.7318,
513.980,1326.2208,
511.070,1341.0196,
508.159,1345.2724,
505.248,1356.0163,
502.338,1389.14,
499.427,1368.3006,
496.517,1391.5985,
493.606,1397.5984,
490.695,1364.6802,
487.785,1356.9822,
484.874,1383.5376,
481.964,1364.6972,
479.053,1316.3823,
476.143,1314.8464,
473.232,1335.6127,
470.321,1345.2097,
467.411,1360.9326,
464.500,1401.5864,
461.590,1355.642,
458.679,1359.8091,
455.769,1356.1064,
452.858,1326.2602,
449.947,1408.0009,
447.037,1393.1985,
444.126,1385.3197,
441.216,1401.4585,
438.305,1370.9812,
435.395,1373.3064,
432.484,1358.4129,
429.573,1333.9925,
426.663,1339.3135,
423.752,1284.6539,
420.842,1198.6407,
417.931,1082.3026,
415.020,932.9061,
412.110,1079.1939,
409.199,1238.9064,
406.289,1347.0121,
403.378,1344.6347,
400.468,1310.615,
397.557,1300.2641,
394.646,1322.8363,
391.736,1384.6574,
388.825,1444.2417,
385.915,1455.3637,
383.004,1445.4669,
380.094,1432.9073,
377.183,1396.7885,
374.272,1391.635,
371.362,1406.9344,
368.451,1432.3823,
365.541,1409.8662,
362.630,1397.1951,
359.719,1388.7903,
356.809,1380.7079,
353.898,1363.4855,
350.988,1394.5541,
348.077,1426.4925,
345.167,1429.5012,
342.256,1404.848,
339.345,1404.6586,
336.435,1402.1446,
333.524,1380.2198,
330.614,1395.1229,
327.703,1400.7768,
324.793,1398.6565,
321.882,1389.8852,
318.971,1445.6434,
316.061,1453.0305,
313.150,1445.8309,
310.240,1462.1575,
307.329,1487.7623,
304.418,1519.1798,
301.508,1551.8393,
298.597,1578.4943,
295.687,1565.1735,
292.776,1578.5834,
289.866,1612.265,
286.955,1633.6881,
284.044,1617.775,
281.134,1615.2666,
278.223,1626.5166,
275.313,1604.4109,
272.402,1624.1479,
269.492,1638.5815,
266.581,1628.7546,
263.670,1586.8493,
260.760,1587.2872,
257.849,1620.0501,
254.939,1680.9623,
252.028,1688.2646,
249.117,1645.5241,
246.207,1602.5464,
243.296,1644.2725,
240.386,1686.6235,
237.475,1690.6141,
234.565,1665.5552,
231.654,1670.6679,
228.743,1689.011,
225.833,1678.5779,
222.922,1625.75,
220.012,1625.75,
217.101,1617.4078,
214.191,1610.9356,
211.280,1618.2102,
208.369,1599.9112,
205.459,1587.9552,
202.548,1587.8865,
199.638,1611.8329,
196.727,1602.3446,
193.816,1606.5001,
190.906,1637.5756,
187.995,1547.0726,
185.085,1519.06,
182.174,1513.3476,
179.264,1478.6548,
176.353,1511.2744,
173.442,1539.7263,
170.532,1545.5173,
167.621,1474.8617,
164.711,1396.8864,
161.800,1315.7328,
158.890,1233.6839,
155.979,1094.8618,
153.068,981.08834,
150.158,878.85474,
147.247,726.64886,
144.337,622.48745,
141.426,509.85452,
138.516,361.45803,
135.605,261.346,
132.694,191.08294,
129.784,140.43664,
126.873,87.517031,
123.963,59.108826,
121.052,40.934083,
118.141,28.797749,
115.231,20.223156,
112.320,16.75,
109.410,16.340934,
106.499,14.204469,
103.589,14.310254,
100.678,11.49054,
97.767,2.9592886,
94.857,2.75,
91.946,7.1842196,
89.036,12.733919,
86.125,6.3510714,
83.215,4.75,
80.304,3.0739712,
77.393,-1.8832184,
74.483,2.9910797,
71.572,4.3005915,
68.662,1.8192675,
65.751,2.5257186,
62.840,3.231702,
59.930,3.75,
57.019,3.75,
54.109,-1.0272868,
51.198,-3.0435629,
48.288,-0.22735023,
45.377,2.586162,
42.466,3.75,
39.556,3.0592885,
36.645,-1.1538528,
33.735,-2.25,
30.824,-1.3664521,
27.914,1.4382489,
25.003,-2.6084623,
22.092,-4.6041909,
19.182,-2.9067571,
16.271,7.5855949,
13.361,59.796209,
10.450,130.55759,
7.539,158.4902,
4.629,-35.61674,
1.718,-322.17821,
-1.192,-641.47041,
-4.103,-595.35326,
-7.013,-375.68596,
-9.924,-1.25,
