,Pliquid_AuCOFNPs-citrate13new_1E-1mgmL_100uL_mix_1E-4mgL_16h_785nm_133mW_3s_1acc_3_RamanShift__3__47,
Raman shift [1/cm],Intensity,
3014.167,2.375,
3011.256,1.4750215,
3008.346,66.903427,
3005.435,90.184189,
3002.525,106.88507,
2999.614,83.137336,
2996.704,91.915203,
2993.793,98.51728,
2990.882,94.41312,
2987.972,111.34473,
2985.061,103.15825,
2982.151,124.15317,
2979.240,105.9577,
2976.329,113.88319,
2973.419,118.86768,
2970.508,118.17492,
2967.598,125.23163,
2964.687,129.06114,
2961.777,138.18698,
2958.866,145.06295,
2955.955,130.79312,
2953.045,152.375,
2950.134,149.34292,
2947.224,147.94438,
2944.313,157.93696,
2941.403,145.50593,
2938.492,160.25848,
2935.581,156.17626,
2932.671,162.29344,
2929.760,153.30577,
2926.850,150.47951,
2923.939,156.93575,
2921.028,169.78692,
2918.118,184.21379,
2915.207,181.43838,
2912.297,191.35384,
2909.386,179.57208,
2906.476,181.59971,
2903.565,182.27871,
2900.654,179.26882,
2897.744,180.38757,
2894.833,172.303,
2891.923,176.40391,
2889.012,203.0513,
2886.102,170.16689,
2883.191,152.39105,
2880.280,156.13576,
2877.370,126.89249,
2874.459,136.24932,
2871.549,156.07239,
2868.638,202.243,
2865.727,178.29425,
2862.817,181.11831,
2859.906,174.76815,
2856.996,192.37953,
2854.085,192.25525,
2851.175,188.32682,
2848.264,180.87984,
2845.353,196.4397,
2842.443,195.38196,
2839.532,176.95717,
2836.622,197.61654,
2833.711,197.05632,
2830.801,198.57647,
2827.890,188.20716,
2824.979,192.00493,
2822.069,195.375,
2819.158,199.5556,
2816.248,203.38658,
2813.337,215.35427,
2810.427,214.06645,
2807.516,210.43266,
2804.605,203.70915,
2801.695,215.92761,
2798.784,200.81854,
2795.874,198.36972,
2792.963,211.73234,
2790.052,195.3795,
2787.142,203.69069,
2784.231,204.72902,
2781.321,196.31214,
2778.410,202.01458,
2775.500,210.60914,
2772.589,205.14411,
2769.678,206.15997,
2766.768,219.92647,
2763.857,216.90294,
2760.947,222.32457,
2758.036,214.375,
2755.126,210.84082,
2752.215,227.20668,
2749.304,219.1196,
2746.394,217.49191,
2743.483,227.02499,
2740.573,224.82631,
2737.662,222.49186,
2734.751,218.55958,
2731.841,213.26694,
2728.930,205.15043,
2726.020,214.94155,
2723.109,216.28233,
2720.199,225.39367,
2717.288,235.8312,
2714.377,236.24582,
2711.467,237.76841,
2708.556,238.33247,
2705.646,248.36094,
2702.735,245.375,
2699.825,238.03861,
2696.914,238.47047,
2694.003,233.375,
2691.093,235.1608,
2688.182,223.62833,
2685.272,244.85295,
2682.361,240.91648,
2679.450,238.40788,
2676.540,236.375,
2673.629,233.72031,
2670.719,245.07557,
2667.808,247.71545,
2664.898,236.75146,
2661.987,252.60846,
2659.076,253.01078,
2656.166,245.79489,
2653.255,251.41241,
2650.345,259.78335,
2647.434,250.71796,
2644.524,255.53328,
2641.613,251.20341,
2638.702,248.375,
2635.792,269.59533,
2632.881,257.375,
2629.971,259.99247,
2627.060,253.70625,
2624.149,267.15938,
2621.239,270.88982,
2618.328,270.82397,
2615.418,265.34319,
2612.507,266.96398,
2609.597,261.19137,
2606.686,280.56978,
2603.775,279.45436,
2600.865,278.90402,
2597.954,269.90205,
2595.044,283.67881,
2592.133,278.75705,
2589.223,281.18238,
2586.312,295.375,
2583.401,289.09031,
2580.491,283.55288,
2577.580,276.40636,
2574.670,295.65174,
2571.759,293.62243,
2568.848,293.84463,
2565.938,300.37514,
2563.027,286.13179,
2560.117,275.30954,
2557.206,309.57795,
2554.296,285.0615,
2551.385,288.813,
2548.474,303.44935,
2545.564,292.91314,
2542.653,307.14346,
2539.743,302.91813,
2536.832,295.5993,
2533.922,307.69038,
2531.011,319.67565,
2528.100,309.50395,
2525.190,296.23894,
2522.279,323.76533,
2519.369,312.58247,
2516.458,308.14766,
2513.548,308.03856,
2510.637,303.98983,
2507.726,310.87685,
2504.816,306.50014,
2501.905,309.80976,
2498.995,313.31528,
2496.084,308.38891,
2493.173,313.74388,
2490.263,311.8134,
2487.352,323.29153,
2484.442,323.65337,
2481.531,332.00795,
2478.621,327.46502,
2475.710,342.36733,
2472.799,340.38846,
2469.889,333.49688,
2466.978,334.4265,
2464.068,317.22149,
2461.157,340.45492,
2458.247,340.58073,
2455.336,340.52179,
2452.425,339.56839,
2449.515,342.35629,
2446.604,351.13766,
2443.694,345.07234,
2440.783,349.71059,
2437.872,326.77611,
2434.962,345.25517,
2432.051,364.93668,
2429.141,358.10447,
2426.230,358.24462,
2423.320,358.16061,
2420.409,363.1314,
2417.498,358.39185,
2414.588,370.72474,
2411.677,374.98459,
2408.767,387.58071,
2405.856,376.375,
2402.946,364.05329,
2400.035,369.16374,
2397.124,370.93649,
2394.214,376.0238,
2391.303,374.69546,
2388.393,370.88197,
2385.482,369.41906,
2382.571,380.84298,
2379.661,390.39831,
2376.750,387.69026,
2373.840,373.68757,
2370.929,391.13675,
2368.019,387.07326,
2365.108,399.16558,
2362.197,390.22153,
2359.287,378.58503,
2356.376,385.36091,
2353.466,402.63362,
2350.555,397.25035,
2347.645,406.45448,
2344.734,404.73906,
2341.823,421.10967,
2338.913,412.35558,
2336.002,404.30796,
2333.092,407.6165,
2330.181,403.12947,
2327.270,408.09997,
2324.360,395.81127,
2321.449,423.72874,
2318.539,419.82148,
2315.628,413.88779,
2312.718,423.85738,
2309.807,414.33139,
2306.896,431.91022,
2303.986,433.62814,
2301.075,431.94942,
2298.165,451.54829,
2295.254,427.95666,
2292.344,423.32104,
2289.433,429.71864,
2286.522,443.66955,
2283.612,465.41583,
2280.701,436.6217,
2277.791,479.61358,
2274.880,457.09508,
2271.969,441.76183,
2269.059,463.60119,
2266.148,466.51357,
2263.238,458.67616,
2260.327,449.68552,
2257.417,467.13778,
2254.506,465.56588,
2251.595,457.52413,
2248.685,453.11154,
2245.774,466.89125,
2242.864,446.15304,
2239.953,459.65082,
2237.043,472.82999,
2234.132,473.1153,
2231.221,473.48098,
2228.311,483.33375,
2225.400,489.71274,
2222.490,502.48903,
2219.579,503.27215,
2216.669,491.89169,
2213.758,495.55017,
2210.847,497.76291,
2207.937,507.9271,
2205.026,504.92951,
2202.116,529.44189,
2199.205,525.79947,
2196.294,540.30899,
2193.384,520.63896,
2190.473,543.97829,
2187.563,549.317,
2184.652,540.98969,
2181.742,570.83072,
2178.831,595.13376,
2175.920,617.77574,
2173.010,641.80074,
2170.099,689.56996,
2167.189,726.38935,
2164.278,737.32576,
2161.368,796.23131,
2158.457,819.30578,
2155.546,845.87407,
2152.636,891.03449,
2149.725,914.36157,
2146.815,957.94014,
2143.904,1005.2709,
2140.993,997.70301,
2138.083,1010.4814,
2135.172,1014.9128,
2132.262,1028.5255,
2129.351,1027.2922,
2126.441,982.7341,
2123.530,936.30766,
2120.619,925.14586,
2117.709,879.19062,
2114.798,822.56324,
2111.888,763.70122,
2108.977,706.22266,
2106.067,679.27447,
2103.156,679.01451,
2100.245,634.37061,
2097.335,625.08705,
2094.424,606.9389,
2091.514,600.58735,
2088.603,607.81735,
2085.692,579.18193,
2082.782,561.97734,
2079.871,565.55353,
2076.961,599.98562,
2074.050,565.0053,
2071.140,576.89228,
2068.229,574.375,
2065.318,579.73351,
2062.408,576.55655,
2059.497,560.76785,
2056.587,563.34004,
2053.676,557.20883,
2050.766,570.14331,
2047.855,562.77371,
2044.944,578.76922,
2042.034,583.23612,
2039.123,556.21675,
2036.213,573.375,
2033.302,574.46194,
2030.391,563.13804,
2027.481,560.83837,
2024.570,553.94665,
2021.660,543.90716,
2018.749,572.5772,
2015.839,551.56791,
2012.928,553.50084,
2010.017,571.85599,
2007.107,562.04977,
2004.196,560.79165,
2001.286,548.31141,
1998.375,562.55513,
1995.465,557.21607,
1992.554,554.25146,
1989.643,559.20218,
1986.733,540.7864,
1983.822,534.04265,
1980.912,550.45373,
1978.001,533.82398,
1975.090,547.75058,
1972.180,543.85906,
1969.269,540.13078,
1966.359,569.13202,
1963.448,551.8849,
1960.538,558.4167,
1957.627,558.80843,
1954.716,552.54736,
1951.806,558.27564,
1948.895,551.91151,
1945.985,527.7067,
1943.074,546.48579,
1940.164,536.71166,
1937.253,541.20989,
1934.342,533.36644,
1931.432,514.4791,
1928.521,511.11593,
1925.611,479.61564,
1922.700,518.40123,
1919.790,535.82005,
1916.879,530.7935,
1913.968,510.39959,
1911.058,518.5732,
1908.147,525.22759,
1905.237,544.41908,
1902.326,519.84759,
1899.415,520.3433,
1896.505,529.85699,
1893.594,531.56095,
1890.684,509.95025,
1887.773,510.08158,
1884.863,521.28844,
1881.952,529.34993,
1879.041,530.86202,
1876.131,515.71618,
1873.220,518.47679,
1870.310,530.51399,
1867.399,470.3666,
1864.489,540.72549,
1861.578,545.45222,
1858.667,514.27016,
1855.757,548.79505,
1852.846,526.87756,
1849.936,532.00262,
1847.025,534.73024,
1844.114,540.46917,
1841.204,556.25612,
1838.293,548.37167,
1835.383,544.91001,
1832.472,542.15413,
1829.562,536.98698,
1826.651,556.62343,
1823.740,550.63167,
1820.830,558.26489,
1817.919,548.5306,
1815.009,554.79357,
1812.098,574.32774,
1809.188,561.36728,
1806.277,584.8217,
1803.366,565.72436,
1800.456,586.7597,
1797.545,590.51699,
1794.635,560.82698,
1791.724,556.64676,
1788.813,589.7768,
1785.903,582.94679,
1782.992,555.5196,
1780.082,590.16995,
1777.171,586.37446,
1774.261,578.53488,
1771.350,567.5835,
1768.439,577.86597,
1765.529,586.1009,
1762.618,590.4194,
1759.708,610.5055,
1756.797,613.68561,
1753.887,600.0922,
1750.976,599.63023,
1748.065,616.43491,
1745.155,602.93643,
1742.244,621.83328,
1739.334,612.04089,
1736.423,603.90771,
1733.512,629.38726,
1730.602,674.27981,
1727.691,665.64817,
1724.781,631.84482,
1721.870,632.42267,
1718.960,669.73098,
1716.049,675.69705,
1713.138,663.40506,
1710.228,655.28292,
1707.317,670.29729,
1704.407,661.59423,
1701.496,648.52488,
1698.586,653.84289,
1695.675,625.36803,
1692.764,663.13732,
1689.854,725.64669,
1686.943,681.99383,
1684.033,652.09525,
1681.122,702.49139,
1678.211,742.99431,
1675.301,741.38117,
1672.390,721.61725,
1669.480,802.13434,
1666.569,771.95604,
1663.659,739.83231,
1660.748,768.18483,
1657.837,809.06882,
1654.927,795.77329,
1652.016,813.24977,
1649.106,848.35052,
1646.195,846.48787,
1643.285,811.58269,
1640.374,862.91507,
1637.463,841.91544,
1634.553,872.17301,
1631.642,925.62473,
1628.732,948.44018,
1625.821,959.39397,
1622.911,988.21158,
1620.000,1122.6616,
1617.089,1154.7581,
1614.179,1205.9085,
1611.268,1254.5533,
1608.358,1331.676,
1605.447,1379.6896,
1602.536,1432.6969,
1599.626,1460.2933,
1596.715,1435.147,
1593.805,1413.594,
1590.894,1477.4253,
1587.984,1467.321,
1585.073,1430.3423,
1582.162,1396.8238,
1579.252,1371.7358,
1576.341,1363.3697,
1573.431,1354.5433,
1570.520,1311.0986,
1567.610,1310.2968,
1564.699,1239.6969,
1561.788,1262.0787,
1558.878,1249.9196,
1555.967,1252.8736,
1553.057,1213.8927,
1550.146,1189.4477,
1547.235,1165.4006,
1544.325,1108.3533,
1541.414,1091.8764,
1538.504,1111.082,
1535.593,1099.8723,
1532.683,1061.5398,
1529.772,1051.0186,
1526.861,1058.7308,
1523.951,1056.693,
1521.040,1047.7099,
1518.130,996.32437,
1515.219,983.17531,
1512.309,992.93813,
1509.398,1043.3448,
1506.487,1004.6267,
1503.577,1023.0847,
1500.666,991.36768,
1497.756,981.46798,
1494.845,958.97533,
1491.934,973.3435,
1489.024,963.71857,
1486.113,927.21359,
1483.203,953.68453,
1480.292,874.22087,
1477.382,886.85544,
1474.471,907.9552,
1471.560,918.18033,
1468.650,907.3928,
1465.739,879.59834,
1462.829,835.14686,
1459.918,853.70684,
1457.008,885.3596,
1454.097,892.23169,
1451.186,884.32471,
1448.276,830.48849,
1445.365,791.59143,
1442.455,818.7416,
1439.544,827.31053,
1436.633,842.10291,
1433.723,831.74887,
1430.812,835.55712,
1427.902,849.38281,
1424.991,807.68126,
1422.081,816.46725,
1419.170,817.375,
1416.259,756.62027,
1413.349,791.46567,
1410.438,810.17412,
1407.528,771.46302,
1404.617,781.66705,
1401.707,801.19536,
1398.796,778.54988,
1395.885,769.19007,
1392.975,780.64555,
1390.064,754.24816,
1387.154,725.7492,
1384.243,737.51184,
1381.332,712.80563,
1378.422,742.69364,
1375.511,787.65913,
1372.601,827.08095,
1369.690,874.95057,
1366.780,883.16704,
1363.869,934.95487,
1360.958,960.31695,
1358.048,963.375,
1355.137,987.55647,
1352.227,1027.6758,
1349.316,1065.7058,
1346.406,1084.9888,
1343.495,1089.0632,
1340.584,1152.0172,
1337.674,1193.4806,
1334.763,1173.1152,
1331.853,1271.4017,
1328.942,1262.9225,
1326.032,1271.1624,
1323.121,1278.5618,
1320.210,1283.7046,
1317.300,1314.2964,
1314.389,1305.0828,
1311.479,1317.5689,
1308.568,1379.4324,
1305.657,1392.3178,
1302.747,1387.6648,
1299.836,1425.9033,
1296.926,1468.7506,
1294.015,1541.3772,
1291.105,1555.822,
1288.194,1598.1109,
1285.283,1664.2232,
1282.373,1685.1094,
1279.462,1706.8844,
1276.552,1729.0916,
1273.641,1749.6981,
1270.731,1781.6675,
1267.820,1784.6113,
1264.909,1750.3973,
1261.999,1773.6399,
1259.088,1808.3005,
1256.178,1774.4038,
1253.267,1776.047,
1250.356,1739.0943,
1247.446,1667.5696,
1244.535,1615.0134,
1241.625,1600.1824,
1238.714,1577.4001,
1235.804,1520.2245,
1232.893,1502.3796,
1229.982,1480.915,
1227.072,1467.3354,
1224.161,1441.1599,
1221.251,1438.6085,
1218.340,1423.8275,
1215.430,1392.8031,
1212.519,1380.7136,
1209.608,1374.2,
1206.698,1364.9712,
1203.787,1411.1941,
1200.877,1398.7621,
1197.966,1388.8713,
1195.055,1466.8739,
1192.145,1472.1102,
1189.234,1507.005,
1186.324,1553.0138,
1183.413,1564.2176,
1180.503,1545.3044,
1177.592,1536.3953,
1174.681,1546.1216,
1171.771,1543.9217,
1168.860,1524.2737,
1165.950,1486.8983,
1163.039,1452.5341,
1160.129,1477.946,
1157.218,1514.9127,
1154.307,1519.2124,
1151.397,1490.777,
1148.486,1447.1272,
1145.576,1436.3024,
1142.665,1480.698,
1139.754,1424.1665,
1136.844,1425.0814,
1133.933,1441.3456,
1131.023,1435.6284,
1128.112,1420.6608,
1125.202,1412.1286,
1122.291,1390.6284,
1119.380,1399.5222,
1116.470,1414.5252,
1113.559,1435.7062,
1110.649,1428.2781,
1107.738,1439.057,
1104.828,1451.8784,
1101.917,1451.9254,
1099.006,1461.076,
1096.096,1462.6549,
1093.185,1434.5588,
1090.275,1467.1736,
1087.364,1477.4334,
1084.453,1445.1896,
1081.543,1429.4541,
1078.632,1453.0304,
1075.722,1472.2377,
1072.811,1454.0027,
1069.901,1448.7631,
1066.990,1473.4333,
1064.079,1488.9022,
1061.169,1492.2704,
1058.258,1502.3856,
1055.348,1521.4904,
1052.437,1536.4586,
1049.527,1562.6771,
1046.616,1570.4966,
1043.705,1565.9796,
1040.795,1589.9152,
1037.884,1596.2832,
1034.974,1599.5477,
1032.063,1615.5136,
1029.153,1607.6213,
1026.242,1618.0008,
1023.331,1623.3747,
1020.421,1602.0678,
1017.510,1623.7504,
1014.600,1653.0272,
1011.689,1664.2212,
1008.778,1684.8784,
1005.868,1734.6144,
1002.957,1761.2854,
1000.047,1808.327,
997.136,1860.7892,
994.226,1887.2673,
991.315,1887.7661,
988.404,1879.2413,
985.494,1841.7612,
982.583,1814.3514,
979.673,1796.4737,
976.762,1810.7494,
973.852,1811.5567,
970.941,1800.4135,
968.030,1814.93,
965.120,1829.2604,
962.209,1801.9791,
959.299,1819.3307,
956.388,1834.5346,
953.477,1823.756,
950.567,1804.7735,
947.656,1815.7119,
944.746,1825.9066,
941.835,1843.3811,
938.925,1821.711,
936.014,1813.9391,
933.103,1821.4936,
930.193,1810.9925,
927.282,1754.2916,
924.372,1771.2037,
921.461,1755.7014,
918.551,1729.0423,
915.640,1715.6498,
912.729,1722.7421,
909.819,1731.2587,
906.908,1684.9254,
903.998,1699.873,
901.087,1738.1098,
898.176,1748.7855,
895.266,1747.9448,
892.355,1771.0868,
889.445,1796.2648,
886.534,1818.9165,
883.624,1828.0848,
880.713,1840.0718,
877.802,1846.5959,
874.892,1832.1827,
871.981,1792.3219,
869.071,1832.4218,
866.160,1846.9646,
863.250,1835.1731,
860.339,1831.3983,
857.428,1844.7836,
854.518,1825.0621,
851.607,1814.2452,
848.697,1799.9943,
845.786,1794.375,
842.875,1798.22,
839.965,1803.5788,
837.054,1795.7099,
834.144,1825.545,
831.233,1839.3744,
828.323,1810.2387,
825.412,1795.3708,
822.501,1824.9492,
819.591,1767.1013,
816.680,1742.1378,
813.770,1738.881,
810.859,1741.2775,
807.949,1730.7993,
805.038,1698.8816,
802.127,1686.5347,
799.217,1695.8105,
796.306,1683.483,
793.396,1674.8789,
790.485,1680.7962,
787.574,1682.2816,
784.664,1679.8213,
781.753,1698.8335,
778.843,1699.5535,
775.932,1700.2514,
773.022,1725.7985,
770.111,1747.8731,
767.200,1731.8648,
764.290,1703.8378,
761.379,1691.7075,
758.469,1706.5364,
755.558,1735.6488,
752.648,1677.8119,
749.737,1657.236,
746.826,1646.7803,
743.916,1627.2514,
741.005,1579.5276,
738.095,1456.9341,
735.184,1337.9763,
732.274,1312.6778,
729.363,1393.2762,
726.452,1539.3084,
723.542,1627.5322,
720.631,1668.3083,
717.721,1663.9082,
714.810,1671.7896,
711.899,1701.87,
708.989,1695.4146,
706.078,1731.4336,
703.168,1691.1901,
700.257,1662.6756,
697.347,1674.5482,
694.436,1699.9167,
691.525,1683.0368,
688.615,1661.7655,
685.704,1657.4187,
682.794,1670.992,
679.883,1688.6541,
676.973,1672.6267,
674.062,1666.1846,
671.151,1670.95,
668.241,1673.1805,
665.330,1654.3582,
662.420,1675.1252,
659.509,1685.7243,
656.598,1685.4803,
653.688,1680.8351,
650.777,1683.9681,
647.867,1730.9515,
644.956,1695.5579,
642.046,1666.5458,
639.135,1667.4711,
636.224,1675.4546,
633.314,1691.3333,
630.403,1711.9289,
627.493,1711.8528,
624.582,1700.2613,
621.672,1731.1491,
618.761,1712.6166,
615.850,1725.1086,
612.940,1760.8671,
610.029,1795.5087,
607.119,1766.2923,
604.208,1761.245,
601.297,1773.3365,
598.387,1784.3686,
595.476,1781.1577,
592.566,1800.0473,
589.655,1805.3187,
586.745,1787.7144,
583.834,1756.1287,
580.923,1730.1049,
578.013,1685.375,
575.102,1670.5071,
572.192,1700.1733,
569.281,1754.7036,
566.371,1739.8338,
563.460,1772.9429,
560.549,1769.833,
557.639,1757.8205,
554.728,1775.6706,
551.818,1780.3525,
548.907,1803.3139,
545.996,1822.0405,
543.086,1827.6974,
540.175,1819.9109,
537.265,1832.412,
534.354,1821.8226,
531.444,1815.8494,
528.533,1840.0439,
525.622,1835.3882,
522.712,1880.4883,
519.801,1908.0837,
516.891,1899.5233,
513.980,1875.5202,
511.070,1883.2359,
508.159,1910.7758,
505.248,1946.3895,
502.338,1977.8435,
499.427,2028.0126,
496.517,2052.6881,
493.606,2062.3845,
490.695,2065.5518,
487.785,2074.0195,
484.874,2042.4176,
481.964,2030.6042,
479.053,2044.3392,
476.143,2065.0742,
473.232,2088.6765,
470.321,2086.1837,
467.411,2059.1794,
464.500,2015.7325,
461.590,2069.3343,
458.679,2063.4638,
455.769,2046.0599,
452.858,2045.6136,
449.947,2047.9054,
447.037,2070.2184,
444.126,2066.9992,
441.216,2045.0477,
438.305,2089.2398,
435.395,2065.2157,
432.484,2055.6263,
429.573,2076.8001,
426.663,2130.01,
423.752,2093.2273,
420.842,2084.052,
417.931,2091.5739,
415.020,2081.7153,
412.110,2095.2756,
409.199,2142.9177,
406.289,2179.0117,
403.378,2153.4006,
400.468,2160.9606,
397.557,2134.0685,
394.646,2114.7247,
391.736,2136.5541,
388.825,2110.9102,
385.915,2062.3961,
383.004,2047.5052,
380.094,2102.2177,
377.183,2138.3365,
374.272,2174.4285,
371.362,2191.9601,
368.451,2184.7943,
365.541,2241.0845,
362.630,2253.0976,
359.719,2235.5766,
356.809,2204.1357,
353.898,2266.2859,
350.988,2245.4009,
348.077,2224.1201,
345.167,2250.5642,
342.256,2254.2995,
339.345,2245.8092,
336.435,2233.2111,
333.524,2223.7373,
330.614,2266.9563,
327.703,2249.0573,
324.793,2226.8509,
321.882,2248.4038,
318.971,2260.2989,
316.061,2300.9986,
313.150,2325.7488,
310.240,2281.964,
307.329,2328.2557,
304.418,2318.6499,
301.508,2279.4519,
298.597,2260.9415,
295.687,2211.2909,
292.776,2198.7917,
289.866,2237.6627,
286.955,2352.9039,
284.044,2394.675,
281.134,2427.5191,
278.223,2465.3808,
275.313,2513.2763,
272.402,2536.7358,
269.492,2544.157,
266.581,2543.8418,
263.670,2606.3321,
260.760,2608.7035,
257.849,2590.269,
254.939,2578.5268,
252.028,2629.768,
249.117,2637.9543,
246.207,2634.7926,
243.296,2675.0546,
240.386,2702.8827,
237.475,2699.2391,
234.565,2672.3397,
231.654,2665.7662,
228.743,2624.0992,
225.833,2595.5946,
222.922,2597.6616,
220.012,2582.3619,
217.101,2602.4015,
214.191,2607.6118,
211.280,2538.5028,
208.369,2550.1953,
205.459,2569.9533,
202.548,2578.7259,
199.638,2528.6562,
196.727,2578.8777,
193.816,2620.0638,
190.906,2612.7305,
187.995,2622.8669,
185.085,2615.4993,
182.174,2617.6745,
179.264,2670.4364,
176.353,2614.8602,
173.442,2611.555,
170.532,2660.8305,
167.621,2613.2461,
164.711,2532.5768,
161.800,2418.0441,
158.890,2261.8632,
155.979,2159.8848,
153.068,1997.311,
150.158,1783.265,
147.247,1559.2639,
144.337,1276.8394,
141.426,1003.8709,
138.516,773.03193,
135.605,543.12549,
132.694,366.73104,
129.784,239.1837,
126.873,161.23455,
123.963,112.938,
121.052,76.476853,
118.141,46.492969,
115.231,37.848156,
112.320,32.680456,
109.410,30.647711,
106.499,32.072021,
103.589,25.091692,
100.678,17.74527,
97.767,13.479644,
94.857,9.9100548,
91.946,9.9874435,
89.036,13.278183,
86.125,18.951825,
83.215,17.189478,
80.304,14.614433,
77.393,15.322603,
74.483,9.4787854,
71.572,8.5491127,
68.662,12.444267,
65.751,13.150719,
62.840,12.893298,
59.930,10.87671,
57.019,5.2360545,
54.109,9.7494476,
51.198,13.073391,
48.288,12.35235,
45.377,9.538838,
42.466,7.138342,
39.556,4.9145257,
36.645,2.1057648,
33.735,3.9712423,
30.824,4.6079042,
27.914,-1.0014977,
25.003,8.9598371,
22.092,11.500145,
19.182,3.375,
16.271,3.375,
13.361,25.712273,
10.450,42.793557,
7.539,-36.116079,
4.629,-105.15955,
1.718,-228.88204,
-1.192,-484.03695,
-4.103,-347.08521,
-7.013,-164.96365,
-9.924,1.375,
