,PLF965~1,
Wavenumbers [1/cm],Intensity,
3014.167,3.875,
3011.256,1.1249463,
3008.346,66.807296,
3005.435,59.532248,
3002.525,75.875,
2999.614,68.875,
2996.704,70.919329,
2993.793,72.11348,
2990.882,80.875,
2987.972,95.84473,
2985.061,91.648401,
2982.151,95.636346,
2979.240,87.990008,
2976.329,90.112714,
2973.419,105.24419,
2970.508,113.6583,
2967.598,105.97058,
2964.687,110.74049,
2961.777,103.90909,
2958.866,113.55255,
2955.955,126.9524,
2953.045,127.40743,
2950.134,119.66217,
2947.224,129.07428,
2944.313,139.91987,
2941.403,132.70803,
2938.492,146.27878,
2935.581,144.7351,
2932.671,141.91794,
2929.760,155.80577,
2926.850,156.77049,
2923.939,137.875,
2921.028,152.51632,
2918.118,153.89389,
2915.207,140.16608,
2912.297,161.76922,
2909.386,161.69251,
2906.476,155.16996,
2903.565,153.60018,
2900.654,162.03982,
2897.744,166.81214,
2894.833,154.04009,
2891.923,159.90391,
2889.012,140.95015,
2886.102,156.39798,
2883.191,123.8986,
2880.280,138.42045,
2877.370,78.212362,
2874.459,-7.6152968,
2871.549,57.809469,
2868.638,131.1533,
2865.727,134.53269,
2862.817,144.07553,
2859.906,144.83795,
2856.996,168.37274,
2854.085,191.7616,
2851.175,168.56477,
2848.264,157.169,
2845.353,158.30634,
2842.443,173.88196,
2839.532,174.86003,
2836.622,159.39193,
2833.711,175.23765,
2830.801,164.78897,
2827.890,175.9397,
2824.979,175.31908,
2822.069,181.89774,
2819.158,181.21462,
2816.248,182.10474,
2813.337,185.62744,
2810.427,172.05131,
2807.516,172.08359,
2804.605,171.3702,
2801.695,189.44079,
2798.784,176.90992,
2795.874,167.14411,
2792.963,177.73202,
2790.052,195.8705,
2787.142,180.30942,
2784.231,184.42471,
2781.321,172.06934,
2778.410,180.74557,
2775.500,173.23603,
2772.589,180.37576,
2769.678,192.80332,
2766.768,188.19344,
2763.857,194.55901,
2760.947,186.33402,
2758.036,196.81778,
2755.126,186.78312,
2752.215,185.32055,
2749.304,199.72571,
2746.394,199.75809,
2743.483,194.07499,
2740.573,210.06975,
2737.662,187.66198,
2734.751,194.99149,
2731.841,187.84752,
2728.930,188.75215,
2726.020,197.10995,
2723.109,200.66892,
2720.199,221.34699,
2717.288,211.94435,
2714.377,214.39172,
2711.467,198.44863,
2708.556,205.39626,
2705.646,214.32573,
2702.735,221.03221,
2699.825,217.74411,
2696.914,227.11319,
2694.003,224.90264,
2691.093,232.32145,
2688.182,235.16611,
2685.272,227.23773,
2682.361,221.45142,
2679.450,223.16718,
2676.540,194.42375,
2673.629,215.56561,
2670.719,215.15227,
2667.808,218.97227,
2664.898,226.17364,
2661.987,227.60829,
2659.076,222.38362,
2656.166,237.34254,
2653.255,230.54337,
2650.345,229.01112,
2647.434,219.44717,
2644.524,242.62798,
2641.613,238.61793,
2638.702,232.98547,
2635.792,226.21698,
2632.881,238.72026,
2629.971,231.76758,
2627.060,231.54,
2624.149,248.54999,
2621.239,242.35425,
2618.328,246.5359,
2615.418,236.22045,
2612.507,243.28602,
2609.597,235.43588,
2606.686,248.8228,
2603.775,248.7123,
2600.865,250.57811,
2597.954,259.16248,
2595.044,260.58005,
2592.133,253.70941,
2589.223,263.7908,
2586.312,267.84989,
2583.401,262.42609,
2580.491,265.5048,
2577.580,267.8618,
2574.670,258.49131,
2571.759,258.72859,
2568.848,265.99104,
2565.938,266.54162,
2563.027,267.3864,
2560.117,252.15536,
2557.206,266.95618,
2554.296,275.58438,
2551.385,257.94103,
2548.474,281.57909,
2545.564,272.4448,
2542.653,285.73741,
2539.743,294.96126,
2536.832,279.56845,
2533.922,272.26923,
2531.011,298.52486,
2528.100,282.6171,
2525.190,289.38278,
2522.279,303.65565,
2519.369,277.96939,
2516.458,276.43095,
2513.548,284.9658,
2510.637,290.02689,
2507.726,316.31736,
2504.816,287.24816,
2501.905,286.42561,
2498.995,285.17359,
2496.084,292.02135,
2493.173,278.63758,
2490.263,302.96433,
2487.352,313.04033,
2484.442,298.43173,
2481.531,313.03454,
2478.621,312.03612,
2475.710,311.90567,
2472.799,311.43559,
2469.889,306.11601,
2466.978,314.875,
2464.068,317.74803,
2461.157,307.22247,
2458.247,317.13976,
2455.336,324.19398,
2452.425,317.74292,
2449.515,316.12032,
2446.604,319.99019,
2443.694,311.08385,
2440.783,309.16216,
2437.872,321.91146,
2434.962,324.18836,
2432.051,326.89967,
2429.141,334.41607,
2426.230,335.07057,
2423.320,335.07472,
2420.409,337.42005,
2417.498,334.43962,
2414.588,331.43018,
2411.677,322.34116,
2408.767,335.12795,
2405.856,337.75118,
2402.946,337.13684,
2400.035,353.85623,
2397.124,340.12098,
2394.214,361.7678,
2391.303,362.9082,
2388.393,339.70519,
2385.482,327.18343,
2382.571,321.20406,
2379.661,321.01457,
2376.750,340.44875,
2373.840,357.65937,
2370.929,357.875,
2368.019,369.86394,
2365.108,348.08442,
2362.197,353.44489,
2359.287,361.06832,
2356.376,378.84506,
2353.466,368.89043,
2350.555,363.68996,
2347.645,376.6763,
2344.734,378.20678,
2341.823,382.75892,
2338.913,379.92126,
2336.002,375.32472,
2333.092,382.875,
2330.181,385.13842,
2327.270,372.64507,
2324.360,391.875,
2321.449,395.1063,
2318.539,401.875,
2315.628,394.90058,
2312.718,375.09305,
2309.807,408.60175,
2306.896,402.60739,
2303.986,398.48541,
2301.075,398.17289,
2298.165,429.39486,
2295.254,388.95215,
2292.344,407.81684,
2289.433,420.81318,
2286.522,414.62938,
2283.612,416.28443,
2280.701,432.78079,
2277.791,437.99335,
2274.880,415.80502,
2271.969,416.13015,
2269.059,425.66792,
2266.148,416.93176,
2263.238,411.97539,
2260.327,421.84065,
2257.417,431.55389,
2254.506,432.60724,
2251.595,436.17326,
2248.685,434.71343,
2245.774,444.18258,
2242.864,429.65304,
2239.953,442.69566,
2237.043,442.64072,
2234.132,446.09052,
2231.221,467.53397,
2228.311,458.82734,
2225.400,459.875,
2222.490,459.31798,
2219.579,463.02927,
2216.669,475.87023,
2213.758,463.82923,
2210.847,468.96566,
2207.937,471.875,
2205.026,453.65138,
2202.116,490.82617,
2199.205,488.28747,
2196.294,497.30498,
2193.384,496.05949,
2190.473,486.86913,
2187.563,497.95717,
2184.652,514.42316,
2181.742,509.80656,
2178.831,510.15129,
2175.920,525.0353,
2173.010,534.50028,
2170.099,538.4747,
2167.189,535.12614,
2164.278,567.82073,
2161.368,562.15995,
2158.457,568.13158,
2155.546,573.93465,
2152.636,569.36442,
2149.725,576.68707,
2146.815,616.60698,
2143.904,606.77092,
2140.993,601.76383,
2138.083,625.89927,
2135.172,630.45477,
2132.262,642.78081,
2129.351,654.36465,
2126.441,632.67105,
2123.530,623.99846,
2120.619,625.65521,
2117.709,576.313,
2114.798,594.04801,
2111.888,578.21279,
2108.977,569.96771,
2106.067,539.29827,
2103.156,545.71203,
2100.245,522.90323,
2097.335,565.82788,
2094.424,551.11435,
2091.514,549.72982,
2088.603,547.29896,
2085.692,546.5107,
2082.782,561.13193,
2079.871,552.26707,
2076.961,565.7126,
2074.050,578.85682,
2071.140,560.96679,
2068.229,568.88152,
2065.318,566.61626,
2062.408,569.96578,
2059.497,575.29764,
2056.587,564.43344,
2053.676,552.79192,
2050.766,570.33539,
2047.855,551.64717,
2044.944,543.07693,
2042.034,540.48197,
2039.123,553.97601,
2036.213,550.60828,
2033.302,565.39626,
2030.391,562.89274,
2027.481,581.83809,
2024.570,589.66083,
2021.660,587.93413,
2018.749,598.0772,
2015.839,577.33694,
2012.928,576.86326,
2010.017,580.7067,
2007.107,563.68808,
2004.196,572.20838,
2001.286,604.60641,
1998.375,585.56101,
1995.465,559.28929,
1992.554,556.75146,
1989.643,578.1146,
1986.733,553.875,
1983.822,558.1069,
1980.912,574.76535,
1978.001,554.53549,
1975.090,570.304,
1972.180,568.04653,
1969.269,577.875,
1966.359,561.65857,
1963.448,592.32284,
1960.538,594.70235,
1957.627,563.34247,
1954.716,555.01863,
1951.806,587.22918,
1948.895,571.68679,
1945.985,552.73448,
1943.074,563.59456,
1940.164,567.85588,
1937.253,567.83606,
1934.342,539.73811,
1931.432,562.55324,
1928.521,574.64011,
1925.611,545.69339,
1922.700,566.36671,
1919.790,534.25695,
1916.879,539.03801,
1913.968,538.87623,
1911.058,571.0732,
1908.147,574.67209,
1905.237,575.30879,
1902.326,556.875,
1899.415,539.16034,
1896.505,489.95316,
1893.594,505.30806,
1890.684,531.86857,
1887.773,518.60771,
1884.863,551.12785,
1881.952,575.15244,
1879.041,589.97885,
1876.131,590.61748,
1873.220,585.51658,
1870.310,591.37275,
1867.399,618.44317,
1864.489,555.42021,
1861.578,571.67698,
1858.667,591.68643,
1855.757,558.04564,
1852.846,581.57759,
1849.936,547.82896,
1847.025,545.16452,
1844.114,573.92209,
1841.204,601.66171,
1838.293,592.92156,
1835.383,565.968,
1832.472,591.18978,
1829.562,612.34662,
1826.651,613.50745,
1823.740,591.76385,
1820.830,594.67824,
1817.919,606.83314,
1815.009,595.17526,
1812.098,604.54428,
1809.188,625.57263,
1806.277,593.62748,
1803.366,622.15964,
1800.456,582.62286,
1797.545,631.53449,
1794.635,644.39195,
1791.724,626.65162,
1788.813,657.07654,
1785.903,654.37118,
1782.992,625.04637,
1780.082,587.774,
1777.171,505.19404,
1774.261,478.52054,
1771.350,550.99451,
1768.439,629.17823,
1765.529,690.42225,
1762.618,683.99934,
1759.708,651.59226,
1756.797,674.375,
1753.887,695.84876,
1750.976,691.8233,
1748.065,706.77822,
1745.155,722.53946,
1742.244,714.95654,
1739.334,675.32442,
1736.423,690.25627,
1733.512,713.78966,
1730.602,705.90673,
1727.691,735.65206,
1724.781,731.71662,
1721.870,724.65593,
1718.960,785.54241,
1716.049,744.34164,
1713.138,741.56996,
1710.228,769.85421,
1707.317,765.91386,
1704.407,756.78943,
1701.496,749.49417,
1698.586,764.58274,
1695.675,799.56051,
1692.764,773.47335,
1689.854,733.60726,
1686.943,779.22244,
1684.033,779.89984,
1681.122,843.77049,
1678.211,800.30328,
1675.301,875.64066,
1672.390,858.71051,
1669.480,804.34027,
1666.569,862.25588,
1663.659,891.89133,
1660.748,893.5113,
1657.837,925.45948,
1654.927,908.02303,
1652.016,956.36098,
1649.106,975.875,
1646.195,976.30657,
1643.285,995.15105,
1640.374,1049.6659,
1637.463,1040.5776,
1634.553,1079.3627,
1631.642,1112.1139,
1628.732,1134.0587,
1625.821,1164.9097,
1622.911,1217.5763,
1620.000,1294.8923,
1617.089,1329.1984,
1614.179,1359.029,
1611.268,1412.8302,
1608.358,1527.3499,
1605.447,1585.6754,
1602.536,1600.9895,
1599.626,1683.749,
1596.715,1701.7662,
1593.805,1664.4187,
1590.894,1688.0564,
1587.984,1692.7411,
1585.073,1657.1407,
1582.162,1636.6819,
1579.252,1589.6867,
1576.341,1518.9942,
1573.431,1546.9496,
1570.520,1513.7768,
1567.610,1484.9728,
1564.699,1457.3991,
1561.788,1460.8467,
1558.878,1452.9025,
1555.967,1427.0551,
1553.057,1386.8925,
1550.146,1387.0822,
1547.235,1351.8295,
1544.325,1341.3652,
1541.414,1362.7355,
1538.504,1354.0299,
1535.593,1354.0479,
1532.683,1381.1162,
1529.772,1400.8937,
1526.861,1379.126,
1523.951,1364.3564,
1521.040,1415.5224,
1518.130,1450.0269,
1515.219,1475.4751,
1512.309,1463.6993,
1509.398,1438.875,
1506.487,1436.5208,
1503.577,1427.9323,
1500.666,1435.398,
1497.756,1399.7987,
1494.845,1397.9545,
1491.934,1375.8719,
1489.024,1374.9094,
1486.113,1397.1282,
1483.203,1359.7956,
1480.292,1265.7813,
1477.382,1299.9864,
1474.471,1270.4365,
1471.560,1233.2024,
1468.650,1239.5903,
1465.739,1265.4492,
1462.829,1269.9068,
1459.918,1280.2398,
1457.008,1299.9982,
1454.097,1286.1536,
1451.186,1268.3605,
1448.276,1261.1645,
1445.365,1213.1933,
1442.455,1176.9683,
1439.544,1185.9322,
1436.633,1199.1848,
1433.723,1154.4007,
1430.812,1096.6482,
1427.902,1119.6417,
1424.991,1151.8656,
1422.081,1130.8555,
1419.170,1154.7968,
1416.259,1166.9756,
1413.349,1199.0846,
1410.438,1208.875,
1407.528,1177.3317,
1404.617,1182.773,
1401.707,1162.3091,
1398.796,1113.3541,
1395.885,1113.0641,
1392.975,1117.2699,
1390.064,1061.0994,
1387.154,1031.6234,
1384.243,1061.1843,
1381.332,1029.6697,
1378.422,997.08263,
1375.511,1020.5021,
1372.601,1044.8358,
1369.690,1102.5945,
1366.780,1111.083,
1363.869,1181.3433,
1360.958,1174.204,
1358.048,1187.1339,
1355.137,1259.9177,
1352.227,1286.2866,
1349.316,1280.15,
1346.406,1320.0509,
1343.495,1338.145,
1340.584,1333.1956,
1337.674,1390.411,
1334.763,1395.1926,
1331.853,1403.5376,
1328.942,1399.4277,
1326.032,1450.2591,
1323.121,1406.3027,
1320.210,1456.1308,
1317.300,1490.875,
1314.389,1520.6811,
1311.479,1526.1567,
1308.568,1508.3691,
1305.657,1533.6513,
1302.747,1567.3072,
1299.836,1650.2779,
1296.926,1640.7551,
1294.015,1681.2053,
1291.105,1670.5474,
1288.194,1742.3594,
1285.283,1720.7788,
1282.373,1740.9452,
1279.462,1751.9928,
1276.552,1768.9617,
1273.641,1792.1809,
1270.731,1782.581,
1267.820,1783.9524,
1264.909,1785.3469,
1261.999,1738.3077,
1259.088,1750.1653,
1256.178,1773.9993,
1253.267,1718.8009,
1250.356,1686.6527,
1247.446,1707.4512,
1244.535,1699.6206,
1241.625,1679.1416,
1238.714,1689.2523,
1235.804,1684.8168,
1232.893,1673.6254,
1229.982,1673.5615,
1227.072,1723.3537,
1224.161,1695.7764,
1221.251,1646.6935,
1218.340,1604.6669,
1215.430,1612.4469,
1212.519,1603.2567,
1209.608,1572.0013,
1206.698,1573.3217,
1203.787,1566.8097,
1200.877,1571.875,
1197.966,1571.875,
1195.055,1600.0322,
1192.145,1644.6962,
1189.234,1723.403,
1186.324,1763.7846,
1183.413,1778.0324,
1180.503,1841.1261,
1177.592,1904.0964,
1174.681,1787.2688,
1171.771,1797.4313,
1168.860,1821.5448,
1165.950,1817.4247,
1163.039,1804.7006,
1160.129,1799.875,
1157.218,1819.5852,
1154.307,1830.1153,
1151.397,1815.0031,
1148.486,1829.4197,
1145.576,1857.8683,
1142.665,1788.6111,
1139.754,1794.2658,
1136.844,1852.1989,
1133.933,1837.1656,
1131.023,1788.6307,
1128.112,1784.8721,
1125.202,1808.7977,
1122.291,1770.875,
1119.380,1770.6758,
1116.470,1750.3776,
1113.559,1716.945,
1110.649,1712.4589,
1107.738,1718.6257,
1104.828,1714.8013,
1101.917,1695.1113,
1099.006,1676.0811,
1096.096,1696.4663,
1093.185,1706.1243,
1090.275,1709.3028,
1087.364,1733.2032,
1084.453,1758.4991,
1081.543,1744.8964,
1078.632,1730.7385,
1075.722,1775.5168,
1072.811,1797.6411,
1069.901,1766.2037,
1066.990,1745.2834,
1064.079,1737.4724,
1061.169,1730.352,
1058.258,1716.9818,
1055.348,1716.9273,
1052.437,1742.7592,
1049.527,1727.9156,
1046.616,1754.8493,
1043.705,1703.9214,
1040.795,1729.3778,
1037.884,1738.7143,
1034.974,1721.5232,
1032.063,1718.498,
1029.153,1725.4209,
1026.242,1713.3115,
1023.331,1707.8753,
1020.421,1760.5518,
1017.510,1778.8325,
1014.600,1783.7565,
1011.689,1789.6035,
1008.778,1776.9538,
1005.868,1794.4271,
1002.957,1744.5266,
1000.047,1823.507,
997.136,1869.3835,
994.226,1897.6132,
991.315,1904.7389,
988.404,1859.2821,
985.494,1814.3571,
982.583,1791.2301,
979.673,1799.5813,
976.762,1802.1137,
973.852,1813.2513,
970.941,1811.6849,
968.030,1777.3375,
965.120,1813.986,
962.209,1840.4148,
959.299,1791.0481,
956.388,1807.5125,
953.477,1818.5567,
950.567,1808.129,
947.656,1859.6603,
944.746,1880.8992,
941.835,1839.7647,
938.925,1871.3322,
936.014,1910.5789,
933.103,1908.1017,
930.193,1876.6692,
927.282,1896.1958,
924.372,1902.115,
921.461,1891.0926,
918.551,1864.2186,
915.640,1845.3253,
912.729,1829.5306,
909.819,1799.5448,
906.908,1827.3448,
903.998,1824.8982,
901.087,1828.3305,
898.176,1834.2154,
895.266,1845.1752,
892.355,1856.3203,
889.445,1831.9815,
886.534,1854.4165,
883.624,1870.3131,
880.713,1883.02,
877.802,1889.1802,
874.892,1868.5711,
871.981,1778.9097,
869.071,1610.9917,
866.160,1661.2204,
863.250,1739.8596,
860.339,1798.2056,
857.428,1837.849,
854.518,1857.4307,
851.607,1807.5065,
848.697,1791.9968,
845.786,1757.2181,
842.875,1774.3649,
839.965,1868.2393,
837.054,1902.9914,
834.144,2002.4417,
831.233,2010.5425,
828.323,2004.875,
825.412,2004.2311,
822.501,2001.3856,
819.591,1993.1216,
816.680,1943.1954,
813.770,1952.8026,
810.859,1942.4105,
807.949,1918.0092,
805.038,1925.9878,
802.127,1902.1171,
799.217,1874.5317,
796.306,1876.0913,
793.396,1902.1729,
790.485,1927.9269,
787.574,1918.0894,
784.664,1950.0737,
781.753,1973.9916,
778.843,1995.1271,
775.932,1991.8259,
773.022,1957.5234,
770.111,1968.1519,
767.200,1981.056,
764.290,1986.6086,
761.379,1967,
758.469,1943.8735,
755.558,1977.8021,
752.648,1975.3583,
749.737,1965.0832,
746.826,1972.463,
743.916,1976.2645,
741.005,1944.9317,
738.095,1910.021,
735.184,1874.4124,
732.274,1850.8312,
729.363,1852.6431,
726.452,1883.0377,
723.542,1922.698,
720.631,1911.1133,
717.721,1952.7026,
714.810,1996.7727,
711.899,2012.3106,
708.989,2009.8899,
706.078,2020.2919,
703.168,2004.0512,
700.257,2005.4899,
697.347,2018.5713,
694.436,1996.5515,
691.525,2021.4694,
688.615,2009.8944,
685.704,2003.7602,
682.794,2008.641,
679.883,2010.1818,
676.973,2061.4695,
674.062,2056.561,
671.151,2054.8883,
668.241,2052.9156,
665.330,2016.9296,
662.420,1996.9613,
659.509,2020.812,
656.598,2056.7815,
653.688,2095.9874,
650.777,2139.524,
647.867,2129.1717,
644.956,2105.8239,
642.046,2058.4634,
639.135,2007.7789,
636.224,2000.1257,
633.314,2050.1438,
630.403,2063.4662,
627.493,2074.6291,
624.582,2081.8104,
621.672,2036.6668,
618.761,2018.9163,
615.850,2043.0774,
612.940,2111.2745,
610.029,2187.5369,
607.119,2131.4731,
604.208,2142.9153,
601.297,2144.3913,
598.387,2136.2953,
595.476,2127.7209,
592.566,2104.8959,
589.655,2134.5653,
586.745,2166.762,
583.834,2178.9462,
580.923,2157.5954,
578.013,2111.2961,
575.102,2107.4788,
572.192,2136.3839,
569.281,2169.2826,
566.371,2127.0209,
563.460,2140.5117,
560.549,2150.7987,
557.639,2180.7313,
554.728,2252.3969,
551.818,2228.9874,
548.907,2203.7644,
545.996,2191.2638,
543.086,2188.1842,
540.175,2171.054,
537.265,2174.945,
534.354,2164.3327,
531.444,2152.711,
528.533,2158.4618,
525.622,2208.8984,
522.712,2198.0319,
519.801,2161.726,
516.891,2134.4828,
513.980,2177.0691,
511.070,2181.5793,
508.159,2161.8172,
505.248,2141.6275,
502.338,2145.9035,
499.427,2112.7148,
496.517,2138.38,
493.606,2170.2589,
490.695,2177.7725,
487.785,2155.4485,
484.874,2124.0874,
481.964,2102.6458,
479.053,2095.8974,
476.143,2104.345,
473.232,2119.2631,
470.321,2136.5528,
467.411,2139.2511,
464.500,2111.1853,
461.590,2123.4371,
458.679,2147.7862,
455.769,2144.0808,
452.858,2104.4424,
449.947,2157.9176,
447.037,2136.7167,
444.126,2118.4629,
441.216,2127.2405,
438.305,2152.3843,
435.395,2145.3848,
432.484,2152.3776,
429.573,2150.8823,
426.663,2069.5472,
423.752,1971.5131,
420.842,1816.3334,
417.931,1648.4939,
415.020,1541.5654,
412.110,1792.4764,
409.199,1993.4543,
406.289,2109.0727,
403.378,2118.8417,
400.468,2109.0138,
397.557,2054.9742,
394.646,2047.8155,
391.736,2158.7301,
388.825,2154.2047,
385.915,2137.4414,
383.004,2128.4437,
380.094,2139.7214,
377.183,2136.7115,
374.272,2138.0461,
371.362,2165.4815,
368.451,2222.4071,
365.541,2148.8545,
362.630,2150.7246,
359.719,2179.2339,
356.809,2203.286,
353.898,2193.5516,
350.988,2191.96,
348.077,2196.6503,
345.167,2204.2857,
342.256,2172.9088,
339.345,2186.7266,
336.435,2192.9954,
333.524,2157.5092,
330.614,2177.6284,
327.703,2209.5453,
324.793,2217.8919,
321.882,2171.9147,
318.971,2188.2704,
316.061,2209.9894,
313.150,2245.1202,
310.240,2303.7473,
307.329,2333.0312,
304.418,2334.3,
301.508,2338.235,
298.597,2395.9876,
295.687,2373.1081,
292.776,2354.0416,
289.866,2364.7136,
286.955,2454.0993,
284.044,2530.1249,
281.134,2593.906,
278.223,2643.5395,
275.313,2668.5926,
272.402,2684.9122,
269.492,2692.2413,
266.581,2689.4036,
263.670,2668.8185,
260.760,2690.0389,
257.849,2732.3256,
254.939,2782.2297,
252.028,2769.1219,
249.117,2749.7133,
246.207,2741.3985,
243.296,2774.3401,
240.386,2783.0989,
237.475,2777.8071,
234.565,2766.7155,
231.654,2778.4017,
228.743,2729.6672,
225.833,2689.1309,
222.922,2680.5648,
220.012,2631.023,
217.101,2661.493,
214.191,2693.7015,
211.280,2639.8693,
208.369,2588.1053,
205.459,2552.4982,
202.548,2538.1369,
199.638,2562.8089,
196.727,2505.0675,
193.816,2470.0128,
190.906,2493.6149,
187.995,2429.1767,
185.085,2412.5493,
182.174,2412.6067,
179.264,2389.4782,
176.353,2378.5449,
173.442,2379.6759,
170.532,2384.5826,
167.621,2339.1611,
164.711,2269.5881,
161.800,2154.4677,
158.890,1968.778,
155.979,1821.5632,
153.068,1660.6058,
150.158,1484.1395,
147.247,1291.7283,
144.337,1072.1033,
141.426,844.19549,
138.516,615.50718,
135.605,437.30528,
132.694,304.69324,
129.784,209.0774,
126.873,138.27954,
123.963,91.438002,
121.052,57.243166,
118.141,32.970499,
115.231,31.453859,
112.320,29.604092,
109.410,27.329579,
106.499,24.480958,
103.589,19.953219,
100.678,16.875,
97.767,16.875,
94.857,10.638099,
91.946,13.518552,
89.036,20.294429,
86.125,10.365555,
83.215,11.591442,
80.304,12.720106,
77.393,6.3465764,
74.483,7.1852699,
71.572,7.875,
68.662,7.32086,
65.751,1.6692514,
62.840,5.1737218,
59.930,9.938569,
57.019,6.4131591,
54.109,6.4721608,
51.198,7.4782186,
48.288,8.8466878,
45.377,5.3297975,
42.466,0.98946462,
39.556,-2.4342885,
36.645,1.7788528,
33.735,1.3172546,
30.824,-2.5547567,
27.914,-10.267684,
25.003,-13.61555,
22.092,-12.218859,
19.182,-6.4453601,
16.271,-16.238222,
13.361,-43.305189,
10.450,-146.7581,
7.539,-562.95405,
4.629,-1149.7583,
1.718,-1650.0825,
-1.192,-1819.4887,
-4.103,-1312.4525,
-7.013,-676.52732,
-9.924,-2.125,
