,PL5B8D~1,
Wavenumbers [1/cm],Intensity,
3014.167,-2.25,
3011.256,1.6499785,
3008.346,174.46526,
3005.435,184.6758,
3002.525,211.2226,
2999.614,216.64225,
2996.704,218.30671,
2993.793,207.10311,
2990.882,223.18512,
2987.972,231.68946,
2985.061,223.2968,
2982.151,246.24413,
2979.240,236.71386,
2976.329,252.50137,
2973.419,265.45783,
2970.508,275.78325,
2967.598,264.08092,
2964.687,271.286,
2961.777,266.57024,
2958.866,283.07838,
2955.955,282.16151,
2953.045,280.68514,
2950.134,307.69755,
2947.224,296.14856,
2944.313,311.09829,
2941.403,299.71396,
2938.492,319.87736,
2935.581,311.34141,
2932.671,326.23502,
2929.760,335.71151,
2926.850,328.38421,
2923.939,331.75,
2921.028,339.45596,
2918.118,362.98677,
2915.207,329.68662,
2912.297,349.64422,
2909.386,347.35584,
2906.476,344.10675,
2903.565,358.37889,
2900.654,363.19691,
2897.744,371.56142,
2894.833,354.27582,
2891.923,358.859,
2889.012,369.70954,
2886.102,384.47566,
2883.191,391.75472,
2880.280,434.00359,
2877.370,418.76166,
2874.459,373.78802,
2871.549,414.52624,
2868.638,424.06958,
2865.727,393.14614,
2862.817,410.86496,
2859.906,395.40812,
2856.996,410.66848,
2854.085,419.94746,
2851.175,405.96386,
2848.264,408.88733,
2845.353,394.35388,
2842.443,418.55557,
2839.532,405.98885,
2836.622,420.778,
2833.711,418.16445,
2830.801,403.26838,
2827.890,411.00176,
2824.979,427.45395,
2822.069,446.68177,
2819.158,444.9306,
2816.248,452.49711,
2813.337,454.02806,
2810.427,440.87534,
2807.516,451.43344,
2804.605,452.53608,
2801.695,467.51312,
2798.784,448.11962,
2795.874,454.04024,
2792.963,434.96393,
2790.052,461.74249,
2787.142,445.63173,
2784.231,454.65374,
2781.321,457.07007,
2778.410,469.28047,
2775.500,470.23793,
2772.589,471.5581,
2769.678,476.35752,
2766.768,488.54808,
2763.857,497.27408,
2760.947,483.78152,
2758.036,499.76281,
2755.126,486.89103,
2752.215,498.1319,
2749.304,507.2392,
2746.394,493.77213,
2743.483,519.74995,
2740.573,501.24767,
2737.662,490.2929,
2734.751,487.33244,
2731.841,512.26466,
2728.930,491.87285,
2726.020,507.42882,
2723.109,515.86342,
2720.199,528.51571,
2717.288,515.11861,
2714.377,539.00378,
2711.467,537.50385,
2708.556,534.15463,
2705.646,524.13029,
2702.735,559.39431,
2699.825,535.30454,
2696.914,554.60776,
2694.003,551.80528,
2691.093,570.66094,
2688.182,561.47592,
2685.272,569.07717,
2682.361,552.90284,
2679.450,560.58126,
2676.540,547.19713,
2673.629,566.75898,
2670.719,562.75,
2667.808,571.31228,
2664.898,569.12646,
2661.987,564.01638,
2659.076,580.68102,
2656.166,575.21754,
2653.255,584.30103,
2650.345,603.02223,
2647.434,597.09296,
2644.524,594.95861,
2641.613,587.8072,
2638.702,577.92359,
2635.792,600.46586,
2632.881,608.31572,
2629.971,611.70982,
2627.060,586.41376,
2624.149,614.34374,
2621.239,615.24111,
2618.328,613.49568,
2615.418,610.07273,
2612.507,623.43771,
2609.597,624.20908,
2606.686,645.91868,
2603.775,648.3492,
2600.865,642.69197,
2597.954,637.80411,
2595.044,645.53476,
2592.133,623.0303,
2589.223,631.09948,
2586.312,652.21233,
2583.401,653.27923,
2580.491,668.10576,
2577.580,658.7401,
2574.670,650.81284,
2571.759,655.10873,
2568.848,669.33567,
2565.938,701.84537,
2563.027,681.92047,
2560.117,667.31072,
2557.206,658.03782,
2554.296,687.377,
2551.385,686.44406,
2548.474,688.82398,
2545.564,695.4651,
2542.653,690.15939,
2539.743,708.3301,
2536.832,676.83036,
2533.922,710.89192,
2531.011,718.10014,
2528.100,712.68379,
2525.190,716.49344,
2522.279,739.96788,
2519.369,706.46682,
2516.458,720.53328,
2513.548,726.75,
2510.637,738.1189,
2507.726,744.99907,
2504.816,737.06116,
2501.905,740.92378,
2498.995,737.58607,
2496.084,749.21689,
2493.173,731.93377,
2490.263,751.06417,
2487.352,739.45787,
2484.442,736.45234,
2481.531,758.38817,
2478.621,777.42775,
2475.710,784.59664,
2472.799,765.98317,
2469.889,765.38711,
2466.978,780.956,
2464.068,775.34255,
2461.157,779.48246,
2458.247,797.41189,
2455.336,813.72848,
2452.425,799.59432,
2449.515,832.31547,
2446.604,804.92974,
2443.694,818.35531,
2440.783,822.03378,
2437.872,836.38535,
2434.962,824.64862,
2432.051,818.75,
2429.141,845.08496,
2426.230,823.03169,
2423.320,850.67807,
2420.409,868.72442,
2417.498,859.56179,
2414.588,860.83743,
2411.677,870.10455,
2408.767,858.06201,
2405.856,888.2904,
2402.946,877.36841,
2400.035,872.84156,
2397.124,875.8623,
2394.214,883.23799,
2391.303,891.39092,
2388.393,879.28487,
2385.482,890.13313,
2382.571,875.3697,
2379.661,897.84295,
2376.750,897.80423,
2373.840,892.75,
2370.929,918.46843,
2368.019,912.94273,
2365.108,917.30759,
2362.197,917.37463,
2359.287,925.72493,
2356.376,942.72534,
2353.466,930.63022,
2350.555,905.40484,
2347.645,917.10362,
2344.734,951.81457,
2341.823,945.949,
2338.913,930.76942,
2336.002,951.42458,
2333.092,952.61225,
2330.181,974.92895,
2327.270,944.11523,
2324.360,967.33022,
2321.449,968.55277,
2318.539,993.53591,
2315.628,977.47302,
2312.718,971.21696,
2309.807,998.36482,
2306.896,999.94717,
2303.986,984.97083,
2301.075,989.28192,
2298.165,982.96145,
2295.254,975.87926,
2292.344,1010.3765,
2289.433,1019.0009,
2286.522,1010.5847,
2283.612,1018.6097,
2280.701,1016.75,
2277.791,1024.3092,
2274.880,1017.1739,
2271.969,1029.3632,
2269.059,1033.2187,
2266.148,1025.8068,
2263.238,1038.8427,
2260.327,1045.5777,
2257.417,1061.2572,
2254.506,1073.3226,
2251.595,1048.6265,
2248.685,1054.8461,
2245.774,1038.4207,
2242.864,1065.3709,
2239.953,1090.7982,
2237.043,1092.295,
2234.132,1073.8384,
2231.221,1092.0421,
2228.311,1103.6198,
2225.400,1101.8344,
2222.490,1102.5219,
2219.579,1099.93,
2216.669,1129.1761,
2213.758,1134.3134,
2210.847,1137.6165,
2207.937,1135.9129,
2205.026,1162.194,
2202.116,1167.7192,
2199.205,1151.1625,
2196.294,1150.626,
2193.384,1167.5125,
2190.473,1149.8685,
2187.563,1204.6485,
2184.652,1184.3524,
2181.742,1189.5229,
2178.831,1181.8784,
2175.920,1169.0815,
2173.010,1208.4529,
2170.099,1221.0169,
2167.189,1195.0585,
2164.278,1238.9239,
2161.368,1246.8927,
2158.457,1232.3813,
2155.546,1235.0972,
2152.636,1253.6596,
2149.725,1269.3943,
2146.815,1289.1827,
2143.904,1278.6533,
2140.993,1287.6812,
2138.083,1298.7743,
2135.172,1311.7584,
2132.262,1310.75,
2129.351,1348.5088,
2126.441,1311.2741,
2123.530,1313.2551,
2120.619,1352.3833,
2117.709,1315.5857,
2114.798,1309.8577,
2111.888,1302.4505,
2108.977,1304.7368,
2106.067,1316.5419,
2103.156,1326.5484,
2100.245,1294.7632,
2097.335,1314.4254,
2094.424,1308.1009,
2091.514,1311.2419,
2088.603,1305.8191,
2085.692,1314.1589,
2082.782,1332.1274,
2079.871,1350.4291,
2076.961,1352.75,
2074.050,1347.5561,
2071.140,1339.0837,
2068.229,1316.1107,
2065.318,1333.9118,
2062.408,1360.6895,
2059.497,1380.381,
2056.587,1401.3894,
2053.676,1382.0681,
2050.766,1362.9047,
2047.855,1384.7468,
2044.944,1413.0305,
2042.034,1375.039,
2039.123,1389.0732,
2036.213,1396.4277,
2033.302,1387.4888,
2030.391,1406.3941,
2027.481,1408.2378,
2024.570,1412.1213,
2021.660,1379.8195,
2018.749,1416.0919,
2015.839,1422.7323,
2012.928,1408.8305,
2010.017,1411.5937,
2007.107,1432.1238,
2004.196,1454.5,
2001.286,1427.8914,
1998.375,1428.8012,
1995.465,1427.1643,
1992.554,1413.2324,
1989.643,1434.9205,
1986.733,1442.3053,
1983.822,1427.894,
1980.912,1477.9862,
1978.001,1427.1563,
1975.090,1444.5622,
1972.180,1448.4388,
1969.269,1458.8822,
1966.359,1433.8037,
1963.448,1458.4673,
1960.538,1470.3155,
1957.627,1440.3258,
1954.716,1435.7787,
1951.806,1504.0609,
1948.895,1472.3876,
1945.985,1480.018,
1943.074,1474.8019,
1940.164,1440.1349,
1937.253,1453.0023,
1934.342,1424.0917,
1931.432,1425.3778,
1928.521,1435.8536,
1925.611,1396.9906,
1922.700,1448.4392,
1919.790,1451.9698,
1916.879,1434.866,
1913.968,1446.734,
1911.058,1496.5698,
1908.147,1470.3997,
1905.237,1489.2352,
1902.326,1438.7945,
1899.415,1441.8561,
1896.505,1449.2136,
1893.594,1432.1037,
1890.684,1458.4624,
1887.773,1471.1033,
1884.863,1462.9937,
1881.952,1486.4397,
1879.041,1495.9675,
1876.131,1482.5343,
1873.220,1487.5952,
1870.310,1463.6873,
1867.399,1488.3182,
1864.489,1474.0351,
1861.578,1506.4038,
1858.667,1507.6153,
1855.757,1481.935,
1852.846,1504.7808,
1849.936,1509.751,
1847.025,1471.6357,
1844.114,1495.7784,
1841.204,1553.75,
1838.293,1528.7916,
1835.383,1519.5985,
1832.472,1538.6804,
1829.562,1513.3651,
1826.651,1522.0498,
1823.740,1558.501,
1820.830,1563.8917,
1817.919,1542.3906,
1815.009,1556.5871,
1812.098,1600.1437,
1809.188,1643.2073,
1806.277,1574.3656,
1803.366,1558.0328,
1800.456,1573.1562,
1797.545,1548.8846,
1794.635,1589.0381,
1791.724,1640.6919,
1788.813,1597.967,
1785.903,1635.9768,
1782.992,1586.1405,
1780.082,1566.9881,
1777.171,1517.0749,
1774.261,1509.4755,
1771.350,1563.0183,
1768.439,1594.9433,
1765.529,1617.2963,
1762.618,1645.4569,
1759.708,1627.3474,
1756.797,1636.7727,
1753.887,1656.0561,
1750.976,1647.1846,
1748.065,1660.5088,
1745.155,1685.1886,
1742.244,1661.6568,
1739.334,1651.9665,
1736.423,1672.0004,
1733.512,1662.7418,
1730.602,1708.3632,
1727.691,1700.4172,
1724.781,1748.5969,
1721.870,1717.8783,
1718.960,1737.1726,
1716.049,1705.1572,
1713.138,1717.4149,
1710.228,1695.5114,
1707.317,1713.8643,
1704.407,1691.5949,
1701.496,1718.8311,
1698.586,1755.0134,
1695.675,1762.4285,
1692.764,1710.6803,
1689.854,1696.2697,
1686.943,1735.3672,
1684.033,1728.9487,
1681.122,1762.1723,
1678.211,1773.6453,
1675.301,1785.713,
1672.390,1821.6483,
1669.480,1788.0147,
1666.569,1820.8389,
1663.659,1827.9623,
1660.748,1840.2872,
1657.837,1817.2749,
1654.927,1839.8363,
1652.016,1803.7425,
1649.106,1882.7218,
1646.195,1841.702,
1643.285,1841.1856,
1640.374,1901.6629,
1637.463,1852.2812,
1634.553,1935.5136,
1631.642,1920.1409,
1628.732,1955.7381,
1625.821,1953.765,
1622.911,1976.6204,
1620.000,2064.6287,
1617.089,2066.7301,
1614.179,2080.3552,
1611.268,2125.0398,
1608.358,2178.2216,
1605.447,2257.122,
1602.536,2242.1804,
1599.626,2283.9868,
1596.715,2319.516,
1593.805,2315.5953,
1590.894,2303.3013,
1587.984,2338.992,
1585.073,2265.624,
1582.162,2277.6315,
1579.252,2272.1121,
1576.341,2262.5404,
1573.431,2247.436,
1570.520,2225.405,
1567.610,2260.731,
1564.699,2243.5737,
1561.788,2254.9892,
1558.878,2253.143,
1555.967,2240.4827,
1553.057,2229.0949,
1550.146,2229.0518,
1547.235,2225.8467,
1544.325,2233.6262,
1541.414,2217.9074,
1538.504,2212.1641,
1535.593,2248.6611,
1532.683,2253.3742,
1529.772,2251.1559,
1526.861,2258.2429,
1523.951,2245.2861,
1521.040,2266.6669,
1518.130,2254.2067,
1515.219,2261.3084,
1512.309,2301.8851,
1509.398,2263.6244,
1506.487,2291.8286,
1503.577,2299.578,
1500.666,2268.7866,
1497.756,2308.9026,
1494.845,2308.0685,
1491.934,2243.9075,
1489.024,2292.0321,
1486.113,2290.9684,
1483.203,2267.6576,
1480.292,2324.1458,
1477.382,2342.8325,
1474.471,2330.9372,
1471.560,2272.325,
1468.650,2284.5471,
1465.739,2304.8739,
1462.829,2307.1532,
1459.918,2323.8772,
1457.008,2308.8112,
1454.097,2287.6824,
1451.186,2304.4831,
1448.276,2285.0186,
1445.365,2226.5707,
1442.455,2241.2555,
1439.544,2286.4756,
1436.633,2231.2942,
1433.723,2257.6103,
1430.812,2287.1693,
1427.902,2231.2157,
1424.991,2292.8203,
1422.081,2310.3471,
1419.170,2271.1392,
1416.259,2301.2028,
1413.349,2281.8061,
1410.438,2337.8295,
1407.528,2316.8256,
1404.617,2315.5836,
1401.707,2315.732,
1398.796,2279.9249,
1395.885,2285.4471,
1392.975,2332.542,
1390.064,2352.3419,
1387.154,2372.0588,
1384.243,2379.989,
1381.332,2316.8687,
1378.422,2300.4458,
1375.511,2275.1527,
1372.601,2340.1815,
1369.690,2344.0356,
1366.780,2346.9181,
1363.869,2391.3386,
1360.958,2370.1177,
1358.048,2358.4631,
1355.137,2407.3818,
1352.227,2421.1289,
1349.316,2414.0797,
1346.406,2453.3045,
1343.495,2446.5426,
1340.584,2413.1426,
1337.674,2431.1084,
1334.763,2451.4557,
1331.853,2470.0003,
1328.942,2427.1663,
1326.032,2424.1969,
1323.121,2437.3464,
1320.210,2457.7321,
1317.300,2448.6333,
1314.389,2470.1534,
1311.479,2489.0802,
1308.568,2495.379,
1305.657,2530.4118,
1302.747,2532.3186,
1299.836,2599.6469,
1296.926,2640.6818,
1294.015,2617.6987,
1291.105,2603.5419,
1288.194,2650.4733,
1285.283,2634.1099,
1282.373,2614.5235,
1279.462,2617.9851,
1276.552,2626.1437,
1273.641,2622.0559,
1270.731,2621.8649,
1267.820,2649.359,
1264.909,2663.6174,
1261.999,2612.3825,
1259.088,2629.7128,
1256.178,2682.9938,
1253.267,2687.914,
1250.356,2634.6015,
1247.446,2660.7953,
1244.535,2687.3348,
1241.625,2650.2982,
1238.714,2631.5453,
1235.804,2675.3811,
1232.893,2661.9965,
1229.982,2677.1061,
1227.072,2658.0945,
1224.161,2673.5601,
1221.251,2634.313,
1218.340,2627.5237,
1215.430,2616.8855,
1212.519,2592.0727,
1209.608,2574.9781,
1206.698,2577.6225,
1203.787,2591.946,
1200.877,2575.0784,
1197.966,2548.1036,
1195.055,2572.3475,
1192.145,2602.2957,
1189.234,2613.3452,
1186.324,2631.6607,
1183.413,2653.6992,
1180.503,2678.9265,
1177.592,2701.7802,
1174.681,2677.1027,
1171.771,2665.9354,
1168.860,2673.9733,
1165.950,2675.5563,
1163.039,2652.0043,
1160.129,2651.1877,
1157.218,2684.6712,
1154.307,2719.3154,
1151.397,2723.5364,
1148.486,2709.4993,
1145.576,2712.7478,
1142.665,2689.662,
1139.754,2673.9183,
1136.844,2677.0527,
1133.933,2682.096,
1131.023,2646.9265,
1128.112,2612.1776,
1125.202,2625.1993,
1122.291,2633.5101,
1119.380,2659.9059,
1116.470,2675.7914,
1113.559,2703.2672,
1110.649,2678.0077,
1107.738,2661.2858,
1104.828,2684.6355,
1101.917,2708.1698,
1099.006,2683.5439,
1096.096,2664.18,
1093.185,2671.204,
1090.275,2669.3222,
1087.364,2666.0055,
1084.453,2669.8122,
1081.543,2660.6034,
1078.632,2660.6733,
1075.722,2697.75,
1072.811,2698.4326,
1069.901,2708.0384,
1066.990,2678.8417,
1064.079,2696.2485,
1061.169,2705.5408,
1058.258,2713.0667,
1055.348,2742.2117,
1052.437,2765.1872,
1049.527,2682.0255,
1046.616,2715.041,
1043.705,2704.8762,
1040.795,2693.0879,
1037.884,2675.0951,
1034.974,2663.6121,
1032.063,2656.4965,
1029.153,2631.0204,
1026.242,2691.5673,
1023.331,2637.9202,
1020.421,2653.937,
1017.510,2669.1117,
1014.600,2676.4022,
1011.689,2673.9128,
1008.778,2658.7873,
1005.868,2699.8349,
1002.957,2709.2988,
1000.047,2774.814,
997.136,2789.9401,
994.226,2790.8884,
991.315,2797.0099,
988.404,2780.6979,
985.494,2729.1144,
982.583,2745.389,
979.673,2748.4816,
976.762,2722.3304,
973.852,2720.1044,
970.941,2740.4536,
968.030,2738.2471,
965.120,2729.9469,
962.209,2776.8367,
959.299,2736.5891,
956.388,2746.9881,
953.477,2760.4743,
950.567,2767.971,
947.656,2832.4212,
944.746,2845.1645,
941.835,2817.4065,
938.925,2840.3623,
936.014,2867.8898,
933.103,2879.75,
930.193,2867.1653,
927.282,2815.3293,
924.372,2789.1155,
921.461,2795.3232,
918.551,2774.9317,
915.640,2747.9763,
912.729,2720.7955,
909.819,2691.8688,
906.908,2760.9476,
903.998,2738.503,
901.087,2724.7484,
898.176,2705.0026,
895.266,2704.8895,
892.355,2744.5771,
889.445,2759.6839,
886.534,2773.9428,
883.624,2782.8055,
880.713,2772.9911,
877.802,2760.4026,
874.892,2760.4854,
871.981,2759.3704,
869.071,2573.9087,
866.160,2630.7548,
863.250,2696.4359,
860.339,2735.8588,
857.428,2757.6716,
854.518,2726.5705,
851.607,2685.7991,
848.697,2678.75,
845.786,2661.6241,
842.875,2670.5679,
839.965,2735.6098,
837.054,2821.9361,
834.144,2838.5111,
831.233,2841.0834,
828.323,2824.4291,
825.412,2819.6626,
822.501,2848.3246,
819.591,2868.1581,
816.680,2886.3782,
813.770,2876.9669,
810.859,2843.4805,
807.949,2805.8597,
805.038,2789.9403,
802.127,2808.0491,
799.217,2834.3479,
796.306,2834.2364,
793.396,2830.0859,
790.485,2830.8019,
787.574,2820.9955,
784.664,2853.8,
781.753,2859.75,
778.843,2867.1012,
775.932,2880.9227,
773.022,2888.7905,
770.111,2850.3643,
767.200,2875.9186,
764.290,2883.0164,
761.379,2878.5991,
758.469,2872.4944,
755.558,2868.5523,
752.648,2895.4342,
749.737,2860.2771,
746.826,2869.0544,
743.916,2901.5162,
741.005,2902.3528,
738.095,2960.8079,
735.184,2990.6319,
732.274,2951.8933,
729.363,2878.153,
726.452,2816.7268,
723.542,2811.061,
720.631,2829.0989,
717.721,2849.0711,
714.810,2872.3124,
711.899,2888.2351,
708.989,2868.8689,
706.078,2878.3656,
703.168,2864.355,
700.257,2864.4769,
697.347,2873.6637,
694.436,2850.9644,
691.525,2822.0274,
688.615,2820.7813,
685.704,2827.2035,
682.794,2839.2393,
679.883,2863.2093,
676.973,2851.1888,
674.062,2882.5683,
671.151,2884.2168,
668.241,2868.6592,
665.330,2889.9937,
662.420,2874.019,
659.509,2888.5281,
656.598,2901.7792,
653.688,2919.5526,
650.777,2965.804,
647.867,2967.3967,
644.956,2903.9775,
642.046,2835.3135,
639.135,2798.571,
636.224,2816.8853,
633.314,2843.8792,
630.403,2856.0709,
627.493,2866.6633,
624.582,2884.1066,
621.672,2912.6184,
618.761,2882.5925,
615.850,2916.278,
612.940,2960.2884,
610.029,2977.4076,
607.119,2981.3558,
604.208,2983.17,
601.297,3001.1981,
598.387,3005.5649,
595.476,2970.5959,
592.566,2947.7709,
589.655,2921.7217,
586.745,2925.8068,
583.834,2937.9666,
580.923,2906.8637,
578.013,2925.6973,
575.102,2900.9234,
572.192,2905.1891,
569.281,2953.5936,
566.371,2958.2893,
563.460,2984.1469,
560.549,3033.245,
557.639,3066.2302,
554.728,3045.2573,
551.818,3037.4541,
548.907,3009.5452,
545.996,3008.6904,
543.086,3025.0263,
540.175,2984.5368,
537.265,2981.75,
534.354,2981.75,
531.444,2990.1097,
528.533,3012.9088,
525.622,3029.2037,
522.712,3001.8056,
519.801,2965.711,
516.891,2940.8455,
513.980,2946.2656,
511.070,2938.2978,
508.159,2927.5865,
505.248,2918.7486,
502.338,2916.1567,
499.427,2930.0496,
496.517,2956.3762,
493.606,2959.6173,
490.695,2927.6846,
487.785,2898.4325,
484.874,2905.382,
481.964,2888.4944,
479.053,2852.0728,
476.143,2836.7136,
473.232,2832.8724,
470.321,2825.9111,
467.411,2831.4,
464.500,2865.4203,
461.590,2852.4027,
458.679,2839.9453,
455.769,2845.0375,
452.858,2875.4086,
449.947,2910.5494,
447.037,2874.0632,
444.126,2854.9924,
441.216,2865.0616,
438.305,2832.2985,
435.395,2868.3995,
432.484,2852.6591,
429.573,2800.2175,
426.663,2797.9371,
423.752,2656.1739,
420.842,2452.7207,
417.931,2287.1975,
415.020,2299.3312,
412.110,2504.6017,
409.199,2662.8795,
406.289,2741.3867,
403.378,2715.6962,
400.468,2699.8203,
397.557,2711.7169,
394.646,2749.0283,
391.736,2807.5226,
388.825,2831.658,
385.915,2836.6212,
383.004,2815.9041,
380.094,2770.5543,
377.183,2805.9207,
374.272,2794.5816,
371.362,2793.5267,
368.451,2829.8747,
365.541,2766.0792,
362.630,2745.4726,
359.719,2740.6782,
356.809,2736.7468,
353.898,2753.2204,
350.988,2758.835,
348.077,2760.9116,
345.167,2763.1824,
342.256,2751.9764,
339.345,2746.0928,
336.435,2724.8737,
333.524,2676.807,
330.614,2710.339,
327.703,2733.5851,
324.793,2753.2259,
321.882,2774.741,
318.971,2771.0238,
316.061,2727.755,
313.150,2696.9143,
310.240,2739.2149,
307.329,2758.6159,
304.418,2763.9262,
301.508,2771.7931,
298.597,2809.5544,
295.687,2814.1045,
292.776,2820.1667,
289.866,2837.4028,
286.955,2883.2038,
284.044,2925.8025,
281.134,2948.6014,
278.223,2943.882,
275.313,2890.0916,
272.402,2871.1983,
269.492,2843.2535,
266.581,2790.651,
263.670,2733.307,
260.760,2794.5851,
257.849,2885.2537,
254.939,2941.0287,
252.028,2917.1393,
249.117,2850.1897,
246.207,2792.357,
243.296,2833.3511,
240.386,2844.2799,
237.475,2835.456,
234.565,2810.3434,
231.654,2776.0154,
228.743,2803.8475,
225.833,2800.7848,
222.922,2733.2212,
220.012,2700.4362,
217.101,2731.9516,
214.191,2768.7561,
211.280,2745.4773,
208.369,2686.5609,
205.459,2644.7762,
202.548,2629.3907,
199.638,2662.0449,
196.727,2635.3295,
193.816,2613.4592,
190.906,2617.7438,
187.995,2560.5459,
185.085,2545.0057,
182.174,2525.6563,
179.264,2436.7561,
176.353,2422.2645,
173.442,2433.8898,
170.532,2448.2491,
167.621,2358.1272,
164.711,2268.5796,
161.800,2144.6224,
158.890,1953.8946,
155.979,1796.8522,
153.068,1621.3906,
150.158,1422.9299,
147.247,1188.8775,
144.337,960.53598,
141.426,744.6145,
138.516,546.03562,
135.605,392.95827,
132.694,268.87298,
129.784,173.46105,
126.873,115.53553,
123.963,82.694405,
121.052,59.101191,
118.141,39.825837,
115.231,39.75,
112.320,32.124553,
109.410,21.886355,
106.499,22.59851,
103.589,18.828219,
100.678,15.478378,
97.767,14.767441,
94.857,13.364022,
91.946,15.168665,
89.036,18.411306,
86.125,16.28369,
83.215,14.688159,
80.304,11.595106,
77.393,5.2215764,
74.483,9.9910797,
71.572,11.662944,
68.662,9.19586,
65.751,3.5442514,
62.840,6.5670198,
59.930,10.438997,
57.019,5.5034227,
54.109,-1.8187693,
51.198,-2.932298,
48.288,4.7216878,
45.377,1.2047975,
42.466,2.223316,
39.556,5.0592885,
36.645,0.84614724,
33.735,5.4617331,
30.824,7.6575824,
27.914,-2.1588711,
25.003,-4.495275,
22.092,-5.5729046,
19.182,-5.9525228,
16.271,3.1408489,
13.361,-8.0010292,
10.450,-74.162488,
7.539,-340.91896,
4.629,-843.96298,
1.718,-1306.9115,
-1.192,-1491.6548,
-4.103,-1139.1026,
-7.013,-623.84595,
-9.924,-0.25,
