,Pliquid_AuCOFNPs-citrate13new_1E-1mgmL_100uL_mix_1E-1mgL_16h_785nm_133mW_3s_1acc_2_RamanShift__4__48,
Raman shift [1/cm],Intensity,
3014.167,-1.25,
3011.256,1.9999463,
3008.346,93.754247,
3005.435,102.59806,
3002.525,119.67506,
2999.614,120.55262,
2996.704,117.07681,
2993.793,115.97926,
2990.882,131.18512,
2987.972,119.88117,
2985.061,141.75985,
2982.151,149.9601,
2979.240,143.43346,
2976.329,143.50137,
2973.419,146.5654,
2970.508,154.38329,
2967.598,166.08092,
2964.687,157.52581,
2961.777,157.31405,
2958.866,172.74109,
2955.955,170.33188,
2953.045,187.09899,
2950.134,180.35642,
2947.224,196.06316,
2944.313,201.80627,
2941.403,204.44069,
2938.492,191.31368,
2935.581,195.49722,
2932.671,196.26931,
2929.760,196.49231,
2926.850,195.95902,
2923.939,216.62849,
2921.028,207.10868,
2918.118,212.09131,
2915.207,219.80693,
2912.297,213.76693,
2909.386,222.53832,
2906.476,220.97471,
2903.565,206.2174,
2900.654,217.86728,
2897.744,216.56142,
2894.833,205.87363,
2891.923,214.9936,
2889.012,210.99856,
2886.102,205.48109,
2883.191,219.73018,
2880.280,175.96531,
2877.370,137.86058,
2874.459,127.7438,
2871.549,171.73721,
2868.638,200.47783,
2865.727,223.75,
2862.817,222.29278,
2859.906,230.6104,
2856.996,235.6866,
2854.085,245.34873,
2851.175,230.58432,
2848.264,233.18133,
2845.353,227.92254,
2842.443,223.37159,
2839.532,218.72006,
2836.622,220.90169,
2833.711,226.48313,
2830.801,221.75735,
2827.890,244.97549,
2824.979,229.95998,
2822.069,228.75,
2819.158,230.27022,
2816.248,243.95658,
2813.337,256.82196,
2810.427,236.49243,
2807.516,236.64203,
2804.605,235.56731,
2801.695,244.40791,
2798.784,233.00669,
2795.874,236.88984,
2792.963,244.89298,
2790.052,239.75172,
2787.142,250.22354,
2784.231,241.13664,
2781.321,243.81286,
2778.410,241.01524,
2775.500,252.59896,
2772.589,240.05886,
2769.678,259.14248,
2766.768,256.69174,
2763.857,255.908,
2760.947,263.29098,
2758.036,250.26581,
2755.126,261.65812,
2752.215,252.75,
2749.304,252.75,
2746.394,266.96169,
2743.483,268.3,
2740.573,254.55525,
2737.662,265.85651,
2734.751,267.21595,
2731.841,260.0467,
2728.930,271.322,
2726.020,268.40799,
2723.109,280.36825,
2720.199,266.06239,
2717.288,276.31204,
2714.377,285.68312,
2711.467,272.5533,
2708.556,286.34537,
2705.646,284.53869,
2702.735,279.43042,
2699.825,293.72819,
2696.914,291.51181,
2694.003,289.23618,
2691.093,292.89319,
2688.182,304.04111,
2685.272,294.75,
2682.361,287.65611,
2679.450,293.02977,
2676.540,291.68903,
2673.629,288.75,
2670.719,286.18068,
2667.808,291.40955,
2664.898,296.49027,
2661.987,294.61664,
2659.076,292.87716,
2656.166,305.39503,
2653.255,297.97449,
2650.345,288.61388,
2647.434,291.80773,
2644.524,311.04735,
2641.613,301.94987,
2638.702,292.86047,
2635.792,309.93843,
2632.881,309.67845,
2629.971,324.34737,
2627.060,318.58406,
2624.149,318.72187,
2621.239,320.48962,
2618.328,327.81748,
2615.418,306.75,
2612.507,312.33496,
2609.597,320.29092,
2606.686,313.89258,
2603.775,327.07143,
2600.865,337.10155,
2597.954,323.36669,
2595.044,316.41076,
2592.133,329.36795,
2589.223,343.88264,
2586.312,348.94597,
2583.401,344.87405,
2580.491,335.65384,
2577.580,347.75825,
2574.670,346.10831,
2571.759,327.09846,
2568.848,339.74455,
2565.938,353.13093,
2563.027,347.60233,
2560.117,336.83412,
2557.206,346.98247,
2554.296,324.92849,
2551.385,345.55191,
2548.474,349.93551,
2545.564,355.78166,
2542.653,340.84395,
2539.743,351.82394,
2536.832,367.64907,
2533.922,364.73423,
2531.011,364.02498,
2528.100,369.54792,
2525.190,371.37828,
2522.279,366.07829,
2519.369,367.61824,
2516.458,348.52266,
2513.548,354.88619,
2510.637,362.85669,
2507.726,376.62732,
2504.816,374.25057,
2501.905,379.37317,
2498.995,373.51112,
2496.084,372.81622,
2493.173,384.72384,
2490.263,368.00872,
2487.352,375.08387,
2484.442,384.74357,
2481.531,395.0159,
2478.621,396.6789,
2475.710,388.64265,
2472.799,380.91585,
2469.889,394.41758,
2466.978,395.24478,
2464.068,379.55417,
2461.157,386.63743,
2458.247,402.1618,
2455.336,388.28422,
2452.425,397.47172,
2449.515,398.97662,
2446.604,410.57026,
2443.694,415.16858,
2440.783,400.98536,
2437.872,398.29697,
2434.962,409.8606,
2432.051,409.06495,
2429.141,420.30878,
2426.230,399.31459,
2423.320,426.65014,
2420.409,419.9936,
2417.498,428.92136,
2414.588,421.03524,
2411.677,428.53485,
2408.767,422.75,
2405.856,424.62618,
2402.946,424.01184,
2400.035,438.93311,
2397.124,433.20988,
2394.214,443.128,
2391.303,439.75,
2388.393,424.81973,
2385.482,448.42815,
2382.571,456.99139,
2379.661,435.19173,
2376.750,452.95933,
2373.840,444.20006,
2370.929,434.81498,
2368.019,433.0628,
2365.108,455.00393,
2362.197,463.59653,
2359.287,487.0865,
2356.376,459.81164,
2353.466,473.56851,
2350.555,468.35499,
2347.645,465.97384,
2344.734,467.90208,
2341.823,460.88267,
2338.913,476.99329,
2336.002,476.81704,
2333.092,474.07171,
2330.181,477.48658,
2327.270,483.36496,
2324.360,483.00238,
2321.449,473.36565,
2318.539,478.28211,
2315.628,491.60652,
2312.718,508.23238,
2309.807,503.2471,
2306.896,483.75783,
2303.986,492.84096,
2301.075,496.43087,
2298.165,498.53855,
2295.254,491.92234,
2292.344,504.3849,
2289.433,488.72682,
2286.522,508.41943,
2283.612,518.94896,
2280.701,501.4989,
2277.791,509.19082,
2274.880,519.75,
2271.969,515.10802,
2269.059,535.12061,
2266.148,542.88857,
2263.238,551.2442,
2260.327,532.71538,
2257.417,521.83389,
2254.506,538.22296,
2251.595,544.32457,
2248.685,545.43268,
2245.774,541.3435,
2242.864,555.49065,
2239.953,551.97758,
2237.043,552.75,
2234.132,562.111,
2231.221,554.82745,
2228.311,573.10564,
2225.400,567.46855,
2222.490,559.79239,
2219.579,573.19475,
2216.669,575.77862,
2213.758,576.92517,
2210.847,600.90111,
2207.937,635.48775,
2205.026,608.4153,
2202.116,645.22558,
2199.205,643.33753,
2196.294,650.05598,
2193.384,661.43401,
2190.473,692.92137,
2187.563,673.98201,
2184.652,720.5451,
2181.742,717.59139,
2178.831,732.46598,
2175.920,769.47679,
2173.010,800.90079,
2170.099,801.28373,
2167.189,830.69977,
2164.278,827.56508,
2161.368,853.46384,
2158.457,875.03518,
2155.546,892.31058,
2152.636,933.86159,
2149.725,962.56878,
2146.815,989.88241,
2143.904,997.84666,
2140.993,995.57003,
2138.083,1024.2332,
2135.172,1029.8424,
2132.262,1015.6206,
2129.351,992.60505,
2126.441,965.42955,
2123.530,934.60409,
2120.619,914.86956,
2117.709,867.79469,
2114.798,842.76523,
2111.888,803.32577,
2108.977,768.94866,
2106.067,760.26676,
2103.156,714.11874,
2100.245,711.73243,
2097.335,680.01702,
2094.424,654.6648,
2091.514,658.60482,
2088.603,663.29374,
2085.692,668.61248,
2082.782,655.85448,
2079.871,635.3206,
2076.961,667.29604,
2074.050,643.13788,
2071.140,650.91091,
2068.229,656.92056,
2065.318,659.65024,
2062.408,652.58358,
2059.497,655.93451,
2056.587,650.75,
2053.676,657.28293,
2050.766,643.05867,
2047.855,643.23414,
2044.944,655.75963,
2042.034,631.88298,
2039.123,637.04966,
2036.213,636.84557,
2033.302,654.33675,
2030.391,659.3095,
2027.481,692.20088,
2024.570,680.30779,
2021.660,644.70127,
2018.749,649.44608,
2015.839,645.24738,
2012.928,664.53188,
2010.017,655.37324,
2007.107,656.65654,
2004.196,676.27389,
2001.286,669.955,
1998.375,667.05906,
1995.465,632.05983,
1992.554,670.70839,
1989.643,653.61409,
1986.733,647.87369,
1983.822,662.95384,
1980.912,637.16612,
1978.001,653.45316,
1975.090,656.97595,
1972.180,638.06118,
1969.269,653.09204,
1966.359,654.88492,
1963.448,655.2467,
1960.538,639.27377,
1957.627,659.71596,
1954.716,651.09472,
1951.806,654.45193,
1948.895,651.04551,
1945.985,661.64379,
1943.074,645.67614,
1940.164,650.41334,
1937.253,648.92809,
1934.342,655.2115,
1931.432,636.89511,
1928.521,631.29577,
1925.611,619.33456,
1922.700,612.16713,
1919.790,658.25814,
1916.879,635.05173,
1913.968,650.72787,
1911.058,615.87313,
1908.147,631.21861,
1905.237,629.93384,
1902.326,631.36631,
1899.415,614.35854,
1896.505,618.61743,
1893.594,630.55799,
1890.684,630.61288,
1887.773,640.05101,
1884.863,640.97779,
1881.952,637.42242,
1879.041,670.25312,
1876.131,652.06112,
1873.220,632.67473,
1870.310,650.24324,
1867.399,645.84596,
1864.489,669.20479,
1861.578,654.81601,
1858.667,650.15117,
1855.757,671.76432,
1852.846,651.47822,
1849.936,644.79604,
1847.025,667.92274,
1844.114,667.04641,
1841.204,656.53671,
1838.293,658.77827,
1835.383,664.15648,
1832.472,696.98304,
1829.562,660.75624,
1826.651,660.04976,
1823.740,663.74232,
1820.830,690.84475,
1817.919,689.16311,
1815.009,717.57442,
1812.098,677.86814,
1809.188,659.61825,
1806.277,702.75407,
1803.366,689.36737,
1800.456,668.6735,
1797.545,700.2749,
1794.635,684.71798,
1791.724,682.53634,
1788.813,713.35849,
1785.903,728.02527,
1782.992,686.26266,
1780.082,677.05126,
1777.171,668.74518,
1774.261,659.87518,
1771.350,700.28651,
1768.439,730.08935,
1765.529,706.11107,
1762.618,711.00754,
1759.708,740.39137,
1756.797,748.36364,
1753.887,747.49344,
1750.976,758.13285,
1748.065,760.60561,
1745.155,740.78237,
1742.244,760.22187,
1739.334,748.04648,
1736.423,739.28271,
1733.512,772.76635,
1730.602,778.76586,
1727.691,763.69977,
1724.781,773.1218,
1721.870,795.25963,
1718.960,788.23875,
1716.049,784.91103,
1713.138,800.13992,
1710.228,820.15594,
1707.317,858.13286,
1704.407,854.66443,
1701.496,789.94165,
1698.586,801.3057,
1695.675,843.92118,
1692.764,832.54917,
1689.854,842.27363,
1686.943,901.69274,
1684.033,868.6441,
1681.122,911.00233,
1678.211,944.43593,
1675.301,905.87025,
1672.390,928.83075,
1669.480,956.50407,
1666.569,1049.0898,
1663.659,998.2563,
1660.748,1028.8657,
1657.837,1034.7063,
1654.927,1034.9055,
1652.016,1123.6079,
1649.106,1078.5824,
1646.195,1112.1336,
1643.285,1129.5957,
1640.374,1209.4399,
1637.463,1242.4886,
1634.553,1283.6071,
1631.642,1341.1952,
1628.732,1382.3248,
1625.821,1478.7919,
1622.911,1542.3894,
1620.000,1641.4901,
1617.089,1737.8196,
1614.179,1840.8171,
1611.268,1952.5489,
1608.358,2061.5995,
1605.447,2115.779,
1602.536,2145.7747,
1599.626,2176.2679,
1596.715,2137.0003,
1593.805,2145.2706,
1590.894,2131.7786,
1587.984,2095.9724,
1585.073,2056.7173,
1582.162,2019.8592,
1579.252,2003.1121,
1576.341,1963.1,
1573.431,1916.9408,
1570.520,1886.1118,
1567.610,1889.4364,
1564.699,1840.5479,
1561.788,1821.4542,
1558.878,1811.5086,
1555.967,1750.5935,
1553.057,1725.5775,
1550.146,1717.3028,
1547.235,1646.4044,
1544.325,1614.7572,
1541.414,1592.3466,
1538.504,1560.1258,
1535.593,1564.0275,
1532.683,1594.3415,
1529.772,1609.8314,
1526.861,1582.2662,
1523.951,1567.0862,
1521.040,1576.3797,
1518.130,1567.2067,
1515.219,1554.7099,
1512.309,1559.9977,
1509.398,1563.5427,
1506.487,1570.6714,
1503.577,1558.6604,
1500.666,1563.1464,
1497.756,1510.9026,
1494.845,1513.5504,
1491.934,1532.7846,
1489.024,1543.3721,
1486.113,1465.8639,
1483.203,1475.737,
1480.292,1469.2649,
1477.382,1447.5438,
1474.471,1447.3543,
1471.560,1419.7234,
1468.650,1397.1343,
1465.739,1382.1426,
1462.829,1435.8349,
1459.918,1465.2527,
1457.008,1450.6576,
1454.097,1431.3474,
1451.186,1385.808,
1448.276,1347.0707,
1445.365,1339.5691,
1442.455,1316.3964,
1439.544,1317.3085,
1436.633,1272.3319,
1433.723,1249.7409,
1430.812,1271.7844,
1427.902,1284.5696,
1424.991,1276.9875,
1422.081,1233.6286,
1419.170,1234.9344,
1416.259,1249.5211,
1413.349,1267.8548,
1410.438,1259.4542,
1407.528,1231.8628,
1404.617,1229.1441,
1401.707,1209.253,
1398.796,1194.7185,
1395.885,1215.0847,
1392.975,1188.665,
1390.064,1100.2118,
1387.154,1060.0392,
1384.243,1026.645,
1381.332,988.74599,
1378.422,1000.711,
1375.511,1077.5271,
1372.601,1153.3972,
1369.690,1243.7578,
1366.780,1318.7367,
1363.869,1352.9119,
1360.958,1373.6145,
1358.048,1376.5968,
1355.137,1431.5752,
1352.227,1506.626,
1349.316,1500.6995,
1346.406,1475.5722,
1343.495,1544.4591,
1340.584,1577.0716,
1337.674,1569.2524,
1334.763,1606.0443,
1331.853,1587.4997,
1328.942,1629.4443,
1326.032,1663.2967,
1323.121,1659.3765,
1320.210,1687.7142,
1317.300,1724.4081,
1314.389,1735.6666,
1311.479,1746.7305,
1308.568,1751.1007,
1305.657,1727.031,
1302.747,1730.1763,
1299.836,1754.9836,
1296.926,1865.2882,
1294.015,1898.3839,
1291.105,1976.3571,
1288.194,2025.0897,
1285.283,2092.7463,
1282.373,2132.2031,
1279.462,2179.6316,
1276.552,2225.6162,
1273.641,2233.6394,
1270.731,2221.9843,
1267.820,2220.194,
1264.909,2187.8603,
1261.999,2215.6196,
1259.088,2157.2438,
1256.178,2168.3098,
1253.267,2127.7871,
1250.356,2071.4058,
1247.446,2041.9491,
1244.535,1977.2769,
1241.625,1912.5019,
1238.714,1883.8888,
1235.804,1844.7402,
1232.893,1859.8902,
1229.982,1788.8795,
1227.072,1733.6555,
1224.161,1717.9829,
1221.251,1677.78,
1218.340,1589.6038,
1215.430,1552.0532,
1212.519,1571.9549,
1209.608,1594.5219,
1206.698,1594.9414,
1203.787,1597.4988,
1200.877,1655.9729,
1197.966,1659.5695,
1195.055,1722.8904,
1192.145,1736.7554,
1189.234,1801.3317,
1186.324,1871.7535,
1183.413,1901.75,
1180.503,1902.4245,
1177.592,1895.8508,
1174.681,1865.1884,
1171.771,1833.173,
1168.860,1808.1665,
1165.950,1780.755,
1163.039,1767.766,
1160.129,1787.1645,
1157.218,1802.75,
1154.307,1804.2341,
1151.397,1802.5791,
1148.486,1789.5511,
1145.576,1782.7115,
1142.665,1781.8235,
1139.754,1782.5636,
1136.844,1789.753,
1133.933,1766.3572,
1131.023,1742.0848,
1128.112,1720.7522,
1125.202,1704.1364,
1122.291,1730.7338,
1119.380,1688.9232,
1116.470,1706.5738,
1113.559,1703.3373,
1110.649,1671.6271,
1107.738,1669.1455,
1104.828,1680.75,
1101.917,1675.4243,
1099.006,1652.5853,
1096.096,1605.6101,
1093.185,1619.6581,
1090.275,1648.2652,
1087.364,1643.0859,
1084.453,1669.248,
1081.543,1703.8291,
1078.632,1705.1544,
1075.722,1679.75,
1072.811,1679.2536,
1069.901,1672.2675,
1066.990,1700.0416,
1064.079,1704.7085,
1061.169,1696.0178,
1058.258,1670.6931,
1055.348,1666.7969,
1052.437,1711.2226,
1049.527,1667.8507,
1046.616,1670.4572,
1043.705,1710.8298,
1040.795,1704.2334,
1037.884,1699.8189,
1034.974,1690.8531,
1032.063,1670.7575,
1029.153,1684.9843,
1026.242,1670.2801,
1023.331,1668.9167,
1020.421,1732.1862,
1017.510,1737.8992,
1014.600,1735.1296,
1011.689,1774.99,
1008.778,1820.7652,
1005.868,1792.3446,
1002.957,1858.5919,
1000.047,1910.246,
997.136,1944.5444,
994.226,1957.75,
991.315,1936.4381,
988.404,1888.2364,
985.494,1890.1746,
982.583,1864.4779,
979.673,1855.6285,
976.762,1842.5951,
973.852,1818.8376,
970.941,1807.345,
968.030,1828.2009,
965.120,1830.7572,
962.209,1832.4622,
959.299,1857.5387,
956.388,1866.6301,
953.477,1857.5295,
950.567,1859.6055,
947.656,1897.1903,
944.746,1885.2965,
941.835,1889.6089,
938.925,1901.9369,
936.014,1890.0461,
933.103,1879.4588,
930.193,1875.9692,
927.282,1814.2165,
924.372,1841.2759,
921.461,1799.0932,
918.551,1782.1691,
915.640,1783.8747,
912.729,1767.9651,
909.819,1725.98,
906.908,1795.9013,
903.998,1764.754,
901.087,1746.2024,
898.176,1758.4062,
895.266,1786.9546,
892.355,1810.2053,
889.445,1828.6692,
886.534,1861.31,
883.624,1859.0032,
880.713,1854.2396,
877.802,1857.9187,
874.892,1852.6969,
871.981,1794.6119,
869.071,1788.764,
866.160,1809.1387,
863.250,1839.1939,
860.339,1859.5399,
857.428,1856.4368,
854.518,1829.3889,
851.607,1816.9079,
848.697,1838.8236,
845.786,1832.6241,
842.875,1824.4401,
839.965,1845.2162,
837.054,1874.6477,
834.144,1865.5314,
831.233,1856.4172,
828.323,1855.2229,
825.412,1860.6477,
822.501,1865.2606,
819.591,1856.9966,
816.680,1811.8781,
813.770,1799.497,
810.859,1807.3236,
807.949,1811.6866,
805.038,1798.5376,
802.127,1821.5852,
799.217,1766.3549,
796.306,1756.9663,
793.396,1770.2004,
790.485,1774.9596,
787.574,1761.9021,
784.664,1792.2462,
781.753,1801.1049,
778.843,1808.1409,
775.932,1802.3304,
773.022,1774.4676,
770.111,1759.7512,
767.200,1784.6346,
764.290,1781.1924,
761.379,1779.0519,
758.469,1773.8921,
755.558,1717.2881,
752.648,1701.8106,
749.737,1683.7358,
746.826,1630.0603,
743.916,1531.9571,
741.005,1391.4657,
738.095,1194.1796,
735.184,892.59178,
732.274,819.61461,
729.363,995.30302,
726.452,1322.9886,
723.542,1590.0884,
720.631,1638.3897,
717.721,1687.1307,
714.810,1731.3579,
711.899,1754.1163,
708.989,1742.8194,
706.078,1757.9748,
703.168,1768.4294,
700.257,1743.4574,
697.347,1702.8368,
694.436,1706.7064,
691.525,1705.0987,
688.615,1719.215,
685.704,1720.8429,
682.794,1717.835,
679.883,1737.8581,
676.973,1740.2622,
674.062,1735.6453,
671.151,1745.4616,
668.241,1758.1763,
665.330,1747.9601,
662.420,1773.5195,
659.509,1779.3849,
656.598,1768.0658,
653.688,1767.9328,
650.777,1817.7239,
647.867,1787.4634,
644.956,1793.133,
642.046,1787.8975,
639.135,1771.8461,
636.224,1779.754,
633.314,1780.5479,
630.403,1809.7193,
627.493,1813.2348,
624.582,1780.3934,
621.672,1751.8816,
618.761,1746.9503,
615.850,1756.7698,
612.940,1773.9468,
610.029,1789.6185,
607.119,1788.8288,
604.208,1801.5302,
601.297,1792.293,
598.387,1772.5906,
595.476,1761.6813,
592.566,1782.145,
589.655,1746.8766,
586.745,1727.9198,
583.834,1733.385,
580.923,1742.3662,
578.013,1678.8027,
575.102,1687.5615,
572.192,1744.2649,
569.281,1810.2034,
566.371,1801.5945,
563.460,1838.1398,
560.549,1863.0083,
557.639,1871.4072,
554.728,1867.9964,
551.818,1871.8979,
548.907,1872.1406,
545.996,1871.3612,
543.086,1872.4276,
540.175,1880.2141,
537.265,1874.2315,
534.354,1908.3734,
531.444,1938.0622,
528.533,1921.4674,
525.622,1931.5547,
522.712,1907.0529,
519.801,1900.0608,
516.891,1927.0793,
513.980,1978.1829,
511.070,1961.6196,
508.159,1968.9873,
505.248,1991.2565,
502.338,2004.9759,
499.427,2012.6942,
496.517,2008.5278,
493.606,2004.7595,
490.695,2006.2151,
487.785,2002.3661,
484.874,2030.8301,
481.964,2046.75,
479.053,2043.8083,
476.143,2031.5209,
473.232,2036.5052,
470.321,2015.3943,
467.411,1994.2956,
464.500,2004.0712,
461.590,1977.2703,
458.679,1993.963,
455.769,2020.6814,
452.858,2033.8412,
449.947,2015.5068,
447.037,2033.5934,
444.126,2055.1439,
441.216,2065.7657,
438.305,2054.3367,
435.395,2052.75,
432.484,2048.9992,
429.573,2044.6375,
426.663,2048.4382,
423.752,2028.5248,
420.842,2005.136,
417.931,2003.6947,
415.020,2059.8132,
412.110,2111.4997,
409.199,2155.6668,
406.289,2165.5314,
403.378,2112.7193,
400.468,2103.6473,
397.557,2097.6651,
394.646,2083.1681,
391.736,2049.0458,
388.825,1964.5719,
385.915,1888.1272,
383.004,1865.0224,
380.094,1925.2415,
377.183,2013.2813,
374.272,2114.8248,
371.362,2193.8777,
368.451,2228.9354,
365.541,2248.4493,
362.630,2241.1865,
359.719,2243.7726,
356.809,2272.0768,
353.898,2227.8977,
350.988,2208.1552,
348.077,2214.528,
345.167,2245.1824,
342.256,2233.9764,
339.345,2221.1842,
336.435,2222.7433,
333.524,2248.5621,
330.614,2242.6009,
327.703,2259.2326,
324.793,2274.4299,
321.882,2267.8149,
318.971,2294.5788,
316.061,2307.6565,
313.150,2317.9857,
310.240,2338.0228,
307.329,2387.3453,
304.418,2378.4809,
301.508,2322.1038,
298.597,2236.9558,
295.687,2177.6025,
292.776,2164.4167,
289.866,2228.8584,
286.955,2457.1245,
284.044,2594.7449,
281.134,2707.9606,
278.223,2806.7736,
275.313,2875.3012,
272.402,2919.957,
269.492,2984.5251,
266.581,3076.5923,
263.670,3074.3868,
260.760,3133.3017,
257.849,3195.4488,
254.939,3217.4653,
252.028,3263.3522,
249.117,3277.5522,
246.207,3272.8029,
243.296,3269.1428,
240.386,3239.3654,
237.475,3194.936,
234.565,3145.299,
231.654,3123.3875,
228.743,3101.489,
225.833,3068.017,
222.922,3020.5122,
220.012,3015.4123,
217.101,3006.88,
214.191,2977.4568,
211.280,2903.2556,
208.369,2874.8744,
205.459,2881.7163,
202.548,2912.6358,
199.638,2935.1309,
196.727,2931.1068,
193.816,2905.7856,
190.906,2863.2737,
187.995,2906.7152,
185.085,2893.3787,
182.174,2849.6052,
179.264,2804.7937,
176.353,2827.9443,
173.442,2840.487,
170.532,2832.1458,
167.621,2809.7955,
164.711,2773.7926,
161.800,2701.2836,
158.890,2568.1339,
155.979,2407.6898,
153.068,2215.2644,
150.158,1989.8226,
147.247,1719.8725,
144.337,1410.4852,
141.426,1100.883,
138.516,809.1083,
135.605,595.4911,
132.694,409.15343,
129.784,258.14059,
126.873,178.04605,
123.963,124.76044,
121.052,87.401456,
118.141,63.84269,
115.231,51.670304,
112.320,39.124553,
109.410,29.022711,
106.499,30.447021,
103.589,30.189746,
100.678,28.391891,
97.767,24.837204,
94.857,26.135978,
91.946,25.137557,
89.036,21.846817,
86.125,16.173175,
83.215,16.873681,
80.304,17.313404,
77.393,13.064384,
74.483,16.025675,
71.572,16.300592,
68.662,13.403663,
65.751,9.8714071,
62.840,8.268298,
59.930,5.6898518,
57.019,-2.06605,
54.109,5.7074127,
51.198,11.75,
48.288,11.766987,
45.377,13.877122,
42.466,13.513342,
39.556,11.404644,
36.645,9.2980736,
33.735,10.826994,
30.824,13.191774,
27.914,14.594124,
25.003,15.995275,
22.092,18.687427,
19.182,23.139009,
16.271,35.030341,
13.361,116.87681,
10.450,303.03676,
7.539,769.51142,
4.629,1148.9125,
1.718,1340.0754,
-1.192,1174.8521,
-4.103,666.39907,
-7.013,245.34217,
-9.924,1.75,
