,PLEA86~1,
Wavenumbers [1/cm],Intensity,
3014.167,-1.125,
3011.256,0.075042947,
3008.346,13.158557,
3005.435,-1.2769411,
3002.525,7.875,
2999.614,2.0633181,
2996.704,7.2378861,
2993.793,2.7419359,
2990.882,8.3101175,
2987.972,7.8245503,
2985.061,1.8651529,
2982.151,6.875,
2979.240,13.975765,
2976.329,11.37773,
2973.419,26.475258,
2970.508,20.191644,
2967.598,11.253715,
2964.687,8.9042113,
2961.777,5.3791261,
2958.866,22.209323,
2955.955,14.045363,
2953.045,22.691554,
2950.134,17.023678,
2947.224,6.5297828,
2944.313,27.077279,
2941.403,30.089415,
2938.492,28.736791,
2935.581,29.466414,
2932.671,27.196906,
2929.760,29.924989,
2926.850,27.665977,
2923.939,33.477825,
2921.028,40.828112,
2918.118,28.315808,
2915.207,23.102702,
2912.297,34.790374,
2909.386,34.473541,
2906.476,28.231749,
2903.565,30.875,
2900.654,35.157096,
2897.744,37.862428,
2894.833,41.823362,
2891.923,55.362203,
2889.012,41.533961,
2886.102,47.54529,
2883.191,50.859896,
2880.280,116.70755,
2877.370,103.49141,
2874.459,94.409521,
2871.549,55.71677,
2868.638,31.056446,
2865.727,31.136551,
2862.817,28.060827,
2859.906,25.268155,
2856.996,40.39085,
2854.085,60.641849,
2851.175,32.612954,
2848.264,35.085832,
2845.353,25.522011,
2842.443,46.489622,
2839.532,36.979459,
2836.622,46.206382,
2833.711,35.823193,
2830.801,44.766915,
2827.890,34.649508,
2824.979,41.961075,
2822.069,40.988721,
2819.158,47.074457,
2816.248,46.851841,
2813.337,59.51403,
2810.427,40.271702,
2807.516,34.241875,
2804.605,50.262018,
2801.695,40.519722,
2798.784,45.987923,
2795.874,43.439635,
2792.963,35.731805,
2790.052,31.874142,
2787.142,27.349002,
2784.231,38.166954,
2781.321,39.000721,
2778.410,44.194791,
2775.500,40.45052,
2772.589,40.452215,
2769.678,43.482515,
2766.768,44.309955,
2763.857,44.295037,
2760.947,41.409673,
2758.036,38.403611,
2755.126,46.157054,
2752.215,48.429454,
2749.304,47.981108,
2746.394,35.415294,
2743.483,53.674963,
2740.573,56.43914,
2737.662,44.194531,
2734.751,38.782708,
2731.841,63.281601,
2728.930,42.917274,
2726.020,52.98206,
2723.109,50.761583,
2720.199,55.190793,
2717.288,47.732678,
2714.377,55.779259,
2711.467,48.317853,
2708.556,38.917526,
2705.646,42.410218,
2702.735,65.550264,
2699.825,61.158585,
2696.914,64.875477,
2694.003,57.774185,
2691.093,58.517606,
2688.182,54.929815,
2685.272,63.237732,
2682.361,58.239629,
2679.450,62.582816,
2676.540,49.017269,
2673.629,56.87051,
2670.719,64.655965,
2667.808,62.166814,
2664.898,58.472274,
2661.987,59.641545,
2659.076,67.967663,
2656.166,58.875,
2653.255,62.244049,
2650.345,61.954854,
2647.434,51.732388,
2644.524,59.330628,
2641.613,63.732323,
2638.702,61.953905,
2635.792,53.060452,
2632.881,67.142886,
2629.971,54.532649,
2627.060,59.540627,
2624.149,63.281256,
2621.239,69.898716,
2618.328,46.086936,
2615.418,53.19773,
2612.507,63.459959,
2609.597,57.793163,
2606.686,68.511541,
2603.775,60.954364,
2600.865,70.342613,
2597.954,57.737453,
2595.044,74.875,
2592.133,58.365279,
2589.223,72.839233,
2586.312,74.241819,
2583.401,73.243588,
2580.491,71.860555,
2577.580,68.865098,
2574.670,62.321526,
2571.759,69.683214,
2568.848,71.112539,
2565.938,76.636851,
2563.027,73.62961,
2560.117,57.146031,
2557.206,77.764296,
2554.296,79.158753,
2551.385,73.941031,
2548.474,95.467941,
2545.564,77.698044,
2542.653,85.34815,
2539.743,87.985904,
2536.832,73.589016,
2533.922,93.67,
2531.011,80.325047,
2528.100,70.87846,
2525.190,85.220489,
2522.279,86.64051,
2519.369,80.667526,
2516.458,67.86792,
2513.548,75.247512,
2510.637,77.412068,
2507.726,95.878705,
2504.816,83.749859,
2501.905,93.42561,
2498.995,76.591627,
2496.084,86.955134,
2493.173,76.032615,
2490.263,99.189172,
2487.352,96.4994,
2484.442,87.020613,
2481.531,84.34841,
2478.621,87.713877,
2475.710,107.77532,
2472.799,90.928855,
2469.889,82.268358,
2466.978,88.039928,
2464.068,96.536402,
2461.157,80.377438,
2458.247,93.860329,
2455.336,97.875,
2452.425,76.47875,
2449.515,96.714925,
2446.604,100.35663,
2443.694,78.805088,
2440.783,99.355858,
2437.872,95.09379,
2434.962,98.248276,
2432.051,94.288644,
2429.141,86.48691,
2426.230,98.701559,
2423.320,103.70321,
2420.409,107.90726,
2417.498,95.858153,
2414.588,92.517618,
2411.677,83.448733,
2408.767,97.357284,
2405.856,107.88445,
2402.946,106.39243,
2400.035,96.975938,
2397.124,113.77339,
2394.214,117.3066,
2391.303,98.620937,
2388.393,104.55178,
2385.482,108.91906,
2382.571,95.469081,
2379.661,112.71241,
2376.750,89.823301,
2373.840,97.8562,
2370.929,104.83168,
2368.019,108.91134,
2365.108,106.85144,
2362.197,108.68047,
2359.287,105.48001,
2356.376,123.84154,
2353.466,123.14904,
2350.555,100.71489,
2347.645,99.427313,
2344.734,97.934899,
2341.823,98.841834,
2338.913,124.43467,
2336.002,107.5831,
2333.092,112.74858,
2330.181,110.36605,
2327.270,122.15993,
2324.360,118.00943,
2321.449,119.52126,
2318.539,120.875,
2315.628,125.7571,
2312.718,120.80892,
2309.807,117.21657,
2306.896,122.88283,
2303.986,122.82952,
2301.075,118.25798,
2298.165,112.28836,
2295.254,102.06889,
2292.344,122.45173,
2289.433,125.16454,
2286.522,120.03566,
2283.612,127.94516,
2280.701,139.26063,
2277.791,132.3941,
2274.880,118.94904,
2271.969,115.35648,
2269.059,123.10934,
2266.148,114.66131,
2263.238,113.57384,
2260.327,131.56448,
2257.417,117.67055,
2254.506,135.13428,
2251.595,132.5987,
2248.685,136.65957,
2245.774,133.66633,
2242.864,131.13435,
2239.953,135.10258,
2237.043,134.70607,
2234.132,137.83082,
2231.221,142.5856,
2228.311,135.0464,
2225.400,149.5654,
2222.490,136.46127,
2219.579,136.47402,
2216.669,148.41554,
2213.758,135.96127,
2210.847,127.42665,
2207.937,142.1828,
2205.026,141.54118,
2202.116,151.99072,
2199.205,150.06206,
2196.294,151.56902,
2193.384,143.033,
2190.473,145.30693,
2187.563,159.92334,
2184.652,168.36888,
2181.742,154.85165,
2178.831,148.59098,
2175.920,160.53803,
2173.010,166.05017,
2170.099,153.00992,
2167.189,182.8463,
2164.278,180.78254,
2161.368,195.87452,
2158.457,193.16619,
2155.546,184.28367,
2152.636,185.30055,
2149.725,185.37164,
2146.815,189.74152,
2143.904,202.67797,
2140.993,203.58936,
2138.083,193.45245,
2135.172,211.3792,
2132.262,211.50088,
2129.351,202.0577,
2126.441,213.89446,
2123.530,208.03214,
2120.619,219.26043,
2117.709,202.08394,
2114.798,188.60949,
2111.888,183.68694,
2108.977,195.23924,
2106.067,175.91556,
2103.156,180.43302,
2100.245,160.87688,
2097.335,167.48756,
2094.424,186.21582,
2091.514,169.74066,
2088.603,175.33126,
2085.692,170.6036,
2082.782,169.63406,
2079.871,164.58912,
2076.961,186.32513,
2074.050,185.5053,
2071.140,196.10503,
2068.229,183.33725,
2065.318,183.82651,
2062.408,200.85987,
2059.497,201.875,
2056.587,196.20067,
2053.676,193.875,
2050.766,192.95198,
2047.855,177.0174,
2044.944,180.94391,
2042.034,170.60905,
2039.123,169.79756,
2036.213,185.58829,
2033.302,201.0485,
2030.391,205.84159,
2027.481,203.31396,
2024.570,202.50366,
2021.660,177.41236,
2018.749,217.15318,
2015.839,196.31922,
2012.928,186.08138,
2010.017,195.51234,
2007.107,171.45631,
2004.196,181.62504,
2001.286,200.33435,
1998.375,195.437,
1995.465,208.18036,
1992.554,197.97513,
1989.643,188.15151,
1986.733,187.875,
1983.822,190.9784,
1980.912,207.36985,
1978.001,194.79893,
1975.090,195.43837,
1972.180,191.53194,
1969.269,180.36641,
1966.359,178.44246,
1963.448,180.44964,
1960.538,192.61312,
1957.627,177.04217,
1954.716,187.50155,
1951.806,204.88144,
1948.895,184.0896,
1945.985,177.7982,
1943.074,190.21834,
1940.164,171.41365,
1937.253,188.5967,
1934.342,189.36217,
1931.432,190.18415,
1928.521,201.61593,
1925.611,196.7842,
1922.700,209.49516,
1919.790,170.8119,
1916.879,177.82876,
1913.968,161.8959,
1911.058,222.95007,
1908.147,206.8195,
1905.237,184.09557,
1902.326,174.72092,
1899.415,165.11278,
1896.505,139.57385,
1893.594,149.60062,
1890.684,148.74431,
1887.773,156.42643,
1884.863,166.78844,
1881.952,164.38753,
1879.041,165.14447,
1876.131,178.09068,
1873.220,174.77321,
1870.310,203.57898,
1867.399,208.82702,
1864.489,187.18655,
1861.578,194.1278,
1858.667,183.50077,
1855.757,166.86426,
1852.846,176.86475,
1849.936,168.75889,
1847.025,150.82149,
1844.114,159.06334,
1841.204,213.18968,
1838.293,218.37916,
1835.383,198.38702,
1832.472,197.515,
1829.562,204.31979,
1826.651,188.51567,
1823.740,200.80224,
1820.830,193.98511,
1817.919,186.61749,
1815.009,191.86864,
1812.098,186.59154,
1809.188,228.0842,
1806.277,200.56109,
1803.366,218.20955,
1800.456,179.91919,
1797.545,200.9174,
1794.635,230.617,
1791.724,228.04977,
1788.813,223.07397,
1785.903,219.40601,
1782.992,230.48309,
1780.082,247.70304,
1777.171,181.52755,
1774.261,170.48584,
1771.350,219.52574,
1768.439,214.51759,
1765.529,251.78332,
1762.618,254.12189,
1759.708,234.28777,
1756.797,234.76894,
1753.887,242.07908,
1750.976,249.33376,
1748.065,258.57393,
1745.155,260.34594,
1742.244,255.5915,
1739.334,237.49618,
1736.423,259.13664,
1733.512,273.05793,
1730.602,270.88293,
1727.691,292.13716,
1724.781,305.16761,
1721.870,308.48453,
1718.960,294.07482,
1716.049,264.02781,
1713.138,293.07483,
1710.228,305.83738,
1707.317,262.64643,
1704.407,287.4205,
1701.496,305.45976,
1698.586,317.03883,
1695.675,319.74642,
1692.764,271.59219,
1689.854,246.87105,
1686.943,282.59343,
1684.033,290.70115,
1681.122,319.38222,
1678.211,316.90355,
1675.301,343.79175,
1672.390,309.86304,
1669.480,305.98731,
1666.569,320.01465,
1663.659,331.39764,
1660.748,362.64362,
1657.837,351.31239,
1654.927,370.73443,
1652.016,364.14603,
1649.106,334.72811,
1646.195,330.02587,
1643.285,376.66992,
1640.374,367.89591,
1637.463,369.09117,
1634.553,381.20011,
1631.642,403.23331,
1628.732,435.81575,
1625.821,425.88481,
1622.911,440.79047,
1620.000,431.98839,
1617.089,476.95957,
1614.179,520.63416,
1611.268,532.46604,
1608.358,541.45359,
1605.447,589.01824,
1602.536,603.98953,
1599.626,651.79158,
1596.715,655.875,
1593.805,613.8414,
1590.894,622.96572,
1587.984,669.91179,
1585.073,568.82127,
1582.162,584.10533,
1579.252,595.78481,
1576.341,594.47181,
1573.431,588.39278,
1570.520,546.36302,
1567.610,545.05164,
1564.699,532.92434,
1561.788,545.18468,
1558.878,572.67513,
1555.967,536.9498,
1553.057,503.03028,
1550.146,491.95865,
1547.235,489.46533,
1544.325,510.23415,
1541.414,517.77414,
1538.504,520.63725,
1535.593,506.99002,
1532.683,486.09076,
1529.772,485.56257,
1526.861,479.07034,
1523.951,483.83853,
1521.040,499.6987,
1518.130,532.68608,
1515.219,577.51525,
1512.309,556.48757,
1509.398,519.94913,
1506.487,518.8044,
1503.577,500.2836,
1500.666,526.99425,
1497.756,535.26475,
1494.845,526.27413,
1491.934,487.90965,
1489.024,498.49707,
1486.113,540.5997,
1483.203,484.36777,
1480.292,464.14733,
1477.382,519.26062,
1474.471,496.80819,
1471.560,463.37935,
1468.650,421.39459,
1465.739,449.42833,
1462.829,479.24636,
1459.918,481.77002,
1457.008,484.42889,
1454.097,481.40479,
1451.186,490.92529,
1448.276,479.08498,
1445.365,418.83945,
1442.455,421.96828,
1439.544,424.65066,
1436.633,420.55425,
1433.723,405.12425,
1430.812,404.65852,
1427.902,378.70153,
1424.991,455.47029,
1422.081,400.99142,
1419.170,413.15621,
1416.259,426.40582,
1413.349,425.85404,
1410.438,418.57698,
1407.528,428.74983,
1404.617,457.59875,
1401.707,427.83006,
1398.796,367.57785,
1395.885,371.33191,
1392.975,401.43719,
1390.064,406.71079,
1387.154,463.09072,
1384.243,494.87407,
1381.332,469.54702,
1378.422,455.30043,
1375.511,385.97864,
1372.601,399.62013,
1369.690,403.44667,
1366.780,413.37942,
1363.869,420.23386,
1360.958,436.39976,
1358.048,461.08104,
1355.137,485.49142,
1352.227,481.77687,
1349.316,475.9287,
1346.406,511.79854,
1343.495,535.66765,
1340.584,501.73194,
1337.674,518.30543,
1334.763,546.59272,
1331.853,539.17487,
1328.942,538.875,
1326.032,556.00303,
1323.121,545.79668,
1320.210,573.50512,
1317.300,581.61175,
1314.389,605.16724,
1311.479,618.45763,
1308.568,595.9239,
1305.657,604.88958,
1302.747,663.46555,
1299.836,727.8381,
1296.926,692.1741,
1294.015,698.60937,
1291.105,687.42796,
1288.194,707.44106,
1285.283,677.79085,
1282.373,693.61708,
1279.462,709.77698,
1276.552,714.9144,
1273.641,720.73618,
1270.731,724.46157,
1267.820,737.04404,
1264.909,726.01707,
1261.999,669.64062,
1259.088,690.6194,
1256.178,703.86539,
1253.267,669.04962,
1250.356,665.32479,
1247.446,692.34409,
1244.535,697.97324,
1241.625,678.39725,
1238.714,672.10224,
1235.804,691.11768,
1232.893,708.00289,
1229.982,695.51894,
1227.072,714.53049,
1224.161,707.46996,
1221.251,698.42991,
1218.340,684.8622,
1215.430,687.68357,
1212.519,696.68604,
1209.608,684.69997,
1206.698,657.59837,
1203.787,656.67903,
1200.877,670.14765,
1197.966,642.27372,
1195.055,657.93997,
1192.145,677.40455,
1189.234,715.96341,
1186.324,755.14977,
1183.413,757.85975,
1180.503,765.51819,
1177.592,811.36981,
1174.681,785.94692,
1171.771,758.38047,
1168.860,736.94632,
1165.950,748.58192,
1163.039,749.77979,
1160.129,739.43732,
1157.218,749.70076,
1154.307,755.63117,
1151.397,737.48179,
1148.486,751.61855,
1145.576,788.71857,
1142.665,762.08119,
1139.754,771.2658,
1136.844,742.36137,
1133.933,741.19163,
1131.023,736.18422,
1128.112,738.72955,
1125.202,772.56582,
1122.291,773.98954,
1119.380,746.90098,
1116.470,749.54857,
1113.559,732.86352,
1110.649,715.43293,
1107.738,721.73463,
1104.828,739.11649,
1101.917,741.95759,
1099.006,727.52449,
1096.096,726.78881,
1093.185,741.71485,
1090.275,744.49354,
1087.364,755.85297,
1084.453,759.18761,
1081.543,745.16659,
1078.632,736.70986,
1075.722,758.20039,
1072.811,777.12321,
1069.901,780.61625,
1066.990,766.32503,
1064.079,760.15294,
1061.169,769.36872,
1058.258,778.29849,
1055.348,771.52604,
1052.437,749.77529,
1049.527,730.25122,
1046.616,765.87323,
1043.705,759.08429,
1040.795,751.40547,
1037.884,766.57582,
1034.974,779.77835,
1032.063,770.72892,
1029.153,763.97886,
1026.242,764.84382,
1023.331,750.70924,
1020.421,782.03297,
1017.510,796.875,
1014.600,803.64188,
1011.689,811.44965,
1008.778,812.12672,
1005.868,836.458,
1002.957,789.99887,
1000.047,825.82702,
997.136,845.39895,
994.226,856.79794,
991.315,868.48391,
988.404,859.82292,
985.494,808.20106,
982.583,822.76252,
979.673,825.60665,
976.762,824.7008,
973.852,834.48325,
970.941,833.64873,
968.030,798.82296,
965.120,792.97166,
962.209,815.9903,
959.299,824.83274,
956.388,829.67482,
953.477,831.05295,
950.567,837.97913,
947.656,861.32064,
944.746,864.71887,
941.835,846.24929,
938.925,851.0877,
936.014,872.06143,
933.103,879.75383,
930.193,861.47913,
927.282,848.8374,
924.372,866.59514,
921.461,861.511,
918.551,853.06567,
915.640,842.0759,
912.729,839.85226,
909.819,860.09825,
906.908,869.36493,
903.998,857.94454,
901.087,838.96234,
898.176,837.51012,
895.266,847.1446,
892.355,846.7338,
889.445,829.94846,
886.534,855.75603,
883.624,870.96748,
880.713,879.95785,
877.802,884.91717,
874.892,882.27883,
871.981,859.82329,
869.071,772.94035,
866.160,757.18504,
863.250,799.33543,
860.339,842.17069,
857.428,858.10128,
854.518,892.538,
851.607,880.88902,
848.697,868.55774,
845.786,856.09051,
842.875,849.92365,
839.965,862.47238,
837.054,911.16341,
834.144,936.85473,
831.233,965.20665,
828.323,954.61927,
825.412,936.38248,
822.501,944.83242,
819.591,939.04763,
816.680,936.47115,
813.770,937.12801,
810.859,913.508,
807.949,894.62383,
805.038,922.77544,
802.127,921.95231,
799.217,912.93031,
796.306,893.41542,
793.396,889.82929,
790.485,909.77125,
787.574,931.78159,
784.664,929.32125,
781.753,932.22992,
778.843,950.04772,
775.932,960.70226,
773.022,946.6214,
770.111,944.98625,
767.200,954.77206,
764.290,960.18651,
761.379,967.78301,
758.469,970.38773,
755.558,946.84752,
752.648,979.43166,
749.737,987.18058,
746.826,988.34122,
743.916,1007.0246,
741.005,1064.0543,
738.095,1154.1726,
735.184,1209.2087,
732.274,1180.596,
729.363,1101.2172,
726.452,1021.1741,
723.542,989.60774,
720.631,977.17145,
717.721,983.61337,
714.810,1015.6192,
711.899,1044.9641,
708.989,998.16243,
706.078,985.05415,
703.168,978.8389,
700.257,981.00072,
697.347,982.52763,
694.436,967.09322,
691.525,975.13127,
688.615,971.84371,
685.704,973.62363,
682.794,979.64096,
679.883,981.00156,
676.973,1028.2824,
674.062,1012.9898,
671.151,1008.5183,
668.241,1013.2511,
665.330,988.34558,
662.420,977.16333,
659.509,973.60514,
656.598,988.454,
653.688,1018.3067,
650.777,1050.28,
647.867,1062.225,
644.956,1050.0154,
642.046,1011.4385,
639.135,963.37712,
636.224,938.97447,
633.314,958.82293,
630.403,979.24648,
627.493,999.86094,
624.582,1017.111,
621.672,1022.655,
618.761,1031.9943,
615.850,1046.9967,
612.940,1059.6073,
610.029,1062.113,
607.119,1045.5308,
604.208,1055.2352,
601.297,1079.3172,
598.387,1089.7028,
595.476,1064.5723,
592.566,1040.1732,
589.655,1079.9315,
586.745,1093.8937,
583.834,1079.9967,
580.923,1076.9935,
578.013,1096.6118,
575.102,1071.4748,
572.192,1068.5256,
569.281,1103.3126,
566.371,1100.1821,
563.460,1099.1695,
560.549,1109.5951,
557.639,1116.0409,
554.728,1104.4517,
551.818,1129.4218,
548.907,1115.3738,
545.996,1098.9871,
543.086,1090.8618,
540.175,1081.5181,
537.265,1061.3195,
534.354,1072.4376,
531.444,1083.3512,
528.533,1066.9652,
525.622,1110.4183,
522.712,1090.7508,
519.801,1062.328,
516.891,1048.9096,
513.980,1058.9754,
511.070,1040.8576,
508.159,1071.0803,
505.248,1106.1152,
502.338,1085.4909,
499.427,1072.3698,
496.517,1087.5416,
493.606,1109.2778,
490.695,1122.9121,
487.785,1115.984,
484.874,1097.427,
481.964,1087.0444,
479.053,1085.6911,
476.143,1084.9232,
473.232,1075.5228,
470.321,1060.6837,
467.411,1047.3554,
464.500,1043.2629,
461.590,1058.5777,
458.679,1084.3365,
455.769,1099.3545,
452.858,1096.7383,
449.947,1124.2398,
447.037,1100.7505,
444.126,1092.9659,
441.216,1106.0543,
438.305,1072.5293,
435.395,1088.1997,
432.484,1097.6247,
429.573,1091.7925,
426.663,1074.3092,
423.752,1065.2034,
420.842,1050.4579,
417.931,987.96359,
415.020,815.81629,
412.110,898.40019,
409.199,987.10966,
406.289,1060.1418,
403.378,1103.8391,
400.468,1093.2552,
397.557,1067.7666,
394.646,1079.4658,
391.736,1168.8891,
388.825,1200.5668,
385.915,1211.4716,
383.004,1199.74,
380.094,1164.4949,
377.183,1117.8413,
374.272,1108.1317,
371.362,1115.8786,
368.451,1126.0969,
365.541,1096.826,
362.630,1129.843,
359.719,1143.7492,
356.809,1095.5578,
353.898,1090.3162,
350.988,1131.7315,
348.077,1144.0615,
345.167,1086.6697,
342.256,1102.3581,
339.345,1095.1835,
336.435,1100.6978,
333.524,1141.3583,
330.614,1124.9648,
327.703,1131.6833,
324.793,1146.4841,
321.882,1156.8353,
318.971,1140.4796,
316.061,1152.4543,
313.150,1170.644,
310.240,1169.9019,
307.329,1187.7409,
304.418,1188.4917,
301.508,1206.4751,
298.597,1302.7293,
295.687,1325.097,
292.776,1335.625,
289.866,1329.1982,
286.955,1273.7938,
284.044,1274.73,
281.134,1287.651,
278.223,1296.2404,
275.313,1264.5556,
272.402,1293.891,
269.492,1330.3311,
266.581,1347.5148,
263.670,1272.5264,
260.760,1286.3971,
257.849,1321.9545,
254.939,1330.7611,
252.028,1326.5319,
249.117,1320.7636,
246.207,1315.875,
243.296,1315.875,
240.386,1314.569,
237.475,1326.5532,
234.565,1344.5743,
231.654,1329.9666,
228.743,1309.614,
225.833,1281.3253,
222.922,1246.9622,
220.012,1270.2759,
217.101,1278.3657,
214.191,1271.2254,
211.280,1245.7642,
208.369,1272.806,
205.459,1257.7297,
202.548,1219.5157,
199.638,1252.1699,
196.727,1236.9788,
193.816,1238.6353,
190.906,1275.4055,
187.995,1147.9772,
185.085,1166.7648,
182.174,1223.1632,
179.264,1172.5695,
176.353,1141.8846,
173.442,1138.3892,
170.532,1152.2546,
167.621,1112.601,
164.711,1059.8296,
161.800,989.43407,
158.890,894.43003,
155.979,813.18727,
153.068,736.30351,
150.158,658.50724,
147.247,562.30164,
144.337,470.05481,
141.426,372.92125,
138.516,266.10445,
135.605,194.7887,
132.694,140.02227,
129.784,97.070295,
126.873,57.023024,
123.963,35.217317,
121.052,20.342372,
118.141,8.9199405,
115.231,7.4538593,
112.320,10.264087,
109.410,14.738645,
106.499,14.02649,
103.589,7.1519463,
100.678,2.4182434,
97.767,3.8401186,
94.857,3.182011,
91.946,4.8905544,
89.036,8.2136937,
86.125,10.34131,
83.215,9.2822389,
80.304,4.7623751,
77.393,-4.4438341,
74.483,1.4263496,
71.572,4.5126479,
68.662,3.59793,
65.751,0.77212569,
62.840,1.320106,
59.930,2.5004276,
57.019,1.0902636,
54.109,-3.9022868,
51.198,-4.7121258,
48.288,0.86367512,
45.377,-0.54308102,
42.466,-2.361658,
39.556,-4.0098814,
36.645,-3.3076912,
33.735,-1.5672546,
30.824,-1.0085479,
27.914,-3.8132489,
25.003,-5.370275,
22.092,-6.125,
19.182,-6.0563514,
16.271,-3.957881,
13.361,-6.4966638,
10.450,-52.470277,
7.539,-292.69076,
4.629,-718.61778,
1.718,-1118.5661,
-1.192,-1312.3723,
-4.103,-1019.3139,
-7.013,-566.95481,
-9.924,-1.125,
