,PL0AD7~1,
Wavenumbers [1/cm],Intensity,
3014.167,-3,
3011.256,2.8999785,
3008.346,32.769049,
3005.435,17.38516,
3002.525,22.377517,
2999.614,27.138973,
2996.704,27.867012,
2993.793,28.009216,
2990.882,28.343472,
2987.972,28.914236,
2985.061,19.980306,
2982.151,35.284038,
2979.240,34.748086,
2976.329,44.248635,
2973.419,49.922978,
2970.508,58.316644,
2967.598,28.525703,
2964.687,40.910326,
2961.777,35.752063,
2958.866,41.334323,
2955.955,44.553092,
2953.045,37.651015,
2950.134,45,
2947.224,43.398563,
2944.313,54.752849,
2941.403,48.523723,
2938.492,49.298109,
2935.581,58.521465,
2932.671,60.442079,
2929.760,64.584605,
2926.850,59.947744,
2923.939,56.560753,
2921.028,67.870728,
2918.118,55.198991,
2915.207,45.82277,
2912.297,66.906911,
2909.386,70.408756,
2906.476,54.651711,
2903.565,65.742224,
2900.654,63.446912,
2897.744,57.924567,
2894.833,53.23709,
2891.923,61.487203,
2889.012,43.537573,
2886.102,59.416214,
2883.191,40.019824,
2880.280,39.78469,
2877.370,-70.453139,
2874.459,-126.12568,
2871.549,-76.315398,
2868.638,16.733963,
2865.727,27.207715,
2862.817,36.943834,
2859.906,42.569799,
2856.996,54.466035,
2854.085,85.766849,
2851.175,69,
2848.264,60.00967,
2845.353,54.280371,
2842.443,65.402785,
2839.532,68.432803,
2836.622,53.882159,
2833.711,71.57771,
2830.801,67.60441,
2827.890,81.561177,
2824.979,73.716009,
2822.069,80.090977,
2819.158,83.059294,
2816.248,66.034738,
2813.337,96.803676,
2810.427,65.911844,
2807.516,69.683437,
2804.605,81.225965,
2801.695,82.039466,
2798.784,69.739231,
2795.874,71.129269,
2792.963,73.071168,
2790.052,82.996568,
2787.142,64.368617,
2784.231,73.645977,
2781.321,68.691463,
2778.410,76.925131,
2775.500,80.126894,
2772.589,78.461772,
2769.678,81.535838,
2766.768,76.941742,
2763.857,86.156067,
2760.947,76.534673,
2758.036,76.917167,
2755.126,82.429487,
2752.215,84.254598,
2749.304,74.915483,
2746.394,94.233823,
2743.483,97.900051,
2740.573,89.774344,
2737.662,85.309179,
2734.751,77.931905,
2731.841,88.567767,
2728.930,77.796566,
2726.020,86.224537,
2723.109,88.886583,
2720.199,88.862478,
2717.288,92.543796,
2714.377,91.25836,
2711.467,84.049446,
2708.556,76.691368,
2705.646,92.831017,
2702.735,87.502579,
2699.825,84.619978,
2696.914,95.19093,
2694.003,90.798369,
2691.093,95.856808,
2688.182,87.763704,
2685.272,99.088197,
2682.361,77.78821,
2679.450,89.617243,
2676.540,85.365833,
2673.629,94.704081,
2670.719,92.773577,
2667.808,88.632263,
2664.898,110.22082,
2661.987,104.59993,
2659.076,89.780181,
2656.166,103.16023,
2653.255,101.06973,
2650.345,94.96733,
2647.434,92.342955,
2644.524,100.24702,
2641.613,107.68573,
2638.702,116.85797,
2635.792,102.06082,
2632.881,105.18469,
2629.971,101.48995,
2627.060,102.00187,
2624.149,98.484359,
2621.239,103.7337,
2618.328,103.91523,
2615.418,103.32727,
2612.507,104.7589,
2609.597,110.35729,
2606.686,103.38956,
2603.775,103.55952,
2600.865,104.29352,
2597.954,101.91037,
2595.044,114.38352,
2592.133,101.77706,
2589.223,106.34948,
2586.312,120.48744,
2583.401,117.55109,
2580.491,124.2596,
2577.580,108.9934,
2574.670,106.10695,
2571.759,115.05565,
2568.848,110.1215,
2565.938,130.04769,
2563.027,114.04777,
2560.117,103.27103,
2557.206,112.13653,
2554.296,124.51487,
2551.385,121.74395,
2548.474,140.33383,
2545.564,118.07629,
2542.653,138,
2539.743,133.55545,
2536.832,118.42803,
2533.922,116.23654,
2531.011,133.74977,
2528.100,131.93725,
2525.190,138.23033,
2522.279,129.9062,
2519.369,125.88692,
2516.458,126.00354,
2513.548,114.62749,
2510.637,138.87703,
2507.726,136.68773,
2504.816,129.24915,
2501.905,128.05793,
2498.995,139.41803,
2496.084,145.69338,
2493.173,136.15761,
2490.263,140.96612,
2487.352,130.6244,
2484.442,122.56959,
2481.531,130.31909,
2478.621,132.16112,
2475.710,154.86965,
2472.799,133.80722,
2469.889,123.90859,
2466.978,132.77314,
2464.068,132.12697,
2461.157,136.7651,
2458.247,127.10303,
2455.336,141.95695,
2452.425,138.65094,
2449.515,155.89604,
2446.604,146.9424,
2443.694,140.93009,
2440.783,144.47748,
2437.872,148.63535,
2434.962,139.26267,
2432.051,147.80261,
2429.141,153.86473,
2426.230,165.15251,
2423.320,162.4567,
2420.409,168.89767,
2417.498,163.95788,
2414.588,145.38796,
2411.677,140.60959,
2408.767,159.78248,
2405.856,174.56663,
2402.946,159.41019,
2400.035,150.79812,
2397.124,144.79678,
2394.214,162.244,
2391.303,167.39228,
2388.393,162.26743,
2385.482,155.26437,
2382.571,151.51921,
2379.661,138.41871,
2376.750,146.94324,
2373.840,155.29377,
2370.929,154,
2368.019,177.8436,
2365.108,167.07068,
2362.197,153.2219,
2359.287,160.37828,
2356.376,178.97182,
2353.466,179.48639,
2350.555,154.62991,
2347.645,161.06489,
2344.734,157.75574,
2341.823,155,
2338.913,177.40148,
2336.002,183.34916,
2333.092,178.96599,
2330.181,173.08947,
2327.270,160.9901,
2324.360,177.80659,
2321.449,181.06122,
2318.539,186.70338,
2315.628,191.1179,
2312.718,183.70044,
2309.807,198.40409,
2306.896,170.30674,
2303.986,191.12986,
2301.075,195.55317,
2298.165,199,
2295.254,192.1508,
2292.344,192.63069,
2289.433,190.62545,
2286.522,191.29455,
2283.612,206.83036,
2280.701,192.55609,
2277.791,190,
2274.880,187.43205,
2271.969,188.05762,
2269.059,192.82832,
2266.148,184,
2263.238,192.09652,
2260.327,195.06897,
2257.417,193.15334,
2254.506,197.35049,
2251.595,202.72736,
2248.685,205.99418,
2245.774,200.187,
2242.864,219.67582,
2239.953,215.22758,
2237.043,204.70037,
2234.132,186.44935,
2231.221,198.08016,
2228.311,203,
2225.400,221.88742,
2222.490,214.28656,
2219.579,209.62474,
2216.669,237.47377,
2213.758,220.8222,
2210.847,196.10329,
2207.937,215.06349,
2205.026,217.77726,
2202.116,227.80468,
2199.205,222.18706,
2196.294,225.94201,
2193.384,215.60549,
2190.473,210.42606,
2187.563,250.99517,
2184.652,246.83715,
2181.742,233.72786,
2178.831,241.92217,
2175.920,240.33151,
2173.010,265.20181,
2170.099,261.00148,
2167.189,254.19374,
2164.278,279.2392,
2161.368,275.85631,
2158.457,289.61098,
2155.546,294.52982,
2152.636,280.399,
2149.725,315.10735,
2146.815,324.96663,
2143.904,309.81039,
2140.993,330.57677,
2138.083,321.4711,
2135.172,336.45382,
2132.262,330.73416,
2129.351,324.75518,
2126.441,347.97094,
2123.530,335.91021,
2120.619,326.21108,
2117.709,312.8905,
2114.798,304.6692,
2111.888,291.77541,
2108.977,289.35762,
2106.067,272.5238,
2103.156,277.43786,
2100.245,247.01129,
2097.335,266.44502,
2094.424,273.64911,
2091.514,256.20693,
2088.603,252.06909,
2085.692,271.04827,
2082.782,272.34542,
2079.871,274.92882,
2076.961,284.4188,
2074.050,279.98182,
2071.140,264.50539,
2068.229,282.5573,
2065.318,266.85175,
2062.408,266.96974,
2059.497,278.61906,
2056.587,275.06993,
2053.676,270.18338,
2050.766,277.38415,
2047.855,267.25631,
2044.944,274.00481,
2042.034,261,
2039.123,276.6431,
2036.213,277.81321,
2033.302,265.45615,
2030.391,276.33925,
2027.481,279.92675,
2024.570,287.21417,
2021.660,279.53216,
2018.749,313.24019,
2015.839,291.17519,
2012.928,272.77013,
2010.017,275.57112,
2007.107,276.71961,
2004.196,284.38101,
2001.286,300.60424,
1998.375,297.52067,
1995.465,268.46875,
1992.554,266.25878,
1989.643,245.7604,
1986.733,265.64211,
1983.822,275.4483,
1980.912,265.31678,
1978.001,260.49165,
1975.090,274.52521,
1972.180,290.48406,
1969.269,274.86781,
1966.359,261.67552,
1963.448,275.45443,
1960.538,289.49208,
1957.627,289.21672,
1954.716,279.28727,
1951.806,270.95032,
1948.895,271.91293,
1945.985,282.75327,
1943.074,267.54992,
1940.164,263.80798,
1937.253,269.78297,
1934.342,255.57272,
1931.432,281.8959,
1928.521,279.41451,
1925.611,255.14302,
1922.700,278.28314,
1919.790,273.08107,
1916.879,251.46474,
1913.968,279.96311,
1911.058,307.55554,
1908.147,275.65696,
1905.237,289.02939,
1902.326,276.16444,
1899.415,264.00485,
1896.505,220.60843,
1893.594,234.99091,
1890.684,249.90198,
1887.773,256.24115,
1884.863,282.1344,
1881.952,304.15989,
1879.041,300.67861,
1876.131,293.11373,
1873.220,295.48674,
1870.310,306.21074,
1867.399,276.4958,
1864.489,275.31155,
1861.578,282.3462,
1858.667,276.58682,
1855.757,276.81146,
1852.846,270.03075,
1849.936,284.37238,
1847.025,272.11923,
1844.114,275.05886,
1841.204,305.33566,
1838.293,308.02661,
1835.383,301.29049,
1832.472,337.46609,
1829.562,329.5315,
1826.651,338.61599,
1823.740,331.80073,
1820.830,321.1417,
1817.919,324.88626,
1815.009,306.30662,
1812.098,329.92912,
1809.188,335.81395,
1806.277,286.12872,
1803.366,341.90201,
1800.456,280.13256,
1797.545,333.72342,
1794.635,331.90301,
1791.724,339.15532,
1788.813,345.20026,
1785.903,339.66865,
1782.992,316.85394,
1780.082,296.23814,
1777.171,211.30618,
1774.261,140.29561,
1771.350,225.84726,
1768.439,300.68431,
1765.529,349.00282,
1762.618,371.83126,
1759.708,352.47802,
1756.797,347.82576,
1753.887,376.97522,
1750.976,379.33443,
1748.065,359.25346,
1745.155,384.49008,
1742.244,389.43299,
1739.334,368.30589,
1736.423,398.74014,
1733.512,375.43485,
1730.602,407.37705,
1727.691,415.32339,
1724.781,430.30468,
1721.870,402.00457,
1718.960,416.20027,
1716.049,403.38153,
1713.138,419.6649,
1710.228,413.42673,
1707.317,423.49943,
1704.407,437.57756,
1701.496,427.14988,
1698.586,429.69594,
1695.675,461.81409,
1692.764,413.82374,
1689.854,416.74016,
1686.943,430.52784,
1684.033,429.04967,
1681.122,477.16737,
1678.211,447.29504,
1675.301,512.79649,
1672.390,434.06879,
1669.480,457.16846,
1666.569,478.66019,
1663.659,529.60802,
1660.748,506.59773,
1657.837,536.84691,
1654.927,530.04686,
1652.016,531.9028,
1649.106,527.63278,
1646.195,514.34268,
1643.285,568.84049,
1640.374,561.91638,
1637.463,558.90073,
1634.553,608.60589,
1631.642,648.71769,
1628.732,623.11851,
1625.821,643.02552,
1622.911,681.78023,
1620.000,691.87401,
1617.089,755.70646,
1614.179,765.74619,
1611.268,813.17828,
1608.358,874.09697,
1605.447,940.17194,
1602.536,926.29414,
1599.626,980.19597,
1596.715,957.77196,
1593.805,955.89433,
1590.894,937.50593,
1587.984,960.11667,
1585.073,925.71324,
1582.162,942.37681,
1579.252,904.44834,
1576.341,882.98405,
1573.431,904.2784,
1570.520,850.61421,
1567.610,860.31416,
1564.699,825.77318,
1561.788,790.69032,
1558.878,828.74513,
1555.967,804.41413,
1553.057,783.5517,
1550.146,774.55275,
1547.235,743.20629,
1544.325,758.23532,
1541.414,786.24034,
1538.504,771.53071,
1535.593,746.23554,
1532.683,748.94425,
1529.772,756.96259,
1526.861,734.9185,
1523.951,738.22684,
1521.040,783.79599,
1518.130,803.59395,
1515.219,826.72002,
1512.309,808.6576,
1509.398,757.7186,
1506.487,764.36219,
1503.577,765.41219,
1500.666,760.88075,
1497.756,753.37305,
1494.845,768.55921,
1491.934,733.92126,
1489.024,709.85894,
1486.113,736.81647,
1483.203,743.44084,
1480.292,731.27233,
1477.382,758.09693,
1474.471,725.86367,
1471.560,726.33632,
1468.650,703.66905,
1465.739,701.88833,
1462.829,701.43501,
1459.918,717.44216,
1457.008,729.43071,
1454.097,723.15137,
1451.186,722.24758,
1448.276,707.39638,
1445.365,672.24882,
1442.455,643.51406,
1439.544,616.66581,
1436.633,656.47567,
1433.723,658.86029,
1430.812,688.56704,
1427.902,634.03729,
1424.991,677.63436,
1422.081,645.97082,
1419.170,676.69835,
1416.259,702.25158,
1413.349,657.90933,
1410.438,666.49229,
1407.528,695.02477,
1404.617,724.96236,
1401.707,684.41613,
1398.796,620.89514,
1395.885,608.54728,
1392.975,631.64653,
1390.064,665.53171,
1387.154,679.3742,
1384.243,695.79288,
1381.332,693.76262,
1378.422,718.83136,
1375.511,618.5958,
1372.601,659.39224,
1369.690,689.5739,
1366.780,665.48673,
1363.869,725.56236,
1360.958,725.91178,
1358.048,724.27292,
1355.137,747.24484,
1352.227,743.15675,
1349.316,773.71425,
1346.406,840.95027,
1343.495,800.53655,
1340.584,779.35641,
1337.674,829.25122,
1334.763,848.74099,
1331.853,868.21284,
1328.942,838.75822,
1326.032,855.39052,
1323.121,834.80721,
1320.210,827.99776,
1317.300,883.89158,
1314.389,906.06913,
1311.479,912.8445,
1308.568,934.53456,
1305.657,923,
1302.747,939.5796,
1299.836,1002.6658,
1296.926,985.7009,
1294.015,979.26563,
1291.105,991.32759,
1288.194,1003.3837,
1285.283,986.66792,
1282.373,1006.8436,
1279.462,1035.0782,
1276.552,1051.9685,
1273.641,1042.9177,
1270.731,1006.7672,
1267.820,986.16904,
1264.909,981.79109,
1261.999,973.63247,
1259.088,990.96277,
1256.178,1041.6745,
1253.267,1019.3122,
1250.356,984.26435,
1247.446,975.52036,
1244.535,969.08038,
1241.625,956.77038,
1238.714,962.89767,
1235.804,985.25244,
1232.893,980.49769,
1229.982,989.58946,
1227.072,947.94511,
1224.161,969.37461,
1221.251,931.56298,
1218.340,923.47812,
1215.430,926.44946,
1212.519,910.60618,
1209.608,888.10187,
1206.698,873.34024,
1203.787,854.58292,
1200.877,873.88856,
1197.966,872.09024,
1195.055,895.89096,
1192.145,964.61553,
1189.234,1000.9222,
1186.324,1024.2742,
1183.413,1033.467,
1180.503,1052.9451,
1177.592,1076.7672,
1174.681,1001.0137,
1171.771,1007.4849,
1168.860,985.15763,
1165.950,992.67547,
1163.039,991.50799,
1160.129,978.2029,
1157.218,977.69178,
1154.307,976.35334,
1151.397,963.12815,
1148.486,976.64556,
1145.576,1001.3039,
1142.665,962.23574,
1139.754,987.47701,
1136.844,985.59637,
1133.933,991.3841,
1131.023,972.03473,
1128.112,948.71346,
1125.202,963.10627,
1122.291,974.9973,
1119.380,968.1559,
1116.470,984.04141,
1113.559,955.07004,
1110.649,927.66432,
1107.738,918.53582,
1104.828,928.98639,
1101.917,932.9404,
1099.006,912.15456,
1096.096,927.37627,
1093.185,933.52229,
1090.275,977.70059,
1087.364,944.77426,
1084.453,950.31089,
1081.543,961.23558,
1078.632,960.02862,
1075.722,982,
1072.811,982.37231,
1069.901,987.61188,
1066.990,957.28341,
1064.079,964.29079,
1061.169,959.95398,
1058.258,984.03187,
1055.348,1011.0685,
1052.437,961.27648,
1049.527,928.40979,
1046.616,964.90062,
1043.705,978.24918,
1040.795,985.46953,
1037.884,966.75902,
1034.974,959.03479,
1032.063,973.13104,
1029.153,954.02401,
1026.242,1004.1915,
1023.331,971.00224,
1020.421,998.85507,
1017.510,1000.5534,
1014.600,993.38344,
1011.689,1000.2806,
1008.778,1008.639,
1005.868,1023.8378,
1002.957,1005.7704,
1000.047,1050.32,
997.136,1082.6831,
994.226,1105.046,
991.315,1116.9554,
988.404,1101.8935,
985.494,1060.1534,
982.583,1067.0059,
979.673,1019.7113,
976.762,1000.8258,
973.852,1024.7526,
970.941,1058.6674,
968.030,1060.1907,
965.120,1033.1969,
962.209,1080.0867,
959.299,1073.835,
956.388,1072.4797,
953.477,1069.0125,
950.567,1067.1041,
947.656,1092.6739,
944.746,1113.0632,
941.835,1125.3374,
938.925,1112.8648,
936.014,1116.1282,
933.103,1125.2345,
930.193,1113.81,
927.282,1079.8085,
924.372,1057.8227,
921.461,1049.8452,
918.551,1068.3327,
915.640,1065.5773,
912.729,1044.1469,
909.819,1052.8913,
906.908,1074.7944,
903.998,1072.8185,
901.087,1076.4555,
898.176,1067.0701,
895.266,1065.4264,
892.355,1082.9323,
889.445,1045.1653,
886.534,1100.1015,
883.624,1096.8705,
880.713,1099.1864,
877.802,1102.4417,
874.892,1069.5707,
871.981,967.08025,
869.071,843.43915,
866.160,804.75101,
863.250,928.0507,
860.339,1054.8754,
857.428,1077.9915,
854.518,1113.8095,
851.607,1038.0912,
848.697,967.22336,
845.786,922.83618,
842.875,947.24672,
839.965,1036.3936,
837.054,1093.6885,
834.144,1155.0161,
831.233,1192.3315,
828.323,1186.2063,
825.412,1166.3561,
822.501,1163.0638,
819.591,1152.3206,
816.680,1127.9615,
813.770,1121.3735,
810.859,1109.2677,
807.949,1098.8586,
805.038,1109.3982,
802.127,1112.6907,
799.217,1088.4021,
796.306,1061.2701,
793.396,1064.9086,
790.485,1089.6307,
787.574,1077.4671,
784.664,1089.7687,
781.753,1118.1684,
778.843,1141.2917,
775.932,1152,
773.022,1151.2392,
770.111,1146.3337,
767.200,1130.7738,
764.290,1114.4424,
761.379,1112.3019,
758.469,1123.8834,
755.558,1131.6808,
752.648,1154.4897,
749.737,1129.6245,
746.826,1136.8448,
743.916,1172.4936,
741.005,1206.1705,
738.095,1287.3582,
735.184,1318.4518,
732.274,1270.2031,
729.363,1191.0929,
726.452,1136.2924,
723.542,1137.9111,
720.631,1152.5262,
717.721,1144.3974,
714.810,1155.9374,
711.899,1183.9802,
708.989,1158.1586,
706.078,1178.0326,
703.168,1170.2484,
700.257,1155.8114,
697.347,1143.0874,
694.436,1129.4583,
691.525,1146.3382,
688.615,1138.6796,
685.704,1120.3443,
682.794,1111.3191,
679.883,1134.2347,
676.973,1183.9197,
674.062,1185.7049,
671.151,1180.1233,
668.241,1177.094,
665.330,1171,
662.420,1171,
659.509,1205.9212,
656.598,1222.9708,
653.688,1228.2017,
650.777,1257.4609,
647.867,1212.0702,
644.956,1205.7149,
642.046,1178.5635,
639.135,1134.0655,
636.224,1123.1751,
633.314,1158.1084,
630.403,1168.7736,
627.493,1190.74,
624.582,1212.1697,
621.672,1159.1061,
618.761,1175.2385,
615.850,1199.1826,
612.940,1231.0767,
610.029,1264.3946,
607.119,1266.7635,
604.208,1277.6502,
601.297,1296.9555,
598.387,1291.9357,
595.476,1241.7772,
592.566,1239.416,
589.655,1257.7888,
586.745,1271.9057,
583.834,1274.5846,
580.923,1266.1896,
578.013,1297.5789,
575.102,1273.3055,
572.192,1271.1516,
569.281,1304.9542,
566.371,1271.3014,
563.460,1287.0476,
560.549,1280.8689,
557.639,1277.2797,
554.728,1307.1131,
551.818,1293.0674,
548.907,1286.3435,
545.996,1292.9422,
543.086,1301.7994,
540.175,1277.6613,
537.265,1268.0329,
534.354,1277.0406,
531.444,1281.1976,
528.533,1263.3177,
525.622,1295.9074,
522.712,1287.8312,
519.801,1259.6698,
516.891,1237.6687,
513.980,1275.6092,
511.070,1295.9043,
508.159,1301.0897,
505.248,1286.2315,
502.338,1249.9203,
499.427,1315.526,
496.517,1308.6768,
493.606,1291.6825,
490.695,1297.9956,
487.785,1319.5497,
484.874,1292.6275,
481.964,1270.1861,
479.053,1262.5516,
476.143,1264.8555,
473.232,1280.1075,
470.321,1274.8087,
467.411,1276.4228,
464.500,1315.7867,
461.590,1307.3635,
458.679,1303.3491,
455.769,1299.1644,
452.858,1298.0107,
449.947,1346.1384,
447.037,1313.5268,
444.126,1304.1151,
441.216,1331.2959,
438.305,1309.9618,
435.395,1326.6691,
432.484,1333.666,
429.573,1320.1249,
426.663,1282.1179,
423.752,1149.9775,
420.842,974.80496,
417.931,809.08296,
415.020,724.90521,
412.110,945.87362,
409.199,1143.4033,
406.289,1272.3633,
403.378,1297.7208,
400.468,1215.3174,
397.557,1215.7358,
394.646,1271.7054,
391.736,1355.9658,
388.825,1386.135,
385.915,1381.6952,
383.004,1373.9976,
380.094,1384.7678,
377.183,1399.8173,
374.272,1385.0027,
371.362,1379.3015,
368.451,1402.5867,
365.541,1379.3201,
362.630,1368.6301,
359.719,1384.2379,
356.809,1427.6439,
353.898,1388.7064,
350.988,1389.3922,
348.077,1403.9369,
345.167,1414.3728,
342.256,1382.2489,
339.345,1398.5088,
336.435,1420.1672,
333.524,1417.3658,
330.614,1397.2466,
327.703,1417.1837,
324.793,1439.9377,
321.882,1433.9585,
318.971,1416.8594,
316.061,1410.0234,
313.150,1423.0881,
310.240,1468.3571,
307.329,1499.3001,
304.418,1534.2536,
301.508,1562,
298.597,1562,
295.687,1585.0262,
292.776,1591.4166,
289.866,1586.2455,
286.955,1592.1553,
284.044,1599.325,
281.134,1628.5499,
278.223,1668.7666,
275.313,1646.6609,
272.402,1644.9045,
269.492,1650.8022,
266.581,1651.5378,
263.670,1547.1422,
260.760,1572.3726,
257.849,1634.5482,
254.939,1667.5729,
252.028,1667.2762,
249.117,1687.1004,
246.207,1706.6436,
243.296,1689.8067,
240.386,1705.6308,
237.475,1721.5312,
234.565,1733.2654,
231.654,1741.2996,
228.743,1779.8236,
225.833,1774.3761,
222.922,1701.5288,
220.012,1734.3138,
217.101,1753.8329,
214.191,1753.6019,
211.280,1722.321,
208.369,1704.5253,
205.459,1693.4067,
202.548,1691.3844,
199.638,1710.9769,
196.727,1704.6281,
193.816,1695.7959,
190.906,1691.2478,
187.995,1641.2901,
185.085,1629.6743,
182.174,1638.5465,
179.264,1647.9424,
176.353,1624.6504,
173.442,1637.4667,
170.532,1674.5072,
167.621,1593.037,
164.711,1533.1591,
161.800,1438.5419,
158.890,1261.4889,
155.979,1166.0416,
153.068,1071.9167,
150.158,970.99064,
147.247,847.50285,
144.337,708.47214,
141.426,559.80623,
138.516,402.80705,
135.605,282.77362,
132.694,202.21386,
129.784,147.57168,
126.873,88.931035,
123.963,58.789756,
121.052,38.201059,
118.141,21.067411,
115.231,24.552852,
112.320,21.763641,
109.410,15.590934,
106.499,13.454469,
103.589,9.6384731,
100.678,5.9135132,
97.767,3.0697629,
94.857,5.0789671,
91.946,10.43422,
89.036,17,
86.125,17,
83.215,13.283558,
80.304,8.0845385,
77.393,2.419179,
74.483,0.034595126,
71.572,3.3482254,
68.662,10.238058,
65.751,2.4670956,
62.840,7.2255298,
59.930,13.127138,
57.019,6.0763182,
54.109,0.81987406,
51.198,-2,
48.288,-1.9830127,
45.377,0.12712153,
42.466,1,
39.556,0.88488142,
36.645,0.18269121,
33.735,0.51924847,
30.824,-0.54620882,
27.914,-5.4544355,
25.003,-8.4905499,
22.092,-9.3541909,
19.182,-8,
16.271,-8,
13.361,-21.908113,
10.450,-82.946226,
7.539,-326.65829,
4.629,-788.08656,
1.718,-1211.247,
-1.192,-1375.076,
-4.103,-1044.767,
-7.013,-570.22177,
-9.924,-3,
