,PL74D4~1,
Wavenumbers [1/cm],Intensity,
3014.167,-1.875,
3011.256,3.0249785,
3008.346,12.216295,
3005.435,5.626769,
3002.525,8.5774608,
2999.614,23.887336,
2996.704,22.443557,
2993.793,13.381912,
2990.882,16.598237,
2987.972,29.119955,
2985.061,18.371293,
2982.151,18.454422,
2979.240,16.657313,
2976.329,25.881825,
2973.419,36.601764,
2970.508,38.808356,
2967.598,14.981626,
2964.687,20.721467,
2961.777,26.501032,
2958.866,36.466747,
2955.955,26.642697,
2953.045,28.125,
2950.134,39.040475,
2947.224,25.950596,
2944.313,50.978988,
2941.403,34.088961,
2938.492,47.677837,
2935.581,41.237879,
2932.671,35.528465,
2929.760,46.709605,
2926.850,43.020489,
2923.939,39.325942,
2921.028,55.3899,
2918.118,48.14389,
2915.207,35.593311,
2912.297,56.02768,
2909.386,43.745432,
2906.476,31.164353,
2903.565,36.544259,
2900.654,44.242281,
2897.744,30.175289,
2894.833,30.413729,
2891.923,27.557701,
2889.012,25.535406,
2886.102,35.856092,
2883.191,-8.8391274,
2880.280,-17.401342,
2877.370,-125.03181,
2874.459,-217.11394,
2871.549,-153.42695,
2868.638,-24.957546,
2865.727,-9.0827148,
2862.817,13.968571,
2859.906,12.543793,
2856.996,36.636322,
2854.085,48.209059,
2851.175,44.146129,
2848.264,39.11533,
2845.353,29.448505,
2842.443,44.923607,
2839.532,44.572771,
2836.622,35.669922,
2833.711,49.428004,
2830.801,46.1397,
2827.890,55.228138,
2824.979,55.90296,
2822.069,50.147744,
2819.158,56.685652,
2816.248,54.412633,
2813.337,66.423788,
2810.427,53.602961,
2807.516,55.808437,
2804.605,65.30769,
2801.695,57.598675,
2798.784,40.233846,
2795.874,41.539229,
2792.963,51.267765,
2790.052,63.121997,
2787.142,55.138347,
2784.231,62.351724,
2781.321,43.565022,
2778.410,49.710026,
2775.500,55.251894,
2772.589,60.316899,
2769.678,55.517485,
2766.768,66.864819,
2763.857,51.072978,
2760.947,55.118696,
2758.036,56.666417,
2755.126,62.41346,
2752.215,60.443247,
2749.304,60.763494,
2746.394,66.891177,
2743.483,67.624931,
2740.573,62.494388,
2737.662,62.880924,
2734.751,48.683244,
2731.841,51.800825,
2728.930,55.451288,
2726.020,55.349537,
2723.109,52.692084,
2720.199,74.890706,
2717.288,58.774632,
2714.377,55.125,
2711.467,68.338186,
2708.556,60.433632,
2705.646,62.885581,
2702.735,67.627579,
2699.825,67.679536,
2696.914,68.363186,
2694.003,73.455086,
2691.093,68.821742,
2688.182,67.196851,
2685.272,71.045342,
2682.361,65.395742,
2679.450,64.495346,
2676.540,68.043704,
2673.629,62.13398,
2670.719,65.832953,
2667.808,65.368178,
2664.898,74.527726,
2661.987,67.691678,
2659.076,60.269402,
2656.166,70.237571,
2653.255,68.050171,
2650.345,71.693058,
2647.434,74.782045,
2644.524,69.580628,
2641.613,81.525379,
2638.702,74.345935,
2635.792,74.249628,
2632.881,72.50603,
2629.971,69.997489,
2627.060,67.790003,
2624.149,79.746877,
2621.239,75.870553,
2618.328,65.913064,
2615.418,64.443186,
2612.507,80.433266,
2609.597,73.410429,
2606.686,82.125,
2603.775,80.204364,
2600.865,79.654015,
2597.954,76.604141,
2595.044,80.508521,
2592.133,74.016769,
2589.223,94.065015,
2586.312,88.416477,
2583.401,84.165159,
2580.491,86.221162,
2577.580,71.111797,
2574.670,66.999321,
2571.759,89.786807,
2568.848,85.307244,
2565.938,91.648984,
2563.027,79.834017,
2560.117,85.508146,
2557.206,87.069648,
2554.296,76.900744,
2551.385,96.001009,
2548.474,111.90307,
2545.564,98.758111,
2542.653,104.82969,
2539.743,107.24823,
2536.832,73.715644,
2533.922,85.203846,
2531.011,92.049837,
2528.100,96.591897,
2525.190,100.86844,
2522.279,99.984306,
2519.369,94.710052,
2516.458,83.009562,
2513.548,82.979477,
2510.637,90.170206,
2507.726,103.31458,
2504.816,94.874717,
2501.905,93.125,
2498.995,88.080503,
2496.084,102.20513,
2493.173,89.624667,
2490.263,101.86628,
2487.352,104.41713,
2484.442,106.56827,
2481.531,101.97068,
2478.621,95.840595,
2475.710,116.00232,
2472.799,97.165392,
2469.889,92.003124,
2466.978,106.228,
2464.068,105.33662,
2461.157,90.702486,
2458.247,97.389755,
2455.336,101.80602,
2452.425,105.58255,
2449.515,105.96493,
2446.604,112.42689,
2443.694,97.21792,
2440.783,111.31869,
2437.872,120.61449,
2434.962,107.125,
2432.051,107.61266,
2429.141,91.754621,
2426.230,117.84331,
2423.320,117.79609,
2420.409,122.67005,
2417.498,114.30478,
2414.588,107.68018,
2411.677,98.77045,
2408.767,117.13681,
2405.856,133.25826,
2402.946,118.00525,
2400.035,105.02406,
2397.124,111.03408,
2394.214,125.4762,
2391.303,115.55048,
2388.393,113.35059,
2385.482,86.446854,
2382.571,77.251104,
2379.661,87.543705,
2376.750,89.701283,
2373.840,107.53746,
2370.929,127.93007,
2368.019,122.00494,
2365.108,116.68259,
2362.197,131.68121,
2359.287,124.55341,
2356.376,126.11619,
2353.466,151.44532,
2350.555,113.40976,
2347.645,113.78194,
2344.734,110.88074,
2341.823,120.90942,
2338.913,136.97422,
2336.002,118.68715,
2333.092,130.37783,
2330.181,117.79,
2327.270,119.73996,
2324.360,135.58727,
2321.449,134.38691,
2318.539,139.6357,
2315.628,143.61221,
2312.718,147.77478,
2309.807,142.35464,
2306.896,152.82609,
2303.986,137.60555,
2301.075,140.89096,
2298.165,148.10592,
2295.254,130.55586,
2292.344,144.85941,
2289.433,152.10954,
2286.522,149.15178,
2283.612,149.43495,
2280.701,164.70344,
2277.791,151.32537,
2274.880,150.56111,
2271.969,134.38015,
2269.059,154.53101,
2266.148,151.99311,
2263.238,137.22925,
2260.327,163.67653,
2257.417,148.15778,
2254.506,153.84292,
2251.595,150.54677,
2248.685,163.49036,
2245.774,144.499,
2242.864,160.90304,
2239.953,170.75951,
2237.043,160.67001,
2234.132,148.82112,
2231.221,169.57473,
2228.311,174.77578,
2225.400,161.18129,
2222.490,167.39545,
2219.579,177.2355,
2216.669,170.0773,
2213.758,163.1655,
2210.847,161.3794,
2207.937,178.47351,
2205.026,177.45824,
2202.116,178.81396,
2199.205,175.94994,
2196.294,171.50502,
2193.384,172.09851,
2190.473,177.55693,
2187.563,193.212,
2184.652,205.40175,
2181.742,174.89795,
2178.831,183.08222,
2175.920,188.70788,
2173.010,192.02523,
2170.099,198.32441,
2167.189,205.23263,
2164.278,216.45666,
2161.368,201.69563,
2158.457,218.97225,
2155.546,224.60962,
2152.636,216.27929,
2149.725,230.26592,
2146.815,226.39195,
2143.904,208.42982,
2140.993,225.01383,
2138.083,244.7724,
2135.172,252.1166,
2132.262,251.87324,
2129.351,267.73889,
2126.441,258.98903,
2123.530,254.0801,
2120.619,248.33608,
2117.709,237.65238,
2114.798,233.29801,
2111.888,213.87545,
2108.977,213.02567,
2106.067,212.81636,
2103.156,232.24104,
2100.245,208.125,
2097.335,207.28207,
2094.424,201.84305,
2091.514,204.48253,
2088.603,207.97291,
2085.692,208.7607,
2082.782,194.40219,
2079.871,226.91262,
2076.961,217.35198,
2074.050,224.4947,
2071.140,210.67684,
2068.229,208.5677,
2065.318,226.56975,
2062.408,220.79899,
2059.497,231.36908,
2056.587,229.10202,
2053.676,210.69237,
2050.766,221.97029,
2047.855,233.0428,
2044.944,199.45031,
2042.034,214.96307,
2039.123,206.00715,
2036.213,207.66714,
2033.302,216.27667,
2030.391,226.73564,
2027.481,240.18576,
2024.570,243.06799,
2021.660,223.30759,
2018.749,246.98529,
2015.839,217.85597,
2012.928,225.08977,
2010.017,250.25529,
2007.107,230.07638,
2004.196,233.01792,
2001.286,252.75044,
1998.375,244.687,
1995.465,221.24643,
1992.554,216.125,
1989.643,218.05587,
1986.733,195.40921,
1983.822,223.34435,
1980.912,244.6489,
1978.001,209.75209,
1975.090,216.70363,
1972.180,216.43618,
1969.269,206.55891,
1966.359,203.53037,
1963.448,215.27428,
1960.538,218.50198,
1957.627,182.45934,
1954.716,204.34938,
1951.806,220.78369,
1948.895,197.93063,
1945.985,217.5335,
1943.074,209.5901,
1940.164,191.17321,
1937.253,195.23819,
1934.342,185.62072,
1931.432,216.2985,
1928.521,219.64313,
1925.611,200.47574,
1922.700,202.66505,
1919.790,194.65112,
1916.879,199.63675,
1913.968,220.10041,
1911.058,256.14301,
1908.147,227.99215,
1905.237,228.11765,
1902.326,226.85094,
1899.415,192.77009,
1896.505,145.29358,
1893.594,150.38726,
1890.684,166.99431,
1887.773,187.38301,
1884.863,222.34596,
1881.952,249.56233,
1879.041,235.18678,
1876.131,220.79559,
1873.220,214.76658,
1870.310,224.33574,
1867.399,221.18897,
1864.489,196.68274,
1861.578,234.7514,
1858.667,228.4843,
1855.757,213.92214,
1852.846,215.11475,
1849.936,208.5204,
1847.025,202.89143,
1844.114,208.40269,
1841.204,230.38024,
1838.293,238.61585,
1835.383,239.753,
1832.472,265.18413,
1829.562,239.13124,
1826.651,208.33856,
1823.740,248.3473,
1820.830,257.18006,
1817.919,235.57996,
1815.009,215.71279,
1812.098,239.15648,
1809.188,271.20245,
1806.277,244.76682,
1803.366,230.95864,
1800.456,222.49893,
1797.545,250.36592,
1794.635,288.51294,
1791.724,262.96968,
1788.813,258.12629,
1785.903,258.37309,
1782.992,245.32023,
1780.082,197.3331,
1777.171,72.448328,
1774.261,59.580493,
1771.350,143.67877,
1768.439,218.61597,
1765.529,254.5834,
1762.618,281.54063,
1759.708,263.17914,
1756.797,273.24621,
1753.887,294.61188,
1750.976,287.58704,
1748.065,282.0528,
1745.155,291.62169,
1742.244,296.80073,
1739.334,289.96265,
1736.423,304.08199,
1733.512,279.10865,
1730.602,316.49412,
1727.691,317.00413,
1724.781,316.84446,
1721.870,292.37247,
1718.960,326.41437,
1716.049,309.95576,
1713.138,324.7899,
1710.228,315.07055,
1707.317,302.51014,
1704.407,345.14646,
1701.496,342.83262,
1698.586,332.88516,
1695.675,357.38913,
1692.764,329.77662,
1689.854,302.29428,
1686.943,314.65284,
1684.033,353.15639,
1681.122,364.93808,
1678.211,345.31535,
1675.301,381.014,
1672.390,348.13696,
1669.480,352.18115,
1666.569,359.68362,
1663.659,402.53703,
1660.748,367.83843,
1657.837,404.49679,
1654.927,420.11755,
1652.016,379.89883,
1649.106,450.17024,
1646.195,412.98815,
1643.285,447.89713,
1640.374,437.7487,
1637.463,420.77352,
1634.553,456.50922,
1631.642,482.64618,
1628.732,530.01242,
1625.821,511.13547,
1622.911,527.03484,
1620.000,575.50766,
1617.089,573.1847,
1614.179,611.99696,
1611.268,626.60451,
1608.358,663.34572,
1605.447,719.81116,
1602.536,683.05385,
1599.626,719.68211,
1596.715,734.92382,
1593.805,709.29504,
1590.894,702.60232,
1587.984,729.83995,
1585.073,666.05966,
1582.162,683.34601,
1579.252,673.57728,
1576.341,674.93138,
1573.431,665.16056,
1570.520,637.66494,
1567.610,645.7723,
1564.699,632.99926,
1561.788,610.63219,
1558.878,620.51132,
1555.967,591.78844,
1553.057,580.14217,
1550.146,569.37594,
1547.235,556.58304,
1544.325,557.51819,
1541.414,554.18437,
1538.504,582.00836,
1535.593,595.10917,
1532.683,567.39651,
1529.772,563.16241,
1526.861,565.89473,
1523.951,573.77926,
1521.040,590.53302,
1518.130,595.49402,
1515.219,645.44513,
1512.309,627.49883,
1509.398,590.63633,
1506.487,607.48719,
1503.577,604.56945,
1500.666,578.46077,
1497.756,585.39672,
1494.845,635.56415,
1491.934,597.80374,
1489.024,499.62946,
1486.113,580.50161,
1483.203,588.01317,
1480.292,561.82114,
1477.382,601.57865,
1474.471,559.94323,
1471.560,545.57633,
1468.650,533.1428,
1465.739,513.03422,
1462.829,533.17542,
1459.918,562.62233,
1457.008,553.86324,
1454.097,547.29248,
1451.186,547.4809,
1448.276,523.74561,
1445.365,507.58867,
1442.455,499.85168,
1439.544,501.14408,
1436.633,504.97902,
1433.723,490.62349,
1430.812,493.53394,
1427.902,486.75639,
1424.991,513.29374,
1422.081,481.09582,
1419.170,472.94064,
1416.259,488.32626,
1413.349,483.81735,
1410.438,487.42302,
1407.528,494.63119,
1404.617,502.40915,
1401.707,482.80762,
1398.796,455.98865,
1395.885,452.43211,
1392.975,453.229,
1390.064,452.01118,
1387.154,464.72304,
1384.243,455.46896,
1381.332,430.80103,
1378.422,409.03348,
1375.511,349.0795,
1372.601,427.38005,
1369.690,433.26778,
1366.780,414.90819,
1363.869,451.53419,
1360.958,480.32933,
1358.048,496.61799,
1355.137,512.58731,
1352.227,534.39305,
1349.316,557.12392,
1346.406,558.54564,
1343.495,538.87239,
1340.584,551.48141,
1337.674,594.62256,
1334.763,558.46584,
1331.853,593.70062,
1328.942,606.68803,
1326.032,607.30938,
1323.121,621.94429,
1320.210,635.11605,
1317.300,646.79802,
1314.389,657.77789,
1311.479,668.36768,
1308.568,677.63934,
1305.657,682.125,
1302.747,690.81918,
1299.836,726.96777,
1296.926,740.59502,
1294.015,750.70758,
1291.105,733.51416,
1288.194,761.47724,
1285.283,754.80494,
1282.373,783.29675,
1279.462,797.63491,
1276.552,808.92034,
1273.641,814.59799,
1270.731,790.89067,
1267.820,778.97022,
1264.909,759.25648,
1261.999,730.92527,
1259.088,725.45255,
1256.178,773.94302,
1253.267,773.68585,
1250.356,756.90267,
1247.446,757.16573,
1244.535,751.71878,
1241.625,729.01392,
1238.714,724.51356,
1235.804,751.06677,
1232.893,743.4948,
1229.982,766.63438,
1227.072,752.14938,
1224.161,759.53004,
1221.251,736.5562,
1218.340,683.42597,
1215.430,694.9098,
1212.519,721.8612,
1209.608,699.98872,
1206.698,663.0824,
1203.787,661.01948,
1200.877,684.521,
1197.966,723.18485,
1195.055,702.94054,
1192.145,754.72441,
1189.234,784.15447,
1186.324,812.49078,
1183.413,826.26713,
1180.503,828.55639,
1177.592,844.89267,
1174.681,839.81679,
1171.771,810.57832,
1168.860,830.22629,
1165.950,832.93129,
1163.039,824.74417,
1160.129,799.89022,
1157.218,806.27738,
1154.307,818.36527,
1151.397,799.34296,
1148.486,802.6697,
1145.576,832.96857,
1142.665,806.33119,
1139.754,822.83846,
1136.844,855.13711,
1133.933,843.07825,
1131.023,816.68308,
1128.112,811.12428,
1125.202,821.33273,
1122.291,827.63175,
1119.380,844.78721,
1116.470,810.3686,
1113.559,771.32879,
1110.649,781.42521,
1107.738,786.76682,
1104.828,777.964,
1101.917,777.1548,
1099.006,791.05279,
1096.096,800.01749,
1093.185,798.26149,
1090.275,815.11967,
1087.364,788.24947,
1084.453,792.68632,
1081.543,821.58629,
1078.632,835.42408,
1075.722,832.08324,
1072.811,859.14649,
1069.901,817.22997,
1066.990,816.54999,
1064.079,832.77682,
1061.169,829.63128,
1058.258,814.77272,
1055.348,810.53438,
1052.437,821.28899,
1049.527,821.99073,
1046.616,818.51542,
1043.705,828.14495,
1040.795,806.86183,
1037.884,814.87172,
1034.974,830.16624,
1032.063,815.83284,
1029.153,804.30611,
1026.242,822.47019,
1023.331,828.12468,
1020.421,861.19167,
1017.510,856.6359,
1014.600,859.46513,
1011.689,874.85796,
1008.778,853.68517,
1005.868,850.81611,
1002.957,816.40194,
1000.047,838.78901,
997.136,866.74477,
994.226,893.4017,
991.315,904.42699,
988.404,886.53091,
985.494,873.16336,
982.583,874.87647,
979.673,869.27183,
976.762,868.2992,
973.852,873.5451,
970.941,872.90101,
968.030,859.9285,
965.120,870.25388,
962.209,900.94539,
959.299,899.75076,
956.388,895.44511,
953.477,882.61623,
950.567,878.15049,
947.656,914.57603,
944.746,933.26626,
941.835,913.06985,
938.925,937.07921,
936.014,935.93857,
933.103,929.65855,
930.193,939.93375,
927.282,909.56683,
924.372,880.8162,
921.461,913.20861,
918.551,890.10713,
915.640,878.57309,
912.729,898.66171,
909.819,898.90175,
906.908,889.63507,
903.998,909.80447,
901.087,901.12186,
898.176,887.39866,
895.266,887.79038,
892.355,901.65382,
889.445,899.13602,
886.534,935.85936,
883.624,946.48916,
880.713,958.33212,
877.802,950.06063,
874.892,892.22494,
871.981,782.45559,
869.071,627.06879,
866.160,631.17318,
863.250,736.86049,
860.339,845.89915,
857.428,903.98615,
854.518,952.17519,
851.607,884.77757,
848.697,824.9778,
845.786,761.08874,
842.875,770.71223,
839.965,884.47517,
837.054,990.95754,
834.144,976.03999,
831.233,1004.4561,
828.323,1014.1901,
825.412,1004.5834,
822.501,998.01864,
819.591,1002.977,
816.680,986.29805,
813.770,973.98047,
810.859,963.71011,
807.949,955.47133,
805.038,952.51881,
802.127,964.04259,
799.217,947.23562,
796.306,940.55743,
793.396,954.91905,
790.485,974.12397,
787.574,960.18368,
784.664,988.06749,
781.753,989.77008,
778.843,988.61508,
775.932,993.44591,
773.022,1004.5198,
770.111,1013.5131,
767.200,1011.8411,
764.290,1005.9241,
761.379,993.06605,
758.469,976.19527,
755.558,966.51084,
752.648,1012.9432,
749.737,1004.4997,
746.826,987.19924,
743.916,988.1771,
741.005,1016.2342,
738.095,1034.9074,
735.184,1055.0015,
732.274,990.07706,
729.363,931.51338,
726.452,939.44732,
723.542,913.54673,
720.631,967.93635,
717.721,1008.6117,
714.810,1026.5057,
711.899,1033.1448,
708.989,1058.9664,
706.078,1065.5354,
703.168,1044.6578,
700.257,1026.4119,
697.347,1023.5161,
694.436,1031.885,
691.525,1023.0431,
688.615,1014.207,
685.704,1011.4201,
682.794,1022.0185,
679.883,1052.4946,
676.973,1082.9467,
674.062,1063.6017,
671.151,1046.0567,
668.241,1049.2724,
665.330,1070.4989,
662.420,1036.1534,
659.509,1029.7599,
656.598,1029.6923,
653.688,1050.979,
650.777,1123.3689,
647.867,1101.0718,
644.956,1091.1718,
642.046,1050.8112,
639.135,995.19047,
636.224,984.30007,
633.314,1019.2334,
630.403,1035.8107,
627.493,1044.9657,
624.582,1047.0639,
621.672,1028.848,
618.761,1052.4431,
615.850,1066.1859,
612.940,1084.7864,
610.029,1109.6783,
607.119,1100.9923,
604.208,1117.1653,
601.297,1119.6383,
598.387,1108.5325,
595.476,1090.1195,
592.566,1068.8686,
589.655,1098.8153,
586.745,1109.7475,
583.834,1098.3683,
580.923,1092.2861,
578.013,1118.9671,
575.102,1110.6381,
572.192,1095.5522,
569.281,1092.64,
566.371,1112.2056,
563.460,1130.3508,
560.549,1143.4596,
557.639,1151.7364,
554.728,1155.3859,
551.818,1143.6812,
548.907,1153.9227,
545.996,1145.0183,
543.086,1114.9375,
540.175,1100.1432,
537.265,1121.5777,
534.354,1113.0675,
531.444,1108.3859,
528.533,1142.553,
525.622,1176.6947,
522.712,1157.4279,
519.801,1126.3773,
516.891,1109.4462,
513.980,1135.7722,
511.070,1140.238,
508.159,1139.6923,
505.248,1139.1264,
502.338,1141.8313,
499.427,1131.7975,
496.517,1126.8624,
493.606,1143.9685,
490.695,1182.0879,
487.785,1189.016,
484.874,1185.6014,
481.964,1160.2847,
479.053,1122.977,
476.143,1101.474,
473.232,1105.1608,
470.321,1109.5579,
467.411,1115.4174,
464.500,1124.8147,
461.590,1112.5629,
458.679,1136.0894,
455.769,1146.7827,
452.858,1122.3636,
449.947,1124.6554,
447.037,1137.867,
444.126,1142.0583,
441.216,1133.5375,
438.305,1124.3944,
435.395,1156.5625,
432.484,1172.0412,
429.573,1153.5048,
426.663,1086.6124,
423.752,961.86635,
420.842,805.54391,
417.931,641.47874,
415.020,501.94085,
412.110,755.38444,
409.199,968.95127,
406.289,1081.8099,
403.378,1046.9252,
400.468,987.95765,
397.557,992.77588,
394.646,1052.8334,
391.736,1154.6662,
388.825,1140.3359,
385.915,1159.5415,
383.004,1159.2803,
380.094,1107.6241,
377.183,1117.4063,
374.272,1115.7828,
371.362,1130.6676,
368.451,1175.1706,
365.541,1175.9211,
362.630,1166.2927,
359.719,1156.6452,
356.809,1153.9859,
353.898,1168.213,
350.988,1166.7001,
348.077,1163.2866,
345.167,1166.0115,
342.256,1163.7703,
339.345,1160.9993,
336.435,1168.5631,
333.524,1191.9741,
330.614,1155.4615,
327.703,1179.0366,
324.793,1200.5244,
321.882,1167.1574,
318.971,1180.5394,
316.061,1171.4522,
313.150,1170.9821,
310.240,1215.5091,
307.329,1222.1275,
304.418,1229.5964,
301.508,1236.125,
298.597,1236.125,
295.687,1269.3098,
292.776,1278.4583,
289.866,1275.3526,
286.955,1304.9016,
284.044,1300.27,
281.134,1294.7547,
278.223,1296.9273,
275.313,1316.0855,
272.402,1344.5229,
269.492,1355.4711,
266.581,1336.6582,
263.670,1274.1679,
260.760,1268.6622,
257.849,1303.4781,
254.939,1370.2614,
252.028,1360.9912,
249.117,1339.3087,
246.207,1337.4449,
243.296,1412.1127,
240.386,1422.737,
237.475,1426.0459,
234.565,1426.7093,
231.654,1411.3712,
228.743,1421.9338,
225.833,1420.234,
222.922,1392.2417,
220.012,1373.2992,
217.101,1398.5308,
214.191,1407.0834,
211.280,1327.0625,
208.369,1331.2172,
205.459,1339.319,
202.548,1348.5122,
199.638,1373.9099,
196.727,1354.9239,
193.816,1359.0997,
190.906,1406.7475,
187.995,1310.4522,
185.085,1299.3492,
182.174,1316.8773,
179.264,1290.135,
176.353,1260.8531,
173.442,1275.1296,
170.532,1315.3721,
167.621,1223.0872,
164.711,1190.7671,
161.800,1144.3111,
158.890,1027.7153,
155.979,886.55205,
153.068,816.05287,
150.158,781.28343,
147.247,647.02636,
144.337,564.70691,
141.426,468.15352,
138.516,324.77527,
135.605,222.59718,
132.694,154.00083,
129.784,109.87777,
126.873,72.691022,
123.963,52.605457,
121.052,35.75948,
118.141,17.198028,
115.231,20.677852,
112.320,15.770461,
109.410,7.670421,
106.499,10.519042,
103.589,10.004491,
100.678,6.9520264,
97.767,1.2645258,
94.857,1.125,
91.946,3.5436652,
89.036,7.125,
86.125,7.125,
83.215,5.5322389,
80.304,3.1672693,
77.393,0.33458951,
74.483,1.4352699,
71.572,1.7626479,
68.662,0.9171975,
65.751,-1.2021557,
62.840,4.3871258,
59.930,10.001283,
57.019,5.7707909,
54.109,0.94487406,
51.198,1.1410928,
48.288,8.0570507,
45.377,-0.3834861,
42.466,0.24719339,
39.556,6.8157115,
36.645,11.028853,
33.735,7.4517638,
30.824,-0.18830461,
27.914,-10.705933,
25.003,-12.497637,
22.092,-9.6459544,
19.182,-2.875,
16.271,-2.875,
13.361,17.776441,
10.450,21.726479,
7.539,-120.03154,
4.629,-459.95776,
1.718,-814.007,
-1.192,-1042.6704,
-4.103,-816.04615,
-7.013,-453.8685,
-9.924,-2.875,
