,PL75BA~1,
Wavenumbers [1/cm],Intensity,
3014.167,0.375,
3011.256,1.375,
3008.346,22.951787,
3005.435,13.993378,
3002.525,21.24245,
2999.614,21.365936,
2996.704,31.923456,
2993.793,18.622696,
2990.882,17.550588,
2987.972,33.238786,
2985.061,15.685357,
2982.151,33.539711,
2979.240,24.223852,
2976.329,30.375,
2973.419,30.005809,
2970.508,37.008287,
2967.598,26.323594,
2964.687,19.224863,
2961.777,27.127063,
2958.866,46.377969,
2955.955,35.545363,
2953.045,27.410814,
2950.134,38.098016,
2947.224,22.001314,
2944.313,43.375,
2941.403,35.553377,
2938.492,38.778782,
2935.581,35.826516,
2932.671,24.259158,
2929.760,42.167303,
2926.850,50.747931,
2923.939,34.05726,
2921.028,37.93394,
2918.118,50.275505,
2915.207,40.248243,
2912.297,50.290374,
2909.386,42.593972,
2906.476,37.47614,
2903.565,42.601673,
2900.654,35.715737,
2897.744,49.274422,
2894.833,42.199727,
2891.923,34.455096,
2889.012,36.791185,
2886.102,37.166893,
2883.191,39.372168,
2880.280,29.274518,
2877.370,-34.35157,
2874.459,-49.801106,
2871.549,-62.506726,
2868.638,14.292454,
2865.727,15.08653,
2862.817,42.419097,
2859.906,34.628557,
2856.996,48.356885,
2854.085,56.776268,
2851.175,55.299762,
2848.264,39.870165,
2845.353,39.698505,
2842.443,51.979178,
2839.532,35.957165,
2836.622,36.195311,
2833.711,45.849097,
2830.801,35.483085,
2827.890,42.542842,
2824.979,45.807018,
2822.069,52.477349,
2819.158,55.674186,
2816.248,50.857631,
2813.337,65.240858,
2810.427,51.59539,
2807.516,40.48297,
2804.605,52.19231,
2801.695,49.151303,
2798.784,54.561846,
2795.874,45.654675,
2792.963,45.589148,
2790.052,64.370281,
2787.142,58.546193,
2784.231,51.376581,
2781.321,49.746397,
2778.410,45.354686,
2775.500,47.013968,
2772.589,50.413987,
2769.678,61.15997,
2766.768,54.635181,
2763.857,47.848989,
2760.947,55.406521,
2758.036,62.916417,
2755.126,63.14209,
2752.215,58.947845,
2749.304,54.290483,
2746.394,56.411324,
2743.483,54.724961,
2740.573,58.826312,
2737.662,55.704883,
2734.751,49.467292,
2731.841,49.050825,
2728.930,62.925858,
2726.020,61.375,
2723.109,56.055501,
2720.199,58.003185,
2717.288,62.969901,
2714.377,58.700237,
2711.467,71.784889,
2708.556,59.471001,
2705.646,65.586307,
2702.735,72.862104,
2699.825,65.265929,
2696.914,71.994093,
2694.003,70.916459,
2691.093,78.249854,
2688.182,74.375,
2685.272,69.100465,
2682.361,55.16321,
2679.450,62.745346,
2676.540,67.192083,
2673.629,55.056633,
2670.719,67.644883,
2667.808,64.104534,
2664.898,67.933364,
2661.987,72.941678,
2659.076,75.120688,
2656.166,67.180256,
2653.255,61.519562,
2650.345,70.590971,
2647.434,56.004038,
2644.524,74.919372,
2641.613,80.803662,
2638.702,61.706402,
2635.792,76.969215,
2632.881,71.642886,
2629.971,69.502511,
2627.060,76.040627,
2624.149,81.618754,
2621.239,70.860178,
2618.328,68.739192,
2615.418,62.006828,
2612.507,79.857204,
2609.597,63.211327,
2606.686,72.98544,
2603.775,71.855159,
2600.865,80.784583,
2597.954,80.470828,
2595.044,83.696524,
2592.133,68.642337,
2589.223,76.098175,
2586.312,89.128805,
2583.401,79.659692,
2580.491,89.552879,
2577.580,70.370049,
2574.670,65.991314,
2571.759,72.28424,
2568.848,85.314252,
2565.938,92.565463,
2563.027,84.495517,
2560.117,72.459123,
2557.206,72.662823,
2554.296,79.262872,
2551.385,93.193048,
2548.474,106.41218,
2545.564,84.198044,
2542.653,106.14346,
2539.743,98.955097,
2536.832,79.537611,
2533.922,82.453846,
2531.011,92.874535,
2528.100,96.712946,
2525.190,103.97705,
2522.279,85.328102,
2519.369,85.884343,
2516.458,86.039307,
2513.548,91.465796,
2510.637,94.05131,
2507.726,100.00324,
2504.816,83.061581,
2501.905,91.983537,
2498.995,103.55416,
2496.084,103.6154,
2493.173,91.848509,
2490.263,92.161448,
2487.352,114.70727,
2484.442,98.805409,
2481.531,96.84841,
2478.621,94.071674,
2475.710,109.34433,
2472.799,104.6351,
2469.889,97.527345,
2466.978,101.03471,
2464.068,97.671273,
2461.157,102.41252,
2458.247,101.7868,
2455.336,104.39652,
2452.425,100.70047,
2449.515,98.337587,
2446.604,112.375,
2443.694,105.97942,
2440.783,99.755631,
2437.872,113.41146,
2434.962,109.90957,
2432.051,97.375,
2429.141,101.64553,
2426.230,106.17943,
2423.320,112.36033,
2420.409,120.05465,
2417.498,112.35815,
2414.588,101.66024,
2411.677,97.024483,
2408.767,134.79823,
2405.856,124.28686,
2402.946,117.94605,
2400.035,112.17312,
2397.124,113.05948,
2394.214,130.91659,
2391.303,130.19275,
2388.393,118.38895,
2385.482,95.388422,
2382.571,111.7553,
2379.661,94.119173,
2376.750,102.32077,
2373.840,113.64997,
2370.929,114.38583,
2368.019,125.6404,
2365.108,116.79385,
2362.197,123.33394,
2359.287,136.55996,
2356.376,112.42079,
2353.466,133.83053,
2350.555,117.00491,
2347.645,113.375,
2344.734,119.67916,
2341.823,124.32525,
2338.913,135.53319,
2336.002,124.97067,
2333.092,129.93821,
2330.181,125.84816,
2327.270,117.76004,
2324.360,129.91273,
2321.449,129.49744,
2318.539,129.03557,
2315.628,133.58523,
2312.718,137.67456,
2309.807,126.26307,
2306.896,134.59565,
2303.986,130.3361,
2301.075,135.67289,
2298.165,146.14447,
2295.254,120.02129,
2292.344,140.95173,
2289.433,147.35954,
2286.522,155.18294,
2283.612,162.92474,
2280.701,139.73827,
2277.791,139.41507,
2274.880,140.375,
2271.969,141.53549,
2269.059,142.25783,
2266.148,135.53861,
2263.238,132.47539,
2260.327,151.13345,
2257.417,134.84944,
2254.506,144.06164,
2251.595,145.0987,
2248.685,152.10572,
2245.774,153.77067,
2242.864,140.28272,
2239.953,155.19566,
2237.043,157.08893,
2234.132,158.08405,
2231.221,155.84783,
2228.311,179.34017,
2225.400,171.12169,
2222.490,163.30336,
2219.579,168.74262,
2216.669,176.84877,
2213.758,179.11356,
2210.847,162.06016,
2207.937,177.56064,
2205.026,160.70824,
2202.116,164.68604,
2199.205,172.91218,
2196.294,169.82103,
2193.384,169.48001,
2190.473,164.65317,
2187.563,193.3895,
2184.652,195.1701,
2181.742,178.62379,
2178.831,163.28943,
2175.920,179.78666,
2173.010,190.17545,
2170.099,193.24157,
2167.189,207.36782,
2164.278,206.66847,
2161.368,212.94588,
2158.457,217.17334,
2155.546,216.34425,
2152.636,220.58777,
2149.725,218.54279,
2146.815,211.60858,
2143.904,223.375,
2140.993,222.9094,
2138.083,225.0224,
2135.172,236.33302,
2132.262,233.23856,
2129.351,249.51995,
2126.441,229.87006,
2123.530,234.57703,
2120.619,250.03565,
2117.709,234.84762,
2114.798,232.59807,
2111.888,222.15041,
2108.977,217.82533,
2106.067,201.41556,
2103.156,215.61121,
2100.245,190.38504,
2097.335,206.97709,
2094.424,203.71582,
2091.514,188.31325,
2088.603,208.17222,
2085.692,207.05533,
2082.782,217.51146,
2079.871,211.05295,
2076.961,215.85838,
2074.050,204.39318,
2071.140,224.69681,
2068.229,223.10938,
2065.318,226.62301,
2062.408,230.61707,
2059.497,233.61312,
2056.587,219.42195,
2053.676,210.00823,
2050.766,237.14256,
2047.855,235.03325,
2044.944,222.84295,
2042.034,219.138,
2039.123,221.09554,
2036.213,217.97274,
2033.302,232.91809,
2030.391,224.10464,
2027.481,243.08198,
2024.570,250.31799,
2021.660,226.7941,
2018.749,263.55146,
2015.839,221.54495,
2012.928,248.83473,
2010.017,251.67359,
2007.107,253.11892,
2004.196,246.25593,
2001.286,254.66826,
1998.375,259.89567,
1995.465,247.3625,
1992.554,244.375,
1989.643,236.65151,
1986.733,248.26798,
1983.822,253.28711,
1980.912,280.79956,
1978.001,232.00209,
1975.090,242.93837,
1972.180,256.40958,
1969.269,248.58187,
1966.359,237.53709,
1963.448,262.8651,
1960.538,270.12896,
1957.627,262.24187,
1954.716,264.28882,
1951.806,261.31888,
1948.895,278.22724,
1945.985,270.57925,
1943.074,269.41193,
1940.164,267.93277,
1937.253,264.04478,
1934.342,254.9135,
1931.432,261.68415,
1928.521,281.55808,
1925.611,274.07648,
1922.700,283.20373,
1919.790,264.98219,
1916.879,264.16575,
1913.968,270.36762,
1911.058,317.13775,
1908.147,272.83633,
1905.237,280.98528,
1902.326,284.60461,
1899.415,287.7396,
1896.505,236.67615,
1893.594,245.72872,
1890.684,259.6953,
1887.773,259.57314,
1884.863,293.35222,
1881.952,308.98001,
1879.041,299.29712,
1876.131,303.70441,
1873.220,304.50332,
1870.310,329.43774,
1867.399,339.24705,
1864.489,291.94662,
1861.578,282.86939,
1858.667,298.40194,
1855.757,302.58144,
1852.846,305.92881,
1849.936,324.98062,
1847.025,290.37744,
1844.114,296.27388,
1841.204,327.68968,
1838.293,328.88581,
1835.383,319.096,
1832.472,324.08457,
1829.562,320.43177,
1826.651,321.529,
1823.740,322.19109,
1820.830,309.80009,
1817.919,329.17754,
1815.009,320.67526,
1812.098,323.76082,
1809.188,342.19666,
1806.277,295.45946,
1803.366,321.009,
1800.456,301.84807,
1797.545,345.02036,
1794.635,349.95598,
1791.724,346.15162,
1788.813,371.1696,
1785.903,349.45062,
1782.992,333.91151,
1780.082,310.97274,
1777.171,220.35678,
1774.261,189.97076,
1771.350,276.34976,
1768.439,319.01479,
1765.529,350.65098,
1762.618,377.17251,
1759.708,353.74427,
1756.797,344.73864,
1753.887,375.4785,
1750.976,400.52683,
1748.065,391.94182,
1745.155,393.78781,
1742.244,388.13227,
1739.334,381.375,
1736.423,401.15815,
1733.512,397.73269,
1730.602,412.07542,
1727.691,407.62775,
1724.781,417.7468,
1721.870,410.91303,
1718.960,449.48661,
1716.049,411.39242,
1713.138,440.84981,
1710.228,409.95223,
1707.317,414.98986,
1704.407,468.48204,
1701.496,437.00154,
1698.586,432.45102,
1695.675,476.3533,
1692.764,413.10447,
1689.854,407.46161,
1686.943,439.26205,
1684.033,441.35016,
1681.122,450.22207,
1678.211,482.07044,
1675.301,504.30716,
1672.390,480.20453,
1669.480,423.76808,
1666.569,472.9971,
1663.659,521.14635,
1660.748,507.66423,
1657.837,521.95948,
1654.927,503.65615,
1652.016,514.98621,
1649.106,499.64429,
1646.195,511.1902,
1643.285,545.51433,
1640.374,592.66072,
1637.463,512.95147,
1634.553,545.17301,
1631.642,598.55958,
1628.732,615.36907,
1625.821,614.38023,
1622.911,622.32992,
1620.000,653.97184,
1617.089,676.91729,
1614.179,699.72638,
1611.268,712.89169,
1608.358,748.64255,
1605.447,802.23256,
1602.536,803.51123,
1599.626,802.45507,
1596.715,813.26621,
1593.805,775.91873,
1590.894,820.69253,
1587.984,849.89339,
1585.073,776.80149,
1582.162,781.74249,
1579.252,793.55801,
1576.341,777.75161,
1573.431,753.01247,
1570.520,735.90934,
1567.610,723.43369,
1564.699,733.42554,
1561.788,745.41719,
1558.878,777.73382,
1555.967,726.62986,
1553.057,707.40934,
1550.146,706.77138,
1547.235,696.65239,
1544.325,711.47202,
1541.414,706.473,
1538.504,722.23076,
1535.593,715.3695,
1532.683,685.10349,
1529.772,706.15608,
1526.861,706.2935,
1523.951,707.36551,
1521.040,737.18101,
1518.130,738.95434,
1515.219,767.49544,
1512.309,755.84348,
1509.398,763.15262,
1506.487,746.66659,
1503.577,727.72625,
1500.666,741.59885,
1497.756,745.05318,
1494.845,764.57456,
1491.934,745.24586,
1489.024,705.78366,
1486.113,763.71679,
1483.203,763.93416,
1480.292,743.85924,
1477.382,765.43069,
1474.471,719.19323,
1471.560,667.81736,
1468.650,663.94083,
1465.739,676.06088,
1462.829,712.60314,
1459.918,725.53515,
1457.008,714.82111,
1454.097,711.83716,
1451.186,719.86049,
1448.276,722.62665,
1445.365,690.72887,
1442.455,651.375,
1439.544,667.30331,
1436.633,716.95693,
1433.723,690.00415,
1430.812,683.3303,
1427.902,720.66815,
1424.991,732.98906,
1422.081,700.34582,
1419.170,706.87966,
1416.259,746.44796,
1413.349,725.9206,
1410.438,728.97103,
1407.528,727.93758,
1404.617,737.87895,
1401.707,719.28815,
1398.796,678.79812,
1395.885,667.98923,
1392.975,666.04119,
1390.064,678.04332,
1387.154,743.75732,
1384.243,693.92516,
1381.332,656.91629,
1378.422,680.35128,
1375.511,582.92606,
1372.601,662.47319,
1369.690,690.80556,
1366.780,681.70244,
1363.869,767.73167,
1360.958,763.74267,
1358.048,742.00175,
1355.137,752.46573,
1352.227,751.93702,
1349.316,769.48132,
1346.406,801.45146,
1343.495,766.12239,
1340.584,776.05303,
1337.674,807.73017,
1334.763,776.98686,
1331.853,766.78732,
1328.942,745.91733,
1326.032,753.97807,
1323.121,763.78464,
1320.210,757.05211,
1317.300,773.03312,
1314.389,782.23601,
1311.479,777.81189,
1308.568,775.14228,
1305.657,773.87032,
1302.747,792.65385,
1299.836,820.88359,
1296.926,817.50319,
1294.015,820.26116,
1291.105,842.38854,
1288.194,837.38757,
1285.283,826.06696,
1282.373,823.00781,
1279.462,846.43338,
1276.552,858.40647,
1273.641,833.67232,
1270.731,815.48993,
1267.820,831.55831,
1264.909,807.07807,
1261.999,790.67459,
1259.088,798.88368,
1256.178,850.76238,
1253.267,793.39619,
1250.356,782.1793,
1247.446,802.21663,
1244.535,792.06702,
1241.625,773.60462,
1238.714,782.11134,
1235.804,790.81189,
1232.893,794.99595,
1229.982,812.66973,
1227.072,791.84755,
1224.161,803.82306,
1221.251,789.25129,
1218.340,768.47532,
1215.430,764.22875,
1212.519,765.56396,
1209.608,759.83124,
1206.698,752.86435,
1203.787,753.55591,
1200.877,764.14914,
1197.966,744.36764,
1195.055,767.26596,
1192.145,803.68277,
1189.234,818.26775,
1186.324,842.74078,
1183.413,838.41051,
1180.503,836.6927,
1177.592,878.75859,
1174.681,836.95377,
1171.771,813.70469,
1168.860,827.99412,
1165.950,819.69953,
1163.039,816.6766,
1160.129,837.60978,
1157.218,854.29794,
1154.307,852.66475,
1151.397,846.375,
1148.486,848.17328,
1145.576,856.52472,
1142.665,813.9049,
1139.754,831.52935,
1136.844,820.96834,
1133.933,841.35428,
1131.023,849.98889,
1128.112,827.30518,
1125.202,803.99337,
1122.291,791.99629,
1119.380,782.78208,
1116.470,824.26091,
1113.559,804.63103,
1110.649,786.89747,
1107.738,799.057,
1104.828,805.22081,
1101.917,787.64107,
1099.006,782.33361,
1096.096,808.38612,
1093.185,775.90003,
1090.275,796.84384,
1087.364,791.39703,
1084.453,806.06125,
1081.543,802.96972,
1078.632,786.89647,
1075.722,804.87948,
1072.811,810.94063,
1069.901,804.82781,
1066.990,812.45831,
1064.079,806.20883,
1061.169,797.40429,
1058.258,800.99774,
1055.348,812.55083,
1052.437,807.99552,
1049.527,771.44913,
1046.616,799.25167,
1043.705,817.7903,
1040.795,799.38884,
1037.884,785.86926,
1034.974,784.63015,
1032.063,788.14406,
1029.153,802.12865,
1026.242,791.74918,
1023.331,785.54204,
1020.421,840.14312,
1017.510,852.60921,
1014.600,832.37882,
1011.689,820.79584,
1008.778,828.49533,
1005.868,823.18967,
1002.957,802.54117,
1000.047,842.32702,
997.136,856.61302,
994.226,879.46693,
991.315,902.98144,
988.404,882.86257,
985.494,853.78042,
982.583,827.22718,
979.673,824.10665,
976.762,836.11704,
973.852,841.28093,
970.941,833.22567,
968.030,822.92413,
965.120,820.63276,
962.209,882.01579,
959.299,849.88005,
956.388,834.05489,
953.477,844.4176,
950.567,867.57052,
947.656,896.26359,
944.746,895.41403,
941.835,873.51004,
938.925,897.32921,
936.014,911.86917,
933.103,901.13526,
930.193,884.37257,
927.282,890.35854,
924.372,853.15184,
921.461,878.56741,
918.551,891.69873,
915.640,887.42579,
912.729,878.30157,
909.819,873.0397,
906.908,855.34877,
903.998,863.91937,
901.087,872.74006,
898.176,863.96793,
895.266,855.77078,
892.355,870.20208,
889.445,885.30888,
886.534,892.05397,
883.624,906.15881,
880.713,923.60283,
877.802,921.8689,
874.892,886.97651,
871.981,833.39607,
869.071,707.24872,
866.160,681.9252,
863.250,745.90035,
860.339,832.22307,
857.428,882.67071,
854.518,891.65285,
851.607,866.69077,
848.697,837.61358,
845.786,774.99735,
842.875,759.18391,
839.965,833.82203,
837.054,904.45873,
834.144,911.9175,
831.233,966.70448,
828.323,962.71155,
825.412,943.28763,
822.501,965.99196,
819.591,952.76957,
816.680,953.17628,
813.770,942.72446,
810.859,927.80143,
807.949,929.22627,
805.038,957.38826,
802.127,932.69444,
799.217,937.08352,
796.306,917.80727,
793.396,921.23017,
790.485,952.16442,
787.574,952.55823,
784.664,983.72249,
781.753,972.6004,
778.843,976.62706,
775.932,983.5109,
773.022,967.83905,
770.111,951.48748,
767.200,977.02094,
764.290,993.46529,
761.379,985.9835,
758.469,969.35107,
755.558,984.05893,
752.648,973.46909,
749.737,952.44411,
746.826,941.90878,
743.916,951.98555,
741.005,979.74182,
738.095,982.98933,
735.184,944.76178,
732.274,903.08013,
729.363,876.34893,
726.452,873.44473,
723.542,890.44199,
720.631,931.89557,
717.721,968.43451,
714.810,993.60791,
711.899,1003.87,
708.989,997.41464,
706.078,1024.6193,
703.168,1018.0161,
700.257,1007.7247,
697.347,1002.7666,
694.436,993.63686,
691.525,1003.2825,
688.615,996.57024,
685.704,985.33129,
682.794,990.71528,
679.883,1033.546,
676.973,1015.1145,
674.062,996.69911,
671.151,994.94995,
668.241,1012.9049,
665.330,1041.3329,
662.420,998.20142,
659.509,996.99417,
656.598,1015.6557,
653.688,1048.4076,
650.777,1093.4578,
647.867,1036.9185,
644.956,1034.2814,
642.046,1011.7677,
639.135,974.51914,
636.224,986.48243,
633.314,1007.9188,
630.403,1030.5201,
627.493,1035.8457,
624.582,1022.0201,
621.672,1006.9723,
618.761,1013.9744,
615.850,1044.4754,
612.940,1059.1782,
610.029,1039.9554,
607.119,1019.425,
604.208,1068.496,
601.297,1094.3602,
598.387,1081.6038,
595.476,1037.3007,
592.566,1036.5137,
589.655,1073.3047,
586.745,1101.1864,
583.834,1103.47,
580.923,1075.3608,
578.013,1073.0066,
575.102,1060.3296,
572.192,1068.8819,
569.281,1097.563,
566.371,1081.9105,
563.460,1102.95,
560.549,1114.8114,
557.639,1124.8948,
554.728,1147.4937,
551.818,1181.0473,
548.907,1129.8713,
545.996,1098.5956,
543.086,1107.7039,
540.175,1104.5894,
537.265,1091.338,
534.354,1094.9037,
531.444,1102.8177,
528.533,1103.6375,
525.622,1135.4513,
522.712,1116.2846,
519.801,1083.7179,
516.891,1061.9746,
513.980,1079.7834,
511.070,1076.4446,
508.159,1090.6123,
505.248,1101.6152,
502.338,1082.369,
499.427,1116.3297,
496.517,1128.2033,
493.606,1133.7399,
490.695,1137.8074,
487.785,1119.3324,
484.874,1124.1297,
481.964,1099.7208,
479.053,1065.6262,
476.143,1091.7369,
473.232,1099.8496,
470.321,1105.781,
467.411,1102.7902,
464.500,1084.0538,
461.590,1110.8547,
458.679,1118.9253,
455.769,1108.3478,
452.858,1089.6243,
449.947,1140.0438,
447.037,1107.9018,
444.126,1085.5508,
441.216,1094.7719,
438.305,1097.0577,
435.395,1132.7794,
432.484,1135.9552,
429.573,1110.825,
426.663,1095.6221,
423.752,996.03892,
420.842,896.28925,
417.931,794.11546,
415.020,673.53652,
412.110,818.62408,
409.199,961.88346,
406.289,1060.2785,
403.378,1078.1445,
400.468,1010.105,
397.557,1001.7429,
394.646,1032.9598,
391.736,1083.0853,
388.825,1074.0345,
385.915,1075.1004,
383.004,1079.5172,
380.094,1082.6437,
377.183,1087.9111,
374.272,1096.9739,
371.362,1111.3218,
368.451,1128.5058,
365.541,1097.7338,
362.630,1112.8633,
359.719,1122.904,
356.809,1100.2844,
353.898,1098.7868,
350.988,1101.0874,
348.077,1109.4736,
345.167,1123.2398,
342.256,1100.8277,
339.345,1093.8436,
336.435,1111.1409,
333.524,1156.9052,
330.614,1142.0021,
327.703,1145.5895,
324.793,1145.3835,
321.882,1122.3876,
318.971,1127.5917,
316.061,1117.1671,
313.150,1120.3107,
310.240,1171.5167,
307.329,1178.3775,
304.418,1171.7119,
301.508,1172.2058,
298.597,1212.9287,
295.687,1183.8675,
292.776,1168.375,
289.866,1168.2193,
286.955,1167.4806,
284.044,1211.0175,
281.134,1249.3351,
278.223,1269.9738,
275.313,1260.3947,
272.402,1272.3167,
269.492,1279.2065,
266.581,1270.7459,
263.670,1247.9553,
260.760,1251.3003,
257.849,1273.9762,
254.939,1312.872,
252.028,1281.5258,
249.117,1268.4613,
246.207,1265.4809,
243.296,1258.1605,
240.386,1288.0656,
237.475,1298.6122,
234.565,1299.383,
231.654,1362.9263,
228.743,1352.7849,
225.833,1318.9106,
222.922,1281.1032,
220.012,1275.2748,
217.101,1283.1893,
214.191,1286.3811,
211.280,1263.1023,
208.369,1234.4625,
205.459,1239.3413,
202.548,1271.8903,
199.638,1303.8189,
196.727,1290.2074,
193.816,1279.2883,
190.906,1285.1245,
187.995,1192.4493,
185.085,1187.8006,
182.174,1208.1891,
179.264,1170.6052,
176.353,1170.8605,
173.442,1178.8134,
170.532,1178.4622,
167.621,1093.387,
164.711,1084.5653,
161.800,1052.1543,
158.890,919.72444,
155.979,849.6968,
153.068,771.53858,
150.158,681.29718,
147.247,575.04024,
144.337,481.67009,
141.426,378.27495,
138.516,252.81899,
135.605,186.2443,
132.694,137.76043,
129.784,101.26714,
126.873,64.795522,
123.963,42.579177,
121.052,24.292769,
118.141,6.4452195,
115.231,13.480704,
112.320,12.985913,
109.410,9.1931315,
106.499,13.466063,
103.589,8.7724552,
100.678,3.5601349,
97.767,1.4273222,
94.857,6.2259233,
91.946,6.3594456,
89.036,3.7136937,
86.125,5.8413095,
83.215,5.8440796,
80.304,3.4595385,
77.393,-2.205821,
74.483,3.2712146,
71.572,3.4761831,
68.662,-0.932325,
65.751,6.1321858,
62.840,5.9664901,
59.930,4.8732896,
57.019,10.513945,
54.109,3.611909,
51.198,0.7878742,
48.288,6.3353629,
45.377,1.4117164,
42.466,0.19943868,
39.556,2.0657115,
36.645,6.2788528,
33.735,3.7402607,
30.824,0.375,
27.914,0.375,
25.003,0.99763748,
22.092,-0.56242735,
19.182,-4.3504056,
16.271,4.0434759,
13.361,41.513096,
10.450,79.240578,
7.539,26.168611,
4.629,-255.59766,
1.718,-592.15183,
-1.192,-871.00964,
-4.103,-716.42445,
-7.013,-413.33973,
-9.924,-0.625,
