,PL631F~1,
Wavenumbers [1/cm],Intensity,
3014.167,0.5,
3011.256,2.1999356,
3008.346,80.119722,
3005.435,70.464668,
3002.525,83.122483,
2999.614,94.293554,
2996.704,114.32268,
2993.793,100.77534,
2990.882,93.362532,
2987.972,134.30829,
2985.061,104.48031,
2982.151,118.90337,
2979.240,119.14732,
2976.329,126.73771,
2973.419,132.89974,
2970.508,139.80002,
2967.598,129.35663,
2964.687,138.91712,
2961.777,143.44008,
2958.866,147.16271,
2955.955,154.0177,
2953.045,157.94966,
2950.134,156.10642,
2947.224,162.75622,
2944.313,169.70228,
2941.403,168.36907,
2938.492,169.22358,
2935.581,181.95152,
2932.671,168.1052,
2929.760,193.96538,
2926.850,184.02256,
2923.939,202.26169,
2921.028,204.97656,
2918.118,190.76071,
2915.207,195.32277,
2912.297,196.49154,
2909.386,201.71897,
2906.476,206.27529,
2903.565,201.22518,
2900.654,203.54754,
2897.744,202.52514,
2894.833,199.13927,
2891.923,197.9872,
2889.012,190.99133,
2886.102,208.62704,
2883.191,191.50944,
2880.280,202.28469,
2877.370,141.49438,
2874.459,46.562838,
2871.549,74.842567,
2868.638,164.59686,
2865.727,164.31157,
2862.817,184.01601,
2859.906,181.18376,
2856.996,190.97962,
2854.085,218.3866,
2851.175,204.54818,
2848.264,202.36267,
2845.353,199.71567,
2842.443,207.90279,
2839.532,205.5,
2836.622,202.32031,
2833.711,213.55181,
2830.801,202.80956,
2827.890,221.12588,
2824.979,210.09211,
2822.069,219.39765,
2819.158,213.92049,
2816.248,217.25868,
2813.337,210.9122,
2810.427,207.1033,
2807.516,216.5,
2804.605,231.23076,
2801.695,220.76316,
2798.784,211.38708,
2795.874,202.77439,
2792.963,199.35681,
2790.052,219.49399,
2787.142,213.22389,
2784.231,213.21121,
2781.321,207.87716,
2778.410,217.64974,
2775.500,232.69034,
2772.589,216.53747,
2769.678,217.74566,
2766.768,228.38348,
2763.857,233.28998,
2760.947,225.42435,
2758.036,240.60844,
2755.126,237.64103,
2752.215,250.47737,
2749.304,235.69247,
2746.394,228.13507,
2743.483,232.69999,
2740.573,246.03324,
2737.662,215.9571,
2734.751,225.61649,
2731.841,248.79854,
2728.930,243.13144,
2726.020,234.83681,
2723.109,241.04633,
2720.199,251.61885,
2717.288,242.93796,
2714.377,245.75836,
2711.467,268.97582,
2708.556,251.02126,
2705.646,259.10565,
2702.735,260.48452,
2699.825,250.88002,
2696.914,276.73866,
2694.003,272.913,
2691.093,278.03551,
2688.182,256.46222,
2685.272,271.65932,
2682.361,267.19432,
2679.450,255.37655,
2676.540,250.86583,
2673.629,259.20857,
2670.719,248.20795,
2667.808,257.25682,
2664.898,275.53891,
2661.987,266.03309,
2659.076,265.22844,
2656.166,265.79006,
2653.255,268.75681,
2650.345,258.25136,
2647.434,252.52887,
2644.524,265.81656,
2641.613,274.30013,
2638.702,283.38953,
2635.792,287.90578,
2632.881,290.34526,
2629.971,286.88253,
2627.060,274.83125,
2624.149,291.04063,
2621.239,292.75445,
2618.328,281.5,
2615.418,278.51363,
2612.507,286.15212,
2609.597,272.70359,
2606.686,286.08434,
2603.775,288.5,
2600.865,298.4386,
2597.954,283.74577,
2595.044,307.17848,
2592.133,295.9394,
2589.223,294.9579,
2586.312,311.8417,
2583.401,308.11312,
2580.491,305.1298,
2577.580,316.44554,
2574.670,287.9278,
2571.759,306.10616,
2568.848,308.20717,
2565.938,314.30954,
2563.027,307.74321,
2560.117,294.41588,
2557.206,310.48524,
2554.296,318.98513,
2551.385,316.938,
2548.474,331.57435,
2545.564,327.81656,
2542.653,323.19463,
2539.743,331.9199,
2536.832,306.7841,
2533.922,330.72077,
2531.011,343.12512,
2528.100,334.16897,
2525.190,350.05492,
2522.279,348.99926,
2519.369,317.29253,
2516.458,306.71672,
2513.548,336.0995,
2510.637,336.31555,
2507.726,330.68958,
2504.816,335.18884,
2501.905,357.29695,
2498.995,330.39578,
2496.084,348.48609,
2493.173,342.57847,
2490.263,333.69097,
2487.352,351.91573,
2484.442,342.20234,
2481.531,349.39364,
2478.621,353.6422,
2475.710,349.66102,
2472.799,364.58078,
2469.889,352.31719,
2466.978,352.00522,
2464.068,341.8386,
2461.157,366.76754,
2458.247,364.19123,
2455.336,369.84051,
2452.425,370.39151,
2449.515,364.72662,
2446.604,374.91013,
2443.694,365.87168,
2440.783,372.88401,
2437.872,361.08344,
2434.962,373.87328,
2432.051,371.37663,
2429.141,388.59985,
2426.230,367.32535,
2423.320,387.01396,
2420.409,391.42325,
2417.498,390.26125,
2414.588,383.96775,
2411.677,373.75504,
2408.767,405.47638,
2405.856,400.90714,
2402.946,400.44638,
2400.035,411.1878,
2397.124,380.86896,
2394.214,412.69039,
2391.303,403.13551,
2388.393,386.24651,
2385.482,384.58812,
2382.571,368.9936,
2379.661,374.1046,
2376.750,391.81273,
2373.840,392.87191,
2370.929,415.22926,
2368.019,411.54739,
2365.108,428.10471,
2362.197,422.7219,
2359.287,426.68496,
2356.376,422.51057,
2353.466,431.98639,
2350.555,409.10499,
2347.645,410.86821,
2344.734,418.80416,
2341.823,407.71558,
2338.913,432.03284,
2336.002,438.57891,
2333.092,433.67262,
2330.181,436.57158,
2327.270,427.27007,
2324.360,440.26411,
2321.449,459.97618,
2318.539,457.64986,
2315.628,442.87929,
2312.718,440.56608,
2309.807,459.63663,
2306.896,453.68935,
2303.986,445.29234,
2301.075,460.79789,
2298.165,472.06756,
2295.254,452.99549,
2292.344,473.1349,
2289.433,454.78954,
2286.522,461.4686,
2283.612,486.09057,
2280.701,497.28922,
2277.791,469.42172,
2274.880,483.15416,
2271.969,457.14198,
2269.059,473.43734,
2266.148,471.74541,
2263.238,480.19497,
2260.327,494.36205,
2257.417,491.07667,
2254.506,479.62248,
2251.595,487.76898,
2248.685,502.97307,
2245.774,491.78592,
2242.864,492.37033,
2239.953,494.36889,
2237.043,507.88964,
2234.132,504.64547,
2231.221,505.76359,
2228.311,512.71907,
2225.400,523.72516,
2222.490,531.12866,
2219.579,523.00382,
2216.669,515.97377,
2213.758,521.5,
2210.847,512.63351,
2207.937,540.23775,
2205.026,550.61049,
2202.116,556.22508,
2199.205,532.74941,
2196.294,541.69001,
2193.384,566.49904,
2190.473,552.61854,
2187.563,567.50483,
2184.652,570.90979,
2181.742,575.63526,
2178.831,572.967,
2175.920,587.17395,
2173.010,591.37585,
2170.099,619.7639,
2167.189,622.62198,
2164.278,641.2608,
2161.368,654.3568,
2158.457,666.1599,
2155.546,675.86347,
2152.636,677.10639,
2149.725,708.12414,
2146.815,700.96716,
2143.904,696.02041,
2140.993,746.89681,
2138.083,747.8526,
2135.172,736.04618,
2132.262,729.24824,
2129.351,740.58283,
2126.441,740.08251,
2123.530,741.52245,
2120.619,738.27086,
2117.709,698.11675,
2114.798,672.83841,
2111.888,652.17559,
2108.977,638.22848,
2106.067,613.23191,
2103.156,622.21687,
2100.245,601.50188,
2097.335,605.46335,
2094.424,609.14911,
2091.514,592.06446,
2088.603,584.29722,
2085.692,587.90893,
2082.782,598.10234,
2079.871,600.85706,
2076.961,605.17711,
2074.050,598.93636,
2071.140,601.54645,
2068.229,575.39843,
2065.318,595.00676,
2062.408,593.68155,
2059.497,594.12502,
2056.587,597.53496,
2053.676,586.51722,
2050.766,608.4985,
2047.855,565.87023,
2044.944,576.23879,
2042.034,564.81796,
2039.123,590.80303,
2036.213,606.79105,
2033.302,619.93432,
2030.391,607.50103,
2027.481,594.68285,
2024.570,605.92835,
2021.660,570.80604,
2018.749,608.7022,
2015.839,586.6168,
2012.928,576.56879,
2010.017,592.26548,
2007.107,595.42707,
2004.196,574.5,
2001.286,591.4187,
1998.375,594.1496,
1995.465,565.32857,
1992.554,557.62354,
1989.643,593.22114,
1986.733,568.0886,
1983.822,580.89808,
1980.912,582.97423,
1978.001,545.5167,
1975.090,558.89084,
1972.180,547.05321,
1969.269,528.80172,
1966.359,525.55403,
1963.448,524.5,
1960.538,557.7719,
1957.627,538.75075,
1954.716,535.5,
1951.806,534.00966,
1948.895,506.01011,
1945.985,511.33824,
1943.074,504.19764,
1940.164,486.71197,
1937.253,509.44808,
1934.342,487.95294,
1931.432,499.24133,
1928.521,495.91451,
1925.611,478.85074,
1922.700,476.29144,
1919.790,481.66757,
1916.879,469.47649,
1913.968,458.5123,
1911.058,530.06455,
1908.147,482.96133,
1905.237,488.52939,
1902.326,467.22594,
1899.415,435.11339,
1896.505,402.241,
1893.594,417.85675,
1890.684,426.33664,
1887.773,454.99916,
1884.863,478.22437,
1881.952,476.80251,
1879.041,485.57788,
1876.131,468.95491,
1873.220,471.47348,
1870.310,484.56724,
1867.399,516.98821,
1864.489,450.16204,
1861.578,469.67558,
1858.667,497.12577,
1855.757,477.30072,
1852.846,476.75128,
1849.936,474.47698,
1847.025,463.26643,
1844.114,462.74238,
1841.204,492.8951,
1838.293,518.49667,
1835.383,490.44253,
1832.472,489.22174,
1829.562,523.38646,
1826.651,499.99491,
1823.740,517.98665,
1820.830,482.65706,
1817.919,498.63193,
1815.009,512.34987,
1812.098,524.27165,
1809.188,516.12018,
1806.277,509.63279,
1803.366,509.5,
1800.456,510.2694,
1797.545,526.5424,
1794.635,553.01695,
1791.724,534.28634,
1788.813,560.10206,
1785.903,555.00977,
1782.992,526.889,
1780.082,529.30279,
1777.171,435.81207,
1774.261,377.67043,
1771.350,446.95151,
1768.439,522.88667,
1765.529,572.13893,
1762.618,575.4556,
1759.708,555.88038,
1756.797,580.62121,
1753.887,603.6793,
1750.976,601.5,
1748.065,583.68126,
1745.155,603.79656,
1742.244,598.32522,
1739.334,573.49059,
1736.423,600.70743,
1733.512,612.31707,
1730.602,612.99603,
1727.691,601.98509,
1724.781,652.77378,
1721.870,650.5999,
1718.960,690.0783,
1716.049,644.96664,
1713.138,641.33997,
1710.228,656.42475,
1707.317,657.61543,
1704.407,675.46794,
1701.496,647.41892,
1698.586,663.90367,
1695.675,705.73547,
1692.764,658.32374,
1689.854,641.1496,
1686.943,666.58941,
1684.033,694.80459,
1681.122,699.43203,
1678.211,728.224,
1675.301,746.4445,
1672.390,738.41626,
1669.480,710.76473,
1666.569,744.51567,
1663.659,822.8957,
1660.748,787.07845,
1657.837,816.67496,
1654.927,824.99201,
1652.016,846.37477,
1649.106,882.0141,
1646.195,903.0035,
1643.285,924.82162,
1640.374,981.16551,
1637.463,966.09448,
1634.553,999.35712,
1631.642,1057.0538,
1628.732,1107.7429,
1625.821,1148.5523,
1622.911,1228.0492,
1620.000,1288.7315,
1617.089,1329.6841,
1614.179,1397.5541,
1611.268,1477.4886,
1608.358,1568.1923,
1605.447,1665.8436,
1602.536,1711.5711,
1599.626,1776.1355,
1596.715,1773.3316,
1593.805,1742.0927,
1590.894,1780.7722,
1587.984,1796.027,
1585.073,1731.9871,
1582.162,1692.1139,
1579.252,1622.6725,
1576.341,1590.0755,
1573.431,1579.2346,
1570.520,1536.2236,
1567.610,1533.9315,
1564.699,1494.7232,
1561.788,1467.9367,
1558.878,1474.4242,
1555.967,1414.0942,
1553.057,1383.6896,
1550.146,1386.7291,
1547.235,1339.0932,
1544.325,1324.7281,
1541.414,1338.4199,
1538.504,1350.8589,
1535.593,1344.0234,
1532.683,1329.0127,
1529.772,1331.6188,
1526.861,1347.4211,
1523.951,1383.3454,
1521.040,1389.102,
1518.130,1407.869,
1515.219,1463.1397,
1512.309,1457.6351,
1509.398,1400.4698,
1506.487,1358.492,
1503.577,1358.6828,
1500.666,1309.5146,
1497.756,1328.4749,
1494.845,1361.7785,
1491.934,1296.4244,
1489.024,1273.3246,
1486.113,1299.3893,
1483.203,1238.4401,
1480.292,1210.9842,
1477.382,1233.3639,
1474.471,1177.3423,
1471.560,1147.615,
1468.650,1128.468,
1465.739,1145.1981,
1462.829,1169.8395,
1459.918,1228.3292,
1457.008,1227.361,
1454.097,1181.8784,
1451.186,1178.9952,
1448.276,1147.4479,
1445.365,1061.7812,
1442.455,995.74726,
1439.544,964.05132,
1436.633,957.25671,
1433.723,935.36632,
1430.812,954.83506,
1427.902,946.0941,
1424.991,929.03438,
1422.081,939.50973,
1419.170,945.68436,
1416.259,967.56164,
1413.349,1007.9963,
1410.438,997.80683,
1407.528,966.61278,
1404.617,952.73862,
1401.707,920.23351,
1398.796,843.40922,
1395.885,819.09081,
1392.975,836.64476,
1390.064,780.37641,
1387.154,761.53759,
1384.243,763.56749,
1381.332,726.49599,
1378.422,734.83814,
1375.511,741.3956,
1372.601,801.40207,
1369.690,816.78667,
1366.780,839.09291,
1363.869,883.72976,
1360.958,899.82043,
1358.048,909.39968,
1355.137,936.52736,
1352.227,977.0034,
1349.316,1028.9404,
1346.406,1084.2304,
1343.495,1113.7491,
1340.584,1123.7851,
1337.674,1171.4312,
1334.763,1213.488,
1331.853,1239.4505,
1328.942,1253.842,
1326.032,1277.5218,
1323.121,1301.7651,
1320.210,1322.4843,
1317.300,1367.2749,
1314.389,1443.3482,
1311.479,1484.3835,
1308.568,1494.1004,
1305.657,1533.0859,
1302.747,1574.1344,
1299.836,1661.957,
1296.926,1681.2519,
1294.015,1718.9442,
1291.105,1721.3805,
1288.194,1782.2045,
1285.283,1811.8201,
1282.373,1810.5391,
1279.462,1827.3623,
1276.552,1845.4291,
1273.641,1860.5454,
1270.731,1872.0328,
1267.820,1834.7363,
1264.909,1797.6209,
1261.999,1798.7663,
1259.088,1806.0633,
1256.178,1801.3613,
1253.267,1802.8016,
1250.356,1772.3463,
1247.446,1747.5256,
1244.535,1726.625,
1241.625,1709.6741,
1238.714,1704.2546,
1235.804,1699.0971,
1232.893,1688.8775,
1229.982,1677.2547,
1227.072,1670.0122,
1224.161,1640.9229,
1221.251,1650.3902,
1218.340,1592.0144,
1215.430,1586.1278,
1212.519,1585.9565,
1209.608,1552.8931,
1206.698,1547.0533,
1203.787,1555.4347,
1200.877,1561.1129,
1197.966,1571.0037,
1195.055,1597.0975,
1192.145,1691.6612,
1189.234,1759.13,
1186.324,1820.413,
1183.413,1862.8909,
1180.503,1895.7589,
1177.592,1916.9642,
1174.681,1846.4281,
1171.771,1873.4794,
1168.860,1872.5863,
1165.950,1837.8296,
1163.039,1849.7537,
1160.129,1870.2971,
1157.218,1878.0193,
1154.307,1893.0831,
1151.397,1919.5,
1148.486,1926.3934,
1145.576,1964.3821,
1142.665,1938.6326,
1139.754,1936.5,
1136.844,1932.9985,
1133.933,1945.5761,
1131.023,1914.8998,
1128.112,1859.8585,
1125.202,1846.6063,
1122.291,1853.6091,
1119.380,1812.7165,
1116.470,1834.7797,
1113.559,1786.4656,
1110.649,1742.6868,
1107.738,1740.8955,
1104.828,1749.5873,
1101.917,1740.4702,
1099.006,1726.2217,
1096.096,1715.5538,
1093.185,1716.4318,
1090.275,1769.1026,
1087.364,1797.2808,
1084.453,1823.6238,
1081.543,1843.3204,
1078.632,1853.8875,
1075.722,1865.9448,
1072.811,1873.9559,
1069.901,1838.1522,
1066.990,1832.2667,
1064.079,1817.8897,
1061.169,1787.1987,
1058.258,1778.0871,
1055.348,1786.3269,
1052.437,1767.0723,
1049.527,1745.7755,
1046.616,1778.791,
1043.705,1755.5232,
1040.795,1746.223,
1037.884,1755.6148,
1034.974,1758.424,
1032.063,1750.5537,
1029.153,1762.9807,
1026.242,1758.6559,
1023.331,1735.1682,
1020.421,1792.542,
1017.510,1827.3439,
1014.600,1837.3064,
1011.689,1847.3462,
1008.778,1859.7932,
1005.868,1861.2606,
1002.957,1834.5896,
1000.047,1911.308,
997.136,1973.2156,
994.226,1984.3463,
991.315,1968.9777,
988.404,1953.9887,
985.494,1894.1548,
982.583,1878.7367,
979.673,1888.938,
976.762,1887.629,
973.852,1873.7758,
970.941,1857.6471,
968.030,1843.3901,
965.120,1814.7613,
962.209,1876.9969,
959.299,1883.2505,
956.388,1874.7804,
953.477,1894.9837,
950.567,1928.3629,
947.656,1923.288,
944.746,1952.1729,
941.835,1938.9234,
938.925,1952.6093,
936.014,1970.6049,
933.103,1977.7345,
930.193,1970.9044,
927.282,1954.9877,
924.372,1927.0826,
921.461,1938.9644,
918.551,1911.9677,
915.640,1877.0265,
912.729,1863.3785,
909.819,1867.0543,
906.908,1856.1028,
903.998,1872.998,
901.087,1867.9524,
898.176,1852.0017,
895.266,1844.6262,
892.355,1853.9712,
889.445,1856.489,
886.534,1904.9226,
883.624,1902.389,
880.713,1906.7071,
877.802,1911.9839,
874.892,1880.5192,
871.981,1774.2782,
869.071,1595.4998,
866.160,1570.7096,
863.250,1695.115,
860.339,1823.7567,
857.428,1878.1179,
854.518,1966.6595,
851.607,1868.4754,
848.697,1782.7183,
845.786,1756.6897,
842.875,1778.2783,
839.965,1836.4425,
837.054,1959.9373,
834.144,1998.8886,
831.233,2043.164,
828.323,2042.7063,
825.412,2039.2762,
822.501,2071.3085,
819.591,2064.6973,
816.680,2043.6666,
813.770,2022.8374,
810.859,1980.1082,
807.949,1942.2561,
805.038,1949.0022,
802.127,1944.8866,
799.217,1904.9943,
796.306,1885.2567,
793.396,1894.1261,
790.485,1912.3413,
787.574,1901.621,
784.664,1931.145,
781.753,1974.7461,
778.843,2012.6132,
775.932,2023.5495,
773.022,2005.6556,
770.111,2019.5544,
767.200,1961.8789,
764.290,1966.0372,
761.379,1970.2901,
758.469,1946.6869,
755.558,1929.3023,
752.648,1956.1842,
749.737,1937.9996,
746.826,1932.4933,
743.916,1943.5715,
741.005,1946.7313,
738.095,1904.5137,
735.184,1842.2952,
732.274,1807.4044,
729.363,1817.6825,
726.452,1858.6229,
723.542,1853.7666,
720.631,1926.1312,
717.721,1962.8211,
714.810,1983.3977,
711.899,2001.3812,
708.989,2009.4504,
706.078,2031.9365,
703.168,2024.1411,
700.257,2007.6611,
697.347,1992.5874,
694.436,1978.3254,
691.525,1971.895,
688.615,1981.1915,
685.704,1979.2978,
682.794,1993.5423,
679.883,2076.9057,
676.973,2108.1591,
674.062,2073.0247,
671.151,2054.3216,
668.241,2056.688,
665.330,2044.5378,
662.420,2045.3365,
659.509,2021.3726,
656.598,2020.0497,
653.688,2068.706,
650.777,2176.041,
647.867,2162.5034,
644.956,2131.6382,
642.046,2060.6022,
639.135,1993.094,
636.224,2025.6114,
633.314,2047.8417,
630.403,2051.7264,
627.493,2054.7248,
624.582,2051.9651,
621.672,2009.1975,
618.761,2012.8196,
615.850,2077.8636,
612.940,2116.8632,
610.029,2090.1326,
607.119,2075.9192,
604.208,2105.7406,
601.297,2139.9363,
598.387,2127.6774,
595.476,2043.8714,
592.566,2047.8067,
589.655,2103.5707,
586.745,2113.1035,
583.834,2083.4258,
580.923,2072.6516,
578.013,2097.7631,
575.102,2110.8095,
572.192,2120.502,
569.281,2135.5458,
566.371,2169.1986,
563.460,2156.9797,
560.549,2165.1184,
557.639,2201.7165,
554.728,2257.7755,
551.818,2230.4644,
548.907,2214.14,
545.996,2205.5561,
543.086,2197.6349,
540.175,2175.0542,
537.265,2177.8457,
534.354,2165.9544,
531.444,2162.8103,
528.533,2190.5485,
525.622,2205.2915,
522.712,2198.1852,
519.801,2146.82,
516.891,2083.5773,
513.980,2128.4865,
511.070,2136.0217,
508.159,2134.157,
505.248,2137.0094,
502.338,2156.613,
499.427,2160.4721,
496.517,2167.7222,
493.606,2185.9597,
490.695,2211.9651,
487.785,2208.1161,
484.874,2166.1417,
481.964,2143.9153,
479.053,2133.8362,
476.143,2089.2944,
473.232,2133.9806,
470.321,2152.9866,
467.411,2145.6489,
464.500,2123.043,
461.590,2144.4837,
458.679,2149.9497,
455.769,2153.2808,
452.858,2165.7949,
449.947,2207.0472,
447.037,2195.4769,
444.126,2185.8273,
441.216,2189.2511,
438.305,2176.2983,
435.395,2221.7058,
432.484,2203.1578,
429.573,2144.985,
426.663,2155.627,
423.752,1989.1194,
420.842,1774.9273,
417.931,1559.9587,
415.020,1396.1534,
412.110,1725.5788,
409.199,2023.0719,
406.289,2204.7621,
403.378,2202.2541,
400.468,2129.6786,
397.557,2095.7029,
394.646,2098.6979,
391.736,2136.2143,
388.825,2189.7647,
385.915,2199.6459,
383.004,2184.506,
380.094,2161.1507,
377.183,2193.5072,
374.272,2216.0695,
371.362,2231.6206,
368.451,2239.6764,
365.541,2209.6549,
362.630,2200.9538,
359.719,2221.5137,
356.809,2267.694,
353.898,2204.795,
350.988,2205.9445,
348.077,2238.3437,
345.167,2275.1861,
342.256,2190.0203,
339.345,2208.0146,
336.435,2236.8946,
333.524,2214.5235,
330.614,2215.2686,
327.703,2266.3271,
324.793,2302.8994,
321.882,2269.6298,
318.971,2323.1577,
316.061,2345.8948,
313.150,2351.8857,
310.240,2356.3384,
307.329,2394.3758,
304.418,2429.5619,
301.508,2469.6477,
298.597,2530.3619,
295.687,2481.3208,
292.776,2491.7502,
289.866,2565.0751,
286.955,2672.1903,
284.044,2681.175,
281.134,2748.225,
278.223,2869.7934,
275.313,2878.6356,
272.402,2939.7521,
269.492,2963.4888,
266.581,2921.2388,
263.670,2903.5945,
260.760,2964.8427,
257.849,3031.6591,
254.939,3049.2722,
252.028,3070.4915,
249.117,3059.3132,
246.207,3043.887,
243.296,3072.4365,
240.386,3097.0487,
237.475,3109.6526,
234.565,3118.0569,
231.654,3159.6888,
228.743,3151.8143,
225.833,3120.2915,
222.922,3074.6654,
220.012,3035.3234,
217.101,3043.1101,
214.191,3047.0152,
211.280,2988.8182,
208.369,2975.7534,
205.459,2954.3322,
202.548,2929.5028,
199.638,2935.308,
196.727,2904.8081,
193.816,2898.6583,
190.906,2936.316,
187.995,2874.0499,
185.085,2838.7872,
182.174,2812.5305,
179.264,2772.0556,
176.353,2786.7234,
173.442,2816.7156,
170.532,2841.9313,
167.621,2768.3918,
164.711,2693.3154,
161.800,2560.4316,
158.890,2317.1636,
155.979,2184.306,
153.068,2050.2003,
150.158,1885.0303,
147.247,1594.2596,
144.337,1323.1735,
141.426,1045.1593,
138.516,746.93256,
135.605,543.1523,
132.694,376.58459,
129.784,247.02996,
126.873,167.65055,
123.963,117.35579,
121.052,80.73501,
118.141,53.606734,
115.231,41.420304,
112.320,33.958184,
109.410,29.818224,
106.499,26.257448,
103.589,20.45771,
100.678,16.771622,
97.767,17.482559,
94.857,14.035055,
91.946,16.531109,
89.036,21.258123,
86.125,13.456865,
83.215,12.03092,
80.304,9.6268078,
77.393,1.1287685,
74.483,5.0859447,
71.572,6.4129437,
68.662,4.22293,
65.751,1.3971257,
62.840,5.7987218,
59.930,9.8144242,
57.019,3.4686863,
54.109,0.70851746,
51.198,0.7064371,
48.288,3.5226498,
45.377,6.336162,
42.466,4.2022453,
39.556,-0.15464427,
36.645,1.9519264,
33.735,5.0962423,
30.824,2.8613735,
27.914,-11.863307,
25.003,-11.632088,
22.092,-12.114523,
19.182,-15.133874,
16.271,-3.9420321,
13.361,16.936861,
10.450,7.1689549,
7.539,-180.67788,
4.629,-578.53568,
1.718,-977.12872,
-1.192,-1210.6721,
-4.103,-967.6564,
-7.013,-552.84244,
-9.924,-6.5,
