,PL6345~1,
Wavenumbers [1/cm],Intensity,
3014.167,-0.125,
3011.256,2.1249463,
3008.346,51.624705,
3005.435,38.147088,
3002.525,51.875,
2999.614,44.587991,
2996.704,54.370874,
2993.793,49.875,
2990.882,52.13453,
2987.972,66.819505,
2985.061,56.31835,
2982.151,59.517019,
2979.240,52.407313,
2976.329,63.885921,
2973.419,61.613382,
2970.508,65.491663,
2967.598,56.636044,
2964.687,63.814537,
2961.777,64.19111,
2958.866,80.880939,
2955.955,72.116151,
2953.045,69.241892,
2950.134,69.055754,
2947.224,75.846531,
2944.313,79.369302,
2941.403,83.136862,
2938.492,93.427837,
2935.581,82.762121,
2932.671,68.638984,
2929.760,85.667303,
2926.850,74.345301,
2923.939,82.393682,
2921.028,92.269172,
2918.118,80.533688,
2915.207,78.115609,
2912.297,89.849612,
2909.386,85.480838,
2906.476,80.619392,
2903.565,88.407595,
2900.654,81.039816,
2897.744,68.912717,
2894.833,75.173908,
2891.923,72.576897,
2889.012,51.325869,
2886.102,65.002038,
2883.191,26.904265,
2880.280,16.865415,
2877.370,-151.47922,
2874.459,-214.20025,
2871.549,-114.32159,
2868.638,0.69968646,
2865.727,37.009591,
2862.817,51.975263,
2859.906,60.444799,
2856.996,82.295748,
2854.085,92.832971,
2851.175,82.826817,
2848.264,81.801499,
2845.353,74.371042,
2842.443,96.475696,
2839.532,94.322771,
2836.622,87.633463,
2833.711,99.76355,
2830.801,87.990435,
2827.890,110.24912,
2824.979,107.15899,
2822.069,102.02284,
2819.158,116.77527,
2816.248,111.65684,
2813.337,120.35916,
2810.427,108.16975,
2807.516,101.30688,
2804.605,114.28365,
2801.695,113.61184,
2798.784,101.68815,
2795.874,113.46077,
2792.963,110.16096,
2790.052,120.87393,
2787.142,125.62512,
2784.231,122.26322,
2781.321,107.12644,
2778.410,113.36484,
2775.500,114.57741,
2772.589,118.99044,
2769.678,129.62239,
2766.768,126.26527,
2763.857,113.92895,
2760.947,122.35924,
2758.036,124.11069,
2755.126,136.11432,
2752.215,137.66142,
2749.304,133.15199,
2746.394,129.39316,
2743.483,133.22496,
2740.573,130.22894,
2737.662,114.3321,
2734.751,126.78271,
2731.841,123.63141,
2728.930,122.12071,
2726.020,131.5434,
2723.109,124.00917,
2720.199,127.09062,
2717.288,133.85676,
2714.377,144.97074,
2711.467,144.92445,
2708.556,141.21521,
2705.646,141.26935,
2702.735,157.37242,
2699.825,147.04951,
2696.914,153.44684,
2694.003,152.41646,
2691.093,158.41051,
2688.182,154.40241,
2685.272,149.75978,
2682.361,141.99836,
2679.450,151.29063,
2676.540,144.26116,
2673.629,151.26071,
2670.719,150.35653,
2667.808,157.16681,
2664.898,153.96546,
2661.987,163.44135,
2659.076,161.34913,
2656.166,163.6326,
2653.255,166.05698,
2650.345,159.19442,
2647.434,157.36057,
2644.524,153.03328,
2641.613,165.16098,
2638.702,160.03281,
2635.792,161.21698,
2632.881,170.8334,
2629.971,146.93528,
2627.060,168.70906,
2624.149,170.68436,
2621.239,163.34239,
2618.328,147.5532,
2615.418,166.525,
2612.507,175.1161,
2609.597,155.89496,
2606.686,166.62802,
2603.775,171.4742,
2600.865,170.40402,
2597.954,179.06666,
2595.044,184.19652,
2592.133,166.08498,
2589.223,183.18871,
2586.312,181.16648,
2583.401,176.91516,
2580.491,184.77884,
2577.580,178.86345,
2574.670,176.57953,
2571.759,189.97603,
2568.848,189.22858,
2565.938,186.16069,
2563.027,183.3864,
2560.117,171.96845,
2557.206,188.95618,
2554.296,195.53175,
2551.385,197.37904,
2548.474,221.57909,
2545.564,202.76135,
2542.653,210.81124,
2539.743,219.92429,
2536.832,199.26191,
2533.922,221.52808,
2531.011,203.72467,
2528.100,209.61018,
2525.190,206.66557,
2522.279,234.84324,
2519.369,209.64884,
2516.458,200.43095,
2513.548,201.68408,
2510.637,215.53503,
2507.726,234.00509,
2504.816,217.18729,
2501.905,219.12134,
2498.995,209.41247,
2496.084,219.10149,
2493.173,218.00646,
2490.263,229.23434,
2487.352,239.08207,
2484.442,223.15337,
2481.531,216.23683,
2478.621,211.78498,
2475.710,231.95168,
2472.799,237.92886,
2469.889,226.35977,
2466.978,230.48321,
2464.068,235.7057,
2461.157,226.53241,
2458.247,243.5809,
2455.336,242.57754,
2452.425,233.74292,
2449.515,246.99766,
2446.604,243.99715,
2443.694,249.08474,
2440.783,254.63626,
2437.872,249.05732,
2434.962,251.24828,
2432.051,249.2393,
2429.141,254.16324,
2426.230,245.46172,
2423.320,273.14665,
2420.409,262.74041,
2417.498,259.67837,
2414.588,256.42254,
2411.677,244.7356,
2408.767,265.59843,
2405.856,272.47731,
2402.946,265.28519,
2400.035,271.95717,
2397.124,271.33488,
2394.214,281.5774,
2391.303,266.54912,
2388.393,257.36803,
2385.482,255.96312,
2382.571,232.55875,
2379.661,226.24709,
2376.750,242.50298,
2373.840,266.42494,
2370.929,281.74504,
2368.019,287.26047,
2365.108,286.89856,
2362.197,279.0969,
2359.287,295.83322,
2356.376,306.86443,
2353.466,293.99841,
2350.555,274.51545,
2347.645,292.6909,
2344.734,295.02708,
2341.823,321.44384,
2338.913,310.16455,
2336.002,311.32472,
2333.092,314.93254,
2330.181,313.38395,
2327.270,316.70998,
2324.360,316.10138,
2321.449,330.08927,
2318.539,319.44993,
2315.628,327.05965,
2312.718,336.82434,
2309.807,335.28488,
2306.896,336.08783,
2303.986,319.26459,
2301.075,331.30048,
2298.165,340.875,
2295.254,317.39203,
2292.344,326.50149,
2289.433,336.80545,
2286.522,332.73649,
2283.612,341.73469,
2280.701,359.78079,
2277.791,346.7147,
2274.880,342.875,
2271.969,347.51698,
2269.059,354.31642,
2266.148,339.28402,
2263.238,349.16842,
2260.327,337.15117,
2257.417,364.31667,
2254.506,360.15708,
2251.595,358.31507,
2248.685,358.44997,
2245.774,360.07283,
2242.864,365.19918,
2239.953,368.05434,
2237.043,368.88856,
2234.132,372.71659,
2231.221,371.84918,
2228.311,373.00516,
2225.400,384.21274,
2222.490,393.64694,
2219.579,380.45596,
2216.669,384.32492,
2213.758,392.91813,
2210.847,389.45687,
2207.937,390.79356,
2205.026,401.65196,
2202.116,421.77734,
2199.205,411.75029,
2196.294,409.80899,
2193.384,402.21748,
2190.473,385.00528,
2187.563,422.92334,
2184.652,437.69458,
2181.742,451.28241,
2178.831,425.47036,
2175.920,430.37773,
2173.010,438.75085,
2170.099,426.41021,
2167.189,443.01851,
2164.278,465.36947,
2161.368,474.73276,
2158.457,472.04205,
2155.546,467.93651,
2152.636,468.50794,
2149.725,487.35821,
2146.815,496.64142,
2143.904,462.67797,
2140.993,478.02305,
2138.083,510.3461,
2135.172,516.40439,
2132.262,515.37852,
2129.351,501.77146,
2126.441,495.9915,
2123.530,516.80766,
2120.619,509.91174,
2117.709,502.82025,
2114.798,497.5442,
2111.888,486.18784,
2108.977,492.86176,
2106.067,502.39176,
2103.156,502.875,
2100.245,481.875,
2097.335,484.76505,
2094.424,504.4389,
2091.514,492.36687,
2088.603,493.58922,
2085.692,517.55897,
2082.782,524.28865,
2079.871,521.58912,
2076.961,499.36029,
2074.050,539.2447,
2071.140,526.875,
2068.229,526.875,
2065.318,534.14726,
2062.408,542.92039,
2059.497,542.27977,
2056.587,549.54933,
2053.676,543.70883,
2050.766,538.18292,
2047.855,521.78633,
2044.944,550.61379,
2042.034,536.112,
2039.123,545.37668,
2036.213,557.45276,
2033.302,570.35298,
2030.391,576.21425,
2027.481,575.33837,
2024.570,572.66083,
2021.660,578.4611,
2018.749,599.91299,
2015.839,595.76345,
2012.928,565.63339,
2010.017,576.82288,
2007.107,582.54977,
2004.196,585.38691,
2001.286,623.94207,
1998.375,624.51967,
1995.465,583.98393,
1992.554,596.91011,
1989.643,616.28742,
1986.733,643.84166,
1983.822,611.82478,
1980.912,631.09243,
1978.001,621.45942,
1975.090,635.47653,
1972.180,630.53059,
1969.269,635.4986,
1966.359,640.28037,
1963.448,652.75479,
1960.538,656.25198,
1957.627,648.74187,
1954.716,647.875,
1951.806,674.32854,
1948.895,666.68063,
1945.985,685.4665,
1943.074,685.27719,
1940.164,679.62479,
1937.253,659.00117,
1934.342,668.49906,
1931.432,690.37973,
1928.521,684.18588,
1925.611,682.19963,
1922.700,690.99793,
1919.790,704.93267,
1916.879,690.13049,
1913.968,721.83442,
1911.058,740.54467,
1908.147,737.86772,
1905.237,749.48528,
1902.326,729.89873,
1899.415,694.15549,
1896.505,684.03745,
1893.594,674.68299,
1890.684,700.5547,
1887.773,713.38343,
1884.863,750.12785,
1881.952,753.22765,
1879.041,748.38798,
1876.131,752.94689,
1873.220,786.99903,
1870.310,747.31903,
1867.399,779.29923,
1864.489,745.7707,
1861.578,766.28721,
1858.667,748.2343,
1855.757,740.04922,
1852.846,773.90063,
1849.936,779.20134,
1847.025,768.87012,
1844.114,805.76211,
1841.204,834.18968,
1838.293,811.92489,
1835.383,784.6075,
1832.472,826.01587,
1829.562,819.01848,
1826.651,794.40478,
1823.740,811.53021,
1820.830,821.18998,
1817.919,817.80312,
1815.009,797.18162,
1812.098,836.06395,
1809.188,865.26254,
1806.277,845.3619,
1803.366,813.65873,
1800.456,802.24893,
1797.545,823.29357,
1794.635,803.42209,
1791.724,845.99144,
1788.813,873.47706,
1785.903,867.68129,
1782.992,817.94948,
1780.082,764.96643,
1777.171,683.19672,
1774.261,653.01527,
1771.350,728.90552,
1768.439,843.07113,
1765.529,884.69258,
1762.618,866.38122,
1759.708,857.0055,
1756.797,882.77652,
1753.887,898.74672,
1750.976,907.30955,
1748.065,908.34505,
1745.155,906.15241,
1742.244,920.11773,
1739.334,909.75736,
1736.423,941.4413,
1733.512,944.04976,
1730.602,963.55956,
1727.691,969.57202,
1724.781,1001.9112,
1721.870,981.09864,
1718.960,976.3417,
1716.049,962.61243,
1713.138,1007.7548,
1710.228,979.32253,
1707.317,985.37443,
1704.407,978.78943,
1701.496,1008.8676,
1698.586,1010.027,
1695.675,1073.5032,
1692.764,1009.711,
1689.854,1019.2687,
1686.943,1011.1785,
1684.033,1016.726,
1681.122,1013.926,
1678.211,1057.4562,
1675.301,1071.8318,
1672.390,1037.7942,
1669.480,1011.2119,
1666.569,1053.9161,
1663.659,1133.8624,
1660.748,1073.4342,
1657.837,1102.4874,
1654.927,1129.4298,
1652.016,1111.3124,
1649.106,1129.2912,
1646.195,1145.3235,
1643.285,1125.0625,
1640.374,1217.4116,
1637.463,1149.3974,
1634.553,1178.3479,
1631.642,1210.1573,
1628.732,1235.8691,
1625.821,1234.8802,
1622.911,1242.8299,
1620.000,1301.1317,
1617.089,1293.0541,
1614.179,1313.2828,
1611.268,1353.3507,
1608.358,1378.7044,
1605.447,1430.7897,
1602.536,1391.9401,
1599.626,1436.7115,
1596.715,1422.723,
1593.805,1402.9884,
1590.894,1418.4884,
1587.984,1450.3221,
1585.073,1414.8866,
1582.162,1442.9402,
1579.252,1425.326,
1576.341,1409.4612,
1573.431,1412.3572,
1570.520,1457.4445,
1567.610,1430.6391,
1564.699,1401.6494,
1561.788,1426.8606,
1558.878,1420.7576,
1555.967,1433.6769,
1553.057,1389.3756,
1550.146,1402.1222,
1547.235,1417.4781,
1544.325,1420.7512,
1541.414,1402.3321,
1538.504,1399.9409,
1535.593,1409.6498,
1532.683,1410.8193,
1529.772,1434.3624,
1526.861,1428.7702,
1523.951,1412.3112,
1521.040,1439.8096,
1518.130,1463.8604,
1515.219,1477.1148,
1512.309,1471.7263,
1509.398,1442.816,
1506.487,1453.2691,
1503.577,1428.7209,
1500.666,1486.6585,
1497.756,1492.875,
1494.845,1491.7144,
1491.934,1463.7049,
1489.024,1411.7303,
1486.113,1458.0902,
1483.203,1450.3288,
1480.292,1475.1789,
1477.382,1513.8214,
1474.471,1495.7841,
1471.560,1477.7157,
1468.650,1460.8928,
1465.739,1449.7511,
1462.829,1461.1986,
1459.918,1496.8421,
1457.008,1502.1363,
1454.097,1491.0344,
1451.186,1516.668,
1448.276,1531.4852,
1445.365,1486.3,
1442.455,1460.0941,
1439.544,1504.7533,
1436.633,1495.6317,
1433.723,1477.3554,
1430.812,1523.2444,
1427.902,1529.3633,
1424.991,1591.9156,
1422.081,1574.608,
1419.170,1529.672,
1416.259,1559.3278,
1413.349,1583.7351,
1410.438,1599.3717,
1407.528,1581.9878,
1404.617,1618.0195,
1401.707,1612.6594,
1398.796,1562.7701,
1395.885,1557.0365,
1392.975,1573.9375,
1390.064,1574.6978,
1387.154,1578.6512,
1384.243,1586.9069,
1381.332,1520.539,
1378.422,1524.0877,
1375.511,1489.4268,
1372.601,1530.3457,
1369.690,1599.0239,
1366.780,1565.521,
1363.869,1630.8816,
1360.958,1602.4362,
1358.048,1632.2062,
1355.137,1672.875,
1352.227,1675.6201,
1349.316,1675.7644,
1346.406,1677.8999,
1343.495,1672.4464,
1340.584,1627.481,
1337.674,1700.123,
1334.763,1668.9456,
1331.853,1670.8,
1328.942,1649.5279,
1326.032,1654.2156,
1323.121,1614.381,
1320.210,1644.4917,
1317.300,1659.202,
1314.389,1645.1387,
1311.479,1644.739,
1308.568,1650.5647,
1305.657,1645.6846,
1302.747,1664.8042,
1299.836,1710.7693,
1296.926,1702.0631,
1294.015,1684.596,
1291.105,1685.6361,
1288.194,1675.4913,
1285.283,1650.6789,
1282.373,1687.4373,
1279.462,1717.1691,
1276.552,1718.0167,
1273.641,1707.1441,
1270.731,1688.7586,
1267.820,1671.8119,
1264.909,1641.3692,
1261.999,1616.1413,
1259.088,1623.4383,
1256.178,1699.2432,
1253.267,1652.8009,
1250.356,1657.2244,
1247.446,1651.4466,
1244.535,1645.3259,
1241.625,1648.4528,
1238.714,1649.5454,
1235.804,1660.9672,
1232.893,1665.3742,
1229.982,1668.1391,
1227.072,1646.4116,
1224.161,1677.6546,
1221.251,1657.0727,
1218.340,1607.7107,
1215.430,1606.7953,
1212.519,1618.8946,
1209.608,1613.2294,
1206.698,1609.7898,
1203.787,1600.0559,
1200.877,1610.9277,
1197.966,1595.642,
1195.055,1617.9127,
1192.145,1645.918,
1189.234,1687.6122,
1186.324,1724.4222,
1183.413,1720.8851,
1180.503,1721.1574,
1177.592,1754.4706,
1174.681,1708.7757,
1171.771,1722.0192,
1168.860,1728.2709,
1165.950,1699.0423,
1163.039,1710.7319,
1160.129,1718.875,
1157.218,1722.2402,
1154.307,1725.875,
1151.397,1722.7469,
1148.486,1712.3764,
1145.576,1703.451,
1142.665,1693.6839,
1139.754,1698.5704,
1136.844,1678.8659,
1133.933,1702.7193,
1131.023,1710.2958,
1128.112,1693.5892,
1125.202,1698.2566,
1122.291,1711.5071,
1119.380,1729.7797,
1116.470,1720.0719,
1113.559,1699.5438,
1110.649,1699.7686,
1107.738,1699.6601,
1104.828,1700.6199,
1101.917,1710.3131,
1099.006,1721.9265,
1096.096,1725.1549,
1093.185,1697.0588,
1090.275,1722.3902,
1087.364,1695.9411,
1084.453,1689.8744,
1081.543,1701.6954,
1078.632,1723.8581,
1075.722,1752.2929,
1072.811,1724.1853,
1069.901,1728.5516,
1066.990,1722.4083,
1064.079,1703.8622,
1061.169,1705.8164,
1058.258,1722.7682,
1055.348,1738.6965,
1052.437,1748.8589,
1049.527,1752.096,
1046.616,1706.048,
1043.705,1729.3933,
1040.795,1749.3681,
1037.884,1746.7717,
1034.974,1750.9098,
1032.063,1753.0834,
1029.153,1696.626,
1026.242,1752.8482,
1023.331,1727.3768,
1020.421,1747.6678,
1017.510,1746.5489,
1014.600,1748.717,
1011.689,1756.893,
1008.778,1735.9953,
1005.868,1730.736,
1002.957,1715.2496,
1000.047,1761.651,
997.136,1818.6385,
994.226,1844.0904,
991.315,1843.3973,
988.404,1842.6596,
985.494,1820.338,
982.583,1796.3544,
979.673,1822.8725,
976.762,1808.6296,
973.852,1805.0193,
970.941,1804.7958,
968.030,1765.6323,
965.120,1787.122,
962.209,1845.9474,
959.299,1832.5028,
956.388,1807.196,
953.477,1799.8073,
950.567,1816.8091,
947.656,1848.1059,
944.746,1872.743,
941.835,1879.5437,
938.925,1903.9068,
936.014,1897.6653,
933.103,1877.7564,
930.193,1872.2769,
927.282,1866.3791,
924.372,1875.6808,
921.461,1915.9042,
918.551,1928.7131,
915.640,1899.8287,
912.729,1866.4371,
909.819,1878.6526,
906.908,1876.9677,
903.998,1885.624,
901.087,1892.967,
898.176,1892.0574,
895.266,1898.6666,
892.355,1915.7497,
889.445,1883.0182,
886.534,1926.2883,
883.624,1940.2577,
880.713,1961.7582,
877.802,1957.6419,
874.892,1897.4903,
871.981,1811.7716,
869.071,1638.0057,
866.160,1642.373,
863.250,1755.3767,
860.339,1871.439,
857.428,1921.0663,
854.518,1921.1047,
851.607,1894.4785,
848.697,1840.3522,
845.786,1773.2439,
842.875,1771.0244,
839.965,1863.2736,
837.054,1952.5635,
834.144,2013.8911,
831.233,2056.5394,
828.323,2043.1898,
825.412,2017.4166,
822.501,2028.7474,
819.591,2050.2338,
816.680,2006.8044,
813.770,2007.7785,
810.859,2009.9114,
807.949,2012.9702,
805.038,2032.9922,
802.127,2000.8903,
799.217,1997.1296,
796.306,2001.4156,
793.396,2033.6845,
790.485,2069.82,
787.574,2036.996,
784.664,2066.52,
781.753,2085.2947,
778.843,2094.8155,
775.932,2096.0232,
773.022,2093.0162,
770.111,2100.3744,
767.200,2109.2494,
764.290,2106.6741,
761.379,2102.0873,
758.469,2102.1306,
755.558,2106.5103,
752.648,2094.2913,
749.737,2085.9999,
746.826,2083.3412,
743.916,2091.1348,
741.005,2101.8967,
738.095,2031.2634,
735.184,2000.7081,
732.274,1969.2614,
729.363,1952.2373,
726.452,1978.609,
723.542,2087.8771,
720.631,2091.5814,
717.721,2082.8552,
714.810,2097.8124,
711.899,2139.5879,
708.989,2172.6718,
706.078,2132.8099,
703.168,2125.3039,
700.257,2117.7984,
697.347,2097.4845,
694.436,2071.3987,
691.525,2090.6901,
688.615,2142.0433,
685.704,2152.1756,
682.794,2136.8324,
679.883,2163.4157,
676.973,2175.4362,
674.062,2186.8081,
671.151,2158.1236,
668.241,2133.6966,
665.330,2193.9884,
662.420,2196.3846,
659.509,2168.3031,
656.598,2155.337,
653.688,2181.0389,
650.777,2250.2279,
647.867,2201.6518,
644.956,2163.0132,
642.046,2134.6808,
639.135,2122.8576,
636.224,2138.0143,
633.314,2165.8021,
630.403,2190.0201,
627.493,2208.0202,
624.582,2208.5167,
621.672,2166.541,
618.761,2217.3108,
615.850,2234.426,
612.940,2258.0994,
610.029,2302.2174,
607.119,2298.2692,
604.208,2307.8152,
601.297,2335.3053,
598.387,2337.9509,
595.476,2284.6865,
592.566,2272.0934,
589.655,2299.6779,
586.745,2319.3467,
583.834,2306.0887,
580.923,2243.0172,
578.013,2266.5592,
575.102,2262.5504,
572.192,2273.8111,
569.281,2310.2652,
566.371,2323.5698,
563.460,2295.2453,
560.549,2305.2898,
557.639,2343.3774,
554.728,2379.7216,
551.818,2329.7814,
548.907,2356.0492,
545.996,2351.8822,
543.086,2307.3717,
540.175,2305.0358,
537.265,2338.9161,
534.354,2337.326,
531.444,2320.0884,
528.533,2313.3716,
525.622,2320.3552,
522.712,2318.2345,
519.801,2306.328,
516.891,2289.7795,
513.980,2284.3594,
511.070,2314.8663,
508.159,2316.4134,
505.248,2309.383,
502.338,2326.372,
499.427,2343.3523,
496.517,2360.3194,
493.606,2367.856,
490.695,2366.0147,
487.785,2381.4105,
484.874,2339.9318,
481.964,2317.9514,
479.053,2320.5073,
476.143,2318.9714,
473.232,2345.4929,
470.321,2335.4388,
467.411,2325.0185,
464.500,2357.6617,
461.590,2349.2385,
458.679,2350.7271,
455.769,2353.5599,
452.858,2352.875,
449.947,2352.875,
447.037,2319.5032,
444.126,2333.7356,
441.216,2386.9377,
438.305,2341.2218,
435.395,2338.1532,
432.484,2328.6227,
429.573,2297.4323,
426.663,2231.3001,
423.752,2087.0886,
420.842,1862.0114,
417.931,1634.2011,
415.020,1522.7224,
412.110,1837.8583,
409.199,2079.5692,
406.289,2205.4474,
403.378,2191.7854,
400.468,2165.3255,
397.557,2156.875,
394.646,2180.3081,
391.736,2244.213,
388.825,2254.7723,
385.915,2256.8106,
383.004,2263.8702,
380.094,2283.0304,
377.183,2266.476,
374.272,2289.5568,
371.362,2324.6481,
368.451,2353.4677,
365.541,2363.2247,
362.630,2353.8577,
359.719,2330.2605,
356.809,2300.1405,
353.898,2337.5804,
350.988,2345.1626,
348.077,2340.5517,
345.167,2335.1399,
342.256,2340.3694,
339.345,2343.4693,
336.435,2332.3833,
333.524,2300.6501,
330.614,2325.2402,
327.703,2338.5225,
324.793,2327.8919,
321.882,2281.9868,
318.971,2328.0802,
316.061,2317.9944,
313.150,2299.8821,
310.240,2328.8246,
307.329,2389.1899,
304.418,2426.5536,
301.508,2436.3765,
298.597,2411.9428,
295.687,2387.5261,
292.776,2355.6249,
289.866,2329.4559,
286.955,2346.4466,
284.044,2391.885,
281.134,2444.2763,
278.223,2487.6416,
275.313,2465.5359,
272.402,2482.3684,
269.492,2483.6166,
266.581,2445.9909,
263.670,2349.6823,
260.760,2362.6209,
257.849,2416.8124,
254.939,2465.2486,
252.028,2434.0258,
249.117,2421.4182,
246.207,2431.482,
243.296,2472.4761,
240.386,2480.14,
237.475,2504.542,
234.565,2540.0698,
231.654,2534.9571,
228.743,2515.4632,
225.833,2471.0805,
222.922,2402.7775,
220.012,2443.5766,
217.101,2460.8007,
214.191,2447.3902,
211.280,2389.1932,
208.369,2401.6953,
205.459,2391.1102,
202.548,2377.6662,
199.638,2463.2927,
196.727,2403.0859,
193.816,2354.6047,
190.906,2371.2943,
187.995,2269.2069,
185.085,2289.1991,
182.174,2339.5138,
179.264,2297.5933,
176.353,2230.0787,
173.442,2202.1262,
170.532,2199.9217,
167.621,2071.5881,
164.711,2006.9176,
161.800,1905.8999,
158.890,1689.2618,
155.979,1531.662,
153.068,1392.8402,
150.158,1254.8952,
147.247,1061.0481,
144.337,878.46518,
141.426,687.06692,
138.516,476.3009,
135.605,352.10891,
132.694,256.10296,
129.784,181.05298,
126.873,115.26104,
123.963,80.250335,
121.052,50.560407,
118.141,17.007013,
115.231,22.559563,
112.320,24.875,
109.410,23.647803,
106.499,17.238406,
103.589,16.435254,
100.678,15.788513,
97.767,12.944763,
94.857,8.7170657,
91.946,12.115441,
89.036,18.746021,
86.125,11.653968,
83.215,11.467761,
80.304,10.720106,
77.393,4.3465764,
74.483,2.5647301,
71.572,5.4985211,
68.662,11.667198,
65.751,9.5478443,
62.840,6.4664901,
59.930,4.9987172,
57.019,9.2292091,
54.109,0.32042643,
51.198,-4.3153443,
48.288,-0.085362908,
45.377,4.8382836,
42.466,6.4627807,
39.556,5.2994071,
36.645,1.788456,
33.735,0.875,
30.824,0.43322605,
27.914,-0.96912444,
25.003,-3.6155499,
22.092,-2.8646681,
19.182,2.1495944,
16.271,10.543476,
13.361,45.905806,
10.450,80.980958,
7.539,29.305621,
4.629,-231.96099,
1.718,-553.92817,
-1.192,-846.72887,
-4.103,-726.7386,
-7.013,-434.807,
-9.924,0.875,
