,PL12CC~1,
Wavenumbers [1/cm],Intensity,
3014.167,-0.5,
3011.256,2.6499248,
3008.346,36.168082,
3005.435,35.001769,
3002.525,45.085011,
2999.614,38.302618,
2996.704,43.004126,
2993.793,37.623848,
2990.882,39.064882,
2987.972,52.474775,
2985.061,43.953197,
2982.151,35.977308,
2979.240,42.578868,
2976.329,55.980889,
2973.419,52.315404,
2970.508,53.34999,
2967.598,46.738956,
2964.687,51.5,
2961.777,53.311984,
2958.866,67.508908,
2955.955,70.676972,
2953.045,57.517907,
2950.134,75.596229,
2947.224,59.012439,
2944.313,76.94943,
2941.403,87.059762,
2938.492,68.085373,
2935.581,68.161363,
2932.671,79.221039,
2929.760,90.380778,
2926.850,91.709023,
2923.939,77.981318,
2921.028,82.747152,
2918.118,87.71788,
2915.207,77.563379,
2912.297,89.470381,
2909.386,88.113135,
2906.476,70.120817,
2903.565,79.788878,
2900.654,89.430254,
2897.744,86.562861,
2894.833,83.665094,
2891.923,78.176302,
2889.012,72.037573,
2886.102,92.748641,
2883.191,66.529265,
2880.280,104.5,
2877.370,66.825699,
2874.459,-25.801782,
2871.549,9.0396905,
2868.638,64.504089,
2865.727,59.33849,
2862.817,76.64436,
2859.906,61.918793,
2856.996,94.472828,
2854.085,103.14076,
2851.175,74.975908,
2848.264,79.279498,
2845.353,94.349031,
2842.443,91.093733,
2839.532,77.873248,
2836.622,86.679689,
2833.711,90.699391,
2830.801,87.31323,
2827.890,97.248236,
2824.979,92.993969,
2822.069,86.681954,
2819.158,106.6806,
2816.248,101.54632,
2813.337,120.75733,
2810.427,93.889805,
2807.516,96.5,
2804.605,101.09135,
2801.695,93.842094,
2798.784,87.647846,
2795.874,94.489432,
2792.963,89.713933,
2790.052,104.49507,
2787.142,99.158078,
2784.231,98.63046,
2781.321,101.67705,
2778.410,79.479686,
2775.500,91.861032,
2772.589,105.65291,
2769.678,99.854909,
2766.768,98.948529,
2763.857,89.289981,
2760.947,94.003152,
2758.036,116.52561,
2755.126,103.69017,
2752.215,105.56365,
2749.304,100.39389,
2746.394,101.71169,
2743.483,102.5,
2740.573,114.03324,
2737.662,106.70267,
2734.751,87.917559,
2731.841,106.69048,
2728.930,96.910836,
2726.020,116.38252,
2723.109,106.1805,
2720.199,123.61885,
2717.288,113.30657,
2714.377,132.17476,
2711.467,107.33626,
2708.556,96.936211,
2705.646,114.93667,
2702.735,109.683,
2699.825,123.05454,
2696.914,119.69045,
2694.003,127.52764,
2691.093,127.35681,
2688.182,119.2637,
2685.272,136.26956,
2682.361,110.8941,
2679.450,114.33126,
2676.540,110.74389,
2673.629,118.8498,
2670.719,117.28096,
2667.808,111.93772,
2664.898,130.01945,
2661.987,128.66661,
2659.076,126.5,
2656.166,136.11051,
2653.255,118.53232,
2650.345,128.36388,
2647.434,105.24364,
2644.524,128.32251,
2641.613,123.98586,
2638.702,141.26328,
2635.792,122.74926,
2632.881,125.03577,
2629.971,130.3524,
2627.060,122.49875,
2624.149,140.30936,
2621.239,125.45257,
2618.328,135.90658,
2615.418,126.48182,
2612.507,141.94661,
2609.597,129.24451,
2606.686,133.20082,
2603.775,141.77777,
2600.865,139.85155,
2597.954,140.02705,
2595.044,149.83924,
2592.133,142.38529,
2589.223,134.93368,
2586.312,148.47489,
2583.401,143.94891,
2580.491,137.2404,
2577.580,152.46864,
2574.670,131.83958,
2571.759,145.66694,
2568.848,143.21262,
2565.938,144.0237,
2563.027,149.71824,
2560.117,130.68691,
2557.206,157.42989,
2554.296,148.70137,
2551.385,151.43397,
2548.474,174.24127,
2545.564,155.48132,
2542.653,173.26846,
2539.743,167.06777,
2536.832,156.96916,
2533.922,163.37385,
2531.011,157.42484,
2528.100,153.43725,
2525.190,162.89262,
2522.279,160.87518,
2519.369,162.46263,
2516.458,144.60836,
2513.548,153.63619,
2510.637,173.43852,
2507.726,172.5,
2504.816,156.18545,
2501.905,168.65915,
2498.995,167.84309,
2496.084,161.79271,
2493.173,155.47318,
2490.263,168.02772,
2487.352,176.7488,
2484.442,159.5,
2481.531,163.18613,
2478.621,168.03555,
2475.710,185.40799,
2472.799,168.56732,
2469.889,157.86289,
2466.978,167.5515,
2464.068,170.45768,
2461.157,161.57992,
2458.247,174.5,
2455.336,173.18102,
2452.425,167.15094,
2449.515,181.5,
2446.604,178.67974,
2443.694,178.73274,
2440.783,185.73874,
2437.872,170.35414,
2434.962,168.07603,
2432.051,180.30261,
2429.141,182.0942,
2426.230,186.04366,
2423.320,188.01396,
2420.409,194.69244,
2417.498,191.2781,
2414.588,189.9601,
2411.677,162.53989,
2408.767,186.95866,
2405.856,190.10231,
2402.946,200.02368,
2400.035,190.30751,
2397.124,199.5,
2394.214,203.3928,
2391.303,206.14092,
2388.393,186.56973,
2385.482,172.89656,
2382.571,163.79064,
2379.661,173.80245,
2376.750,172.91865,
2373.840,196.9718,
2370.929,192.59747,
2368.019,196.19826,
2365.108,205.52356,
2362.197,194.13832,
2359.287,206.86156,
2356.376,241.44717,
2353.466,220.74319,
2350.555,202.78476,
2347.645,199.60463,
2344.734,210.01614,
2341.823,217.4005,
2338.913,216.30296,
2336.002,212.6243,
2333.092,212.91412,
2330.181,212.08053,
2327.270,212.72002,
2324.360,202.26411,
2321.449,225.85374,
2318.539,223.9893,
2315.628,224.89488,
2312.718,230.79956,
2309.807,223.25145,
2306.896,227.95696,
2303.986,216.72083,
2301.075,226.5851,
2298.165,225.30763,
2295.254,214.71543,
2292.344,238.96882,
2289.433,241.37636,
2286.522,224.90166,
2283.612,238.1199,
2280.701,240.96188,
2277.791,233.70037,
2274.880,234.00608,
2271.969,222.14198,
2269.059,240.11309,
2266.148,228.80217,
2263.238,238.59265,
2260.327,231.0518,
2257.417,232.33223,
2254.506,227.46873,
2251.595,245.50366,
2248.685,236.60771,
2245.774,240.80758,
2242.864,243.66706,
2239.953,260.5,
2237.043,259.72072,
2234.132,253.54418,
2231.221,248.7894,
2228.311,255.45875,
2225.400,260.55629,
2222.490,263.05702,
2219.579,265.8419,
2216.669,275.95469,
2213.758,272.45423,
2210.847,258.2456,
2207.937,270.88923,
2205.026,278.61108,
2202.116,279.76221,
2199.205,275.13788,
2196.294,268.624,
2193.384,269.5,
2190.473,265.21009,
2187.563,320.35016,
2184.652,290.55428,
2181.742,296.79549,
2178.831,299.69845,
2175.920,293.75683,
2173.010,300.55102,
2170.099,299.43403,
2167.189,306.69374,
2164.278,334.96734,
2161.368,339.78616,
2158.457,330.5,
2155.546,345.07503,
2152.636,346.0479,
2149.725,349.82214,
2146.815,350.53337,
2143.904,360.89406,
2140.993,353.25124,
2138.083,376.22948,
2135.172,388.40764,
2132.262,386.98239,
2129.351,377.23447,
2126.441,372.08251,
2123.530,373.79182,
2120.619,393.85804,
2117.709,354.01731,
2114.798,336.44994,
2111.888,332.59982,
2108.977,335.22848,
2106.067,313.26542,
2103.156,338.17406,
2100.245,330.48996,
2097.335,313.89791,
2094.424,307.5852,
2091.514,300.78494,
2088.603,314.68888,
2085.692,316.72313,
2082.782,304.37953,
2079.871,316.64352,
2076.961,332.59591,
2074.050,320.5,
2071.140,322.43088,
2068.229,325.15236,
2065.318,313.15501,
2062.408,337.31845,
2059.497,341.08332,
2056.587,331.95355,
2053.676,341.11602,
2050.766,349.03812,
2047.855,339.30388,
2044.944,300.76121,
2042.034,322.37293,
2039.123,344.15993,
2036.213,334.21329,
2033.302,340.97798,
2030.391,326.87369,
2027.481,333.56076,
2024.570,343.18567,
2021.660,351.96784,
2018.749,359.93014,
2015.839,343.75131,
2012.928,332.95973,
2010.017,331.25353,
2007.107,331.61777,
2004.196,330.23806,
2001.286,350.3162,
1998.375,350.31987,
1995.465,324.19464,
1992.554,330.01756,
1989.643,333.43087,
1986.733,323.87456,
1983.822,335.57829,
1980.912,356.70713,
1978.001,318.79684,
1975.090,319.25879,
1972.180,321.50135,
1969.269,316.1236,
1966.359,322.85134,
1963.448,356.10371,
1960.538,352.26981,
1957.627,322.64239,
1954.716,336.98292,
1951.806,345.15869,
1948.895,322.68821,
1945.985,346.74673,
1943.074,346.80641,
1940.164,324.14422,
1937.253,315.32191,
1934.342,314.08128,
1931.432,329.27287,
1928.521,332.20121,
1925.611,343.03235,
1922.700,359.37154,
1919.790,327.18826,
1916.879,332.66301,
1913.968,326.50861,
1911.058,343.83033,
1908.147,346.24159,
1905.237,322.36759,
1902.326,299.47627,
1899.415,325.04998,
1896.505,291.62644,
1893.594,291.5854,
1890.684,304.04901,
1887.773,319.36172,
1884.863,325.03531,
1881.952,335.05488,
1879.041,336.71755,
1876.131,333.87124,
1873.220,343.08853,
1870.310,338.9305,
1867.399,368.02019,
1864.489,317.82408,
1861.578,350.7802,
1858.667,348.2186,
1855.757,322.68138,
1852.846,337.97181,
1849.936,323.61611,
1847.025,326.73601,
1844.114,335.97298,
1841.204,348.63636,
1838.293,346.49168,
1835.383,351.5,
1832.472,353.27913,
1829.562,357.69401,
1826.651,364.97022,
1823.740,364.58812,
1820.830,365.04332,
1817.919,365.5,
1815.009,367.21247,
1812.098,375.57874,
1809.188,386.81781,
1806.277,342.51807,
1803.366,372.11737,
1800.456,350.48923,
1797.545,367.96097,
1794.635,373.01601,
1791.724,377.32523,
1788.813,381.70026,
1785.903,380.62404,
1782.992,372.6222,
1780.082,348.52046,
1777.171,276.8185,
1774.261,241.5754,
1771.350,288.76826,
1768.439,355.59184,
1765.529,408.22496,
1762.618,407.51065,
1759.708,414.83688,
1756.797,431.70455,
1753.887,447.42274,
1750.976,455.29319,
1748.065,453.05453,
1745.155,469.49339,
1742.244,458.00095,
1739.334,425.64354,
1736.423,423.56541,
1733.512,432.32115,
1730.602,446.46827,
1727.691,433.61147,
1724.781,474.90802,
1721.870,438.40924,
1718.960,482.41179,
1716.049,460.10204,
1713.138,466.32494,
1710.228,468.5,
1707.317,468.5,
1704.407,464.90641,
1701.496,474.52703,
1698.586,501.37156,
1695.675,508.17854,
1692.764,468.73768,
1689.854,485.63387,
1686.943,482.6349,
1684.033,513.70524,
1681.122,494.83985,
1678.211,511.3382,
1675.301,538.41675,
1672.390,558.38336,
1669.480,519.63637,
1666.569,537.16019,
1663.659,588.05903,
1660.748,561.65425,
1657.837,570.28731,
1654.927,604.84398,
1652.016,577.08692,
1649.106,560.8917,
1646.195,577.8187,
1643.285,631.02148,
1640.374,611.27351,
1637.463,648.13051,
1634.553,682.367,
1631.642,673.93432,
1628.732,713.62443,
1625.821,734.49607,
1622.911,728.53381,
1620.000,780.83227,
1617.089,796.20149,
1614.179,828.56937,
1611.268,908.45141,
1608.358,915.31271,
1605.447,972.07189,
1602.536,997.86529,
1599.626,1036.2973,
1596.715,1048.576,
1593.805,1031.6134,
1590.894,1018.932,
1587.984,1039.1523,
1585.073,1012.7214,
1582.162,1000.8209,
1579.252,979.86077,
1576.341,972.29575,
1573.431,964.45143,
1570.520,932.6893,
1567.610,950.32394,
1564.699,934.12396,
1561.788,901.26079,
1558.878,913.34842,
1555.967,860.73685,
1553.057,847.63774,
1550.146,842.52186,
1547.235,829.54837,
1544.325,845.03149,
1541.414,862.2804,
1538.504,860.87578,
1535.593,872.08126,
1532.683,871.96181,
1529.772,848.18757,
1526.861,850.14424,
1523.951,878.27243,
1521.040,892.79717,
1518.130,881.14458,
1515.219,914.61992,
1512.309,902.13959,
1509.398,859.15203,
1506.487,870.50798,
1503.577,861.79391,
1500.666,863.83577,
1497.756,865.88975,
1494.845,857.97972,
1491.934,845.45905,
1489.024,832.94665,
1486.113,861.24368,
1483.203,831.52596,
1480.292,824.95447,
1477.382,826.1165,
1474.471,794.27008,
1471.560,775.06634,
1468.650,740.75268,
1465.739,742.51225,
1462.829,771.19497,
1459.918,794.99733,
1457.008,806.54619,
1454.097,803.02979,
1451.186,799.24275,
1448.276,786.42051,
1445.365,750.35624,
1442.455,724.1941,
1439.544,684.17303,
1436.633,690.34508,
1433.723,709.99547,
1430.812,720.42612,
1427.902,720.17649,
1424.991,748.60937,
1422.081,677.93679,
1419.170,700.87805,
1416.259,724.13145,
1413.349,722.45807,
1410.438,720.5,
1407.528,725.00619,
1404.617,748.04949,
1401.707,703.14667,
1398.796,638.2273,
1395.885,655.91759,
1392.975,674.99894,
1390.064,637.62359,
1387.154,662.77125,
1384.243,669.53375,
1381.332,640.31879,
1378.422,559.17627,
1375.511,572.2912,
1372.601,676.63745,
1369.690,688.07167,
1366.780,658.40266,
1363.869,707.16521,
1360.958,727.83978,
1358.048,720.38026,
1355.137,771.22251,
1352.227,811.43458,
1349.316,808.83189,
1346.406,829.24762,
1343.495,828.79439,
1340.584,803.35624,
1337.674,859.60558,
1334.763,836.84084,
1331.853,872.07562,
1328.942,838.8109,
1326.032,901.38089,
1323.121,898.71685,
1320.210,892.5,
1317.300,914.92882,
1314.389,942.31968,
1311.479,970.9756,
1308.568,987.39375,
1305.657,973.12851,
1302.747,971.98104,
1299.836,1001.5,
1296.926,1001.8418,
1294.015,1009.1964,
1291.105,1026.2303,
1288.194,1065.2422,
1285.283,1075.932,
1282.373,1075.8672,
1279.462,1090.3232,
1276.552,1129.9096,
1273.641,1143.6585,
1270.731,1099.7985,
1267.820,1074.056,
1264.909,1103.1256,
1261.999,1049.6664,
1259.088,1054.227,
1256.178,1094.7535,
1253.267,1050.0979,
1250.356,1041.2725,
1247.446,1062.1018,
1244.535,1073.5089,
1241.625,1052.7186,
1238.714,1021.0091,
1235.804,1020.0873,
1232.893,1034.6279,
1229.982,1022.5426,
1227.072,1053.3232,
1224.161,1044.5735,
1221.251,1033.5659,
1218.340,999.40503,
1215.430,993.51071,
1212.519,994.35033,
1209.608,961.46558,
1206.698,933.28757,
1203.787,970.07286,
1200.877,953.17163,
1197.966,980.1464,
1195.055,990.03249,
1192.145,1025.3105,
1189.234,1097.4865,
1186.324,1129.409,
1183.413,1122.7589,
1180.503,1134.7236,
1177.592,1159.7219,
1174.681,1120.6678,
1171.771,1142.4382,
1168.860,1139.7589,
1165.950,1119.3428,
1163.039,1104.024,
1160.129,1078.8551,
1157.218,1084.2102,
1154.307,1108.8392,
1151.397,1112.6752,
1148.486,1115.2925,
1145.576,1158.2665,
1142.665,1129.8533,
1139.754,1160.8588,
1136.844,1143.2891,
1133.933,1134.2595,
1131.023,1107.1742,
1128.112,1088.3553,
1125.202,1117.7802,
1122.291,1132.2358,
1119.380,1095.6732,
1116.470,1113.3238,
1113.559,1106.9943,
1110.649,1069.1383,
1107.738,1059.6089,
1104.828,1087.8889,
1101.917,1093.4221,
1099.006,1044.9844,
1096.096,1073.1886,
1093.185,1035.4345,
1090.275,1084.2933,
1087.364,1087.5804,
1084.453,1100.3739,
1081.543,1107.8031,
1078.632,1097.0527,
1075.722,1096.4582,
1072.811,1124.7625,
1069.901,1100.3112,
1066.990,1086.375,
1064.079,1084.1805,
1061.169,1087.8138,
1058.258,1087.1121,
1055.348,1092.4946,
1052.437,1109.9405,
1049.527,1076.9699,
1046.616,1089.1335,
1043.705,1077.397,
1040.795,1092.0166,
1037.884,1100.9828,
1034.974,1094.6585,
1032.063,1088.8845,
1029.153,1098.8888,
1026.242,1118.7828,
1023.331,1087.8354,
1020.421,1120.5377,
1017.510,1121.8123,
1014.600,1115.844,
1011.689,1119.0837,
1008.778,1106.9661,
1005.868,1115.5232,
1002.957,1118.1042,
1000.047,1167.276,
997.136,1188.4366,
994.226,1205.2228,
991.315,1221.9777,
988.404,1209.5828,
985.494,1163.4808,
982.583,1162.6243,
979.673,1150.7937,
976.762,1144.7387,
973.852,1150.5722,
970.941,1160.0928,
968.030,1159.6965,
965.120,1149.5609,
962.209,1164.0541,
959.299,1179.2485,
956.388,1182.8201,
953.477,1187.2544,
950.567,1193.1472,
947.656,1189.8423,
944.746,1215.329,
941.835,1197.0645,
938.925,1219.4801,
936.014,1234.0058,
933.103,1228.1443,
930.193,1214.7022,
927.282,1206.8126,
924.372,1194.1285,
921.461,1218.274,
918.551,1199.0343,
915.640,1175.1005,
912.729,1179.8925,
909.819,1201.719,
906.908,1173.0766,
903.998,1188.998,
901.087,1183.3159,
898.176,1174.6368,
895.266,1190.2265,
892.355,1220.2911,
889.445,1165.7387,
886.534,1195.5554,
883.624,1240.5243,
880.713,1256.9482,
877.802,1231.2248,
874.892,1172.4246,
871.981,1102.1462,
869.071,960.12605,
866.160,977.58754,
863.250,1081.4209,
860.339,1166.3754,
857.428,1186.4306,
854.518,1210.2483,
851.607,1166.9807,
848.697,1101.0355,
845.786,1050.6276,
842.875,1069.7467,
839.965,1167.6948,
837.054,1265.0024,
834.144,1309.755,
831.233,1313.1671,
828.323,1294.6737,
825.412,1289.7687,
822.501,1314.3936,
819.591,1319.352,
816.680,1284.2435,
813.770,1286.1505,
810.859,1281.219,
807.949,1263.3658,
805.038,1252.4004,
802.127,1251.5773,
799.217,1211.9943,
796.306,1219.5002,
793.396,1262.7522,
790.485,1294.7604,
787.574,1255.8389,
784.664,1291.1037,
781.753,1311.5907,
778.843,1309.6785,
775.932,1310.685,
773.022,1332.232,
770.111,1324.0562,
767.200,1299.138,
764.290,1269.5406,
761.379,1259.8019,
758.469,1275.9873,
755.558,1300.9619,
752.648,1316.4394,
749.737,1301.2219,
746.826,1278.912,
743.916,1267.5715,
741.005,1272.4737,
738.095,1245.6818,
735.184,1172.4241,
732.274,1091.9103,
729.363,1092.9172,
726.452,1192.1544,
723.542,1212.3893,
720.631,1257.8433,
717.721,1277.2285,
714.810,1303.9601,
711.899,1337.4901,
708.989,1324.5793,
706.078,1326.1026,
703.168,1318.6061,
700.257,1316.8006,
697.347,1318.2395,
694.436,1305.9545,
691.525,1285.8593,
688.615,1290.3048,
685.704,1301.5437,
682.794,1322.8403,
679.883,1366.1035,
676.973,1357.2884,
674.062,1356.7762,
671.151,1342.5968,
668.241,1331.8387,
665.330,1356.1176,
662.420,1305.7975,
659.509,1318.9924,
656.598,1342.4532,
653.688,1357.8004,
650.777,1366.8771,
647.867,1407.4898,
644.956,1381.8276,
642.046,1343.0869,
639.135,1311.1637,
636.224,1283.8462,
633.314,1352.9188,
630.403,1351.5813,
627.493,1352.7108,
624.582,1372.6749,
621.672,1360.003,
618.761,1342.7813,
615.850,1357.8865,
612.940,1387.4783,
610.029,1407.3706,
607.119,1376.575,
604.208,1389.8303,
601.297,1405.4733,
598.387,1395.8689,
595.476,1352.2483,
592.566,1381.3699,
589.655,1398.162,
586.745,1407.1038,
583.834,1411.1588,
580.923,1413.3484,
578.013,1388.2369,
575.102,1380.3528,
572.192,1399.1506,
569.281,1433.3752,
566.371,1427.1142,
563.460,1420.8563,
560.549,1448.7113,
557.639,1485.0656,
554.728,1492.8192,
551.818,1418.6892,
548.907,1406.1565,
545.996,1434.9377,
543.086,1474.1513,
540.175,1463.2503,
537.265,1453.0844,
534.354,1443.4797,
531.444,1441.4012,
528.533,1454.4798,
525.622,1496.381,
522.712,1478.1961,
519.801,1436.0597,
516.891,1399.9431,
513.980,1416.9776,
511.070,1449.4913,
508.159,1461.0673,
505.248,1462.5043,
502.338,1471.0482,
499.427,1455.6115,
496.517,1446.9748,
493.606,1448.2109,
490.695,1460.2816,
487.785,1480.2962,
484.874,1473.8066,
481.964,1442.7527,
479.053,1405.5807,
476.143,1401.7409,
473.232,1439.6284,
470.321,1445.255,
467.411,1423.5968,
464.500,1389.3727,
461.590,1423.831,
458.679,1445.6065,
455.769,1462.1163,
452.858,1476.8181,
449.947,1479.8739,
447.037,1455.0161,
444.126,1452.5485,
441.216,1477.2937,
438.305,1481.8653,
435.395,1497.5796,
432.484,1473.8268,
429.573,1419.5599,
426.663,1376.992,
423.752,1270.282,
420.842,1118.1788,
417.931,961.62718,
415.020,860.0072,
412.110,1086.2265,
409.199,1268.7884,
406.289,1371.008,
403.378,1369.3335,
400.468,1320.1939,
397.557,1330.2075,
394.646,1378.7411,
391.736,1444.4759,
388.825,1443.7216,
385.915,1428.5986,
383.004,1415.5,
380.094,1416.9204,
377.183,1444.762,
374.272,1438.9305,
371.362,1453.1065,
368.451,1512.9955,
365.541,1488.2278,
362.630,1473.8526,
359.719,1473.4194,
356.809,1486.2767,
353.898,1466.0591,
350.988,1492.5067,
348.077,1501.4947,
345.167,1458.7488,
342.256,1483.402,
339.345,1495.8143,
336.435,1490.2291,
333.524,1463.3591,
330.614,1458.8881,
327.703,1484.7105,
324.793,1515.398,
321.882,1529.4766,
318.971,1519.8118,
316.061,1501.8506,
313.150,1500.1262,
310.240,1543.911,
307.329,1550.5025,
304.418,1580.3131,
301.508,1603.6538,
298.597,1566.633,
295.687,1536.4104,
292.776,1527.25,
289.866,1542.1528,
286.955,1587.9538,
284.044,1633.715,
281.134,1682.4202,
278.223,1730.5957,
275.313,1758.5962,
272.402,1761.0146,
269.492,1753.7472,
266.581,1736.9837,
263.670,1645.8214,
260.760,1681.6636,
257.849,1760.3133,
254.939,1822.6933,
252.028,1782.9647,
249.117,1781.6617,
246.207,1802.667,
243.296,1818.7718,
240.386,1792.4214,
237.475,1804.7773,
234.565,1847.9248,
231.654,1844.2729,
228.743,1811.8548,
225.833,1784.8412,
222.922,1776.0244,
220.012,1765.8246,
217.101,1774.2772,
214.191,1766.3924,
211.280,1699.4659,
208.369,1685.7534,
205.459,1657.545,
202.548,1632.1546,
199.638,1693.8348,
196.727,1692.0946,
193.816,1665.2448,
190.906,1624.7827,
187.995,1547.3121,
185.085,1580.0798,
182.174,1623.5816,
179.264,1539.018,
176.353,1523.0922,
173.442,1544.5165,
170.532,1576.487,
167.621,1473.3875,
164.711,1432.8864,
161.800,1369.3979,
158.890,1216.8157,
155.979,1164.9937,
153.068,1090.8203,
150.158,982.42891,
147.247,811.55627,
144.337,666.43325,
141.426,529.55195,
138.516,394.05951,
135.605,273.56567,
132.694,189.32334,
129.784,129.93231,
126.873,70.576535,
123.963,52.240229,
121.052,39.284613,
118.141,18.581455,
115.231,14.947148,
112.320,13.076364,
109.410,12.090934,
106.499,9.9544685,
103.589,9.5,
100.678,8.4135132,
97.767,5.5697629,
94.857,4.807011,
91.946,6.5155544,
89.036,9.3871021,
86.125,8.6778968,
83.215,11.685522,
80.304,9.950779,
77.393,-3.5044498,
74.483,5.9821593,
71.572,9.6882394,
68.662,6.084395,
65.751,1.8456885,
62.840,4.8353179,
59.930,7.8144242,
57.019,1.4686863,
54.109,-3.0829651,
51.198,-3.3887351,
48.288,1.5226498,
45.377,4.336162,
42.466,5.5,
39.556,5.2697628,
36.645,3.8653824,
33.735,3.5,
30.824,1.2911303,
27.914,-5.7206222,
25.003,-3.3868126,
22.092,-2.4687137,
19.182,-4.0423427,
16.271,9.9474599,
13.361,61.860377,
10.450,134.63442,
7.539,187.70639,
4.629,25.433184,
1.718,-237.42821,
-1.192,-556.72041,
-4.103,-516.67996,
-7.013,-324.95373,
-9.924,-5.5,
