,PLE17F~1,
Wavenumbers [1/cm],Intensity,
3014.167,1,
3011.256,0.10002147,
3008.346,27.769049,
3005.435,10.388698,
3002.525,21.282438,
2999.614,7.901309,
2996.704,9.2298986,
2993.793,12.743088,
2990.882,21.389295,
2987.972,24.954595,
2985.061,17.773401,
2982.151,15.596635,
2979.240,24.115008,
2976.329,28.49181,
2973.419,29.399742,
2970.508,34.45003,
2967.598,11.426506,
2964.687,13.372282,
2961.777,18.034087,
2958.866,34.007424,
2955.955,30.829637,
2953.045,23.384799,
2950.134,28.542262,
2947.224,12.96794,
2944.313,38.809116,
2941.403,29.130931,
2938.492,28.138209,
2935.581,36.564396,
2932.671,39.600866,
2929.760,40.792303,
2926.850,52.216164,
2923.939,40.397175,
2921.028,43.064636,
2918.118,44.639798,
2915.207,35.936621,
2912.297,46.932299,
2909.386,41.204378,
2906.476,37.356749,
2903.565,46.677034,
2900.654,46.270991,
2897.744,49.2263,
2894.833,59.989821,
2891.923,45.945498,
2889.012,55.329481,
2886.102,61.959466,
2883.191,67.99056,
2880.280,102.39234,
2877.370,83.377968,
2874.459,26.710627,
2871.549,25.052743,
2868.638,43.455661,
2865.727,22.87304,
2862.817,53.300789,
2859.906,27.304833,
2856.996,62.456977,
2854.085,61.436956,
2851.175,44.807266,
2848.264,39.421664,
2845.353,41.237237,
2842.443,48.406267,
2839.532,46.104459,
2836.622,47.634767,
2833.711,46.836744,
2830.801,43.108085,
2827.890,47.793724,
2824.979,50.296053,
2822.069,40.159209,
2819.158,52.479783,
2816.248,44.023159,
2813.337,55.845131,
2810.427,48.081259,
2807.516,52.949688,
2804.605,49.656257,
2801.695,52.644722,
2798.784,44.221769,
2795.874,44.564635,
2792.963,41.999785,
2790.052,42.998713,
2787.142,45.171193,
2784.231,46.517098,
2781.321,46.874279,
2778.410,48.319791,
2775.500,44.57552,
2772.589,44.577215,
2769.678,53.641616,
2766.768,50.883484,
2763.857,50.894026,
2760.947,43.490544,
2758.036,53.859944,
2755.126,55,
2752.215,59.786423,
2749.304,59.638494,
2746.394,56.116911,
2743.483,66.749988,
2740.573,63.676968,
2737.662,45.690821,
2734.751,53.068095,
2731.841,51.35165,
2728.930,52.673712,
2726.020,61.117477,
2723.109,62.453667,
2720.199,61.706282,
2717.288,60.806572,
2714.377,62.25836,
2711.467,56.83626,
2708.556,51.648842,
2705.646,49.084492,
2702.735,71.822157,
2699.825,59.043628,
2696.914,73.19093,
2694.003,64.413004,
2691.093,71.321303,
2688.182,67.236296,
2685.272,68.601708,
2682.361,61.635371,
2679.450,64.370346,
2676.540,58.040648,
2673.629,63.650204,
2670.719,67.788353,
2667.808,59.340449,
2664.898,69.895911,
2661.987,68.53309,
2659.076,68.601286,
2656.166,67.822514,
2653.255,66.037415,
2650.345,65,
2647.434,43.00086,
2644.524,73.455628,
2641.613,76.485859,
2638.702,78.015781,
2635.792,70.686942,
2632.881,68.071545,
2629.971,76.087328,
2627.060,78.499064,
2624.149,78.65001,
2621.239,76.76334,
2618.328,60.466259,
2615.418,70.668181,
2612.507,78.067164,
2609.597,54.846306,
2606.686,58.232957,
2603.775,77.757933,
2600.865,71,
2597.954,74.143742,
2595.044,75.678476,
2592.133,69.942644,
2589.223,78.698957,
2586.312,79,
2583.401,65.981709,
2580.491,71.052826,
2577.580,80.968643,
2574.670,63.106949,
2571.759,81.414374,
2568.848,80.828661,
2565.938,98.095372,
2563.027,82.195441,
2560.117,74.560723,
2557.206,77.040589,
2554.296,78.455377,
2551.385,74.066031,
2548.474,97.704093,
2545.564,90.506488,
2542.653,94.620803,
2539.743,93.580097,
2536.832,87,
2533.922,91.984231,
2531.011,94.024744,
2528.100,92.404152,
2525.190,87.952868,
2522.279,85.906204,
2519.369,84.905606,
2516.458,78.660766,
2513.548,89.79975,
2510.637,91.614827,
2507.726,97.565047,
2504.816,90.562571,
2501.905,86.130488,
2498.995,85.955503,
2496.084,100.08013,
2493.173,88.052317,
2490.263,101.53902,
2487.352,94.791333,
2484.442,89.145613,
2481.531,92.265905,
2478.621,97,
2475.710,98.038339,
2472.799,98.560587,
2469.889,93.725779,
2466.978,90.732074,
2464.068,87.915351,
2461.157,82.694933,
2458.247,93.147049,
2455.336,97.935428,
2452.425,101,
2449.515,103.52806,
2446.604,93.705064,
2443.694,87.441593,
2440.783,111.14865,
2437.872,98.474044,
2434.962,107.58526,
2432.051,97.024673,
2429.141,93.864733,
2426.230,95.804427,
2423.320,103.29958,
2420.409,114.19244,
2417.498,112.57305,
2414.588,92.022931,
2411.677,98.251008,
2408.767,102.72343,
2405.856,111.00945,
2402.946,109.51743,
2400.035,124.37561,
2397.124,111.23529,
2394.214,119.7024,
2391.303,112.71274,
2388.393,96.309272,
2385.482,118.76627,
2382.571,92.645318,
2379.661,94.674533,
2376.750,99.627982,
2373.840,115.70623,
2370.929,122.93502,
2368.019,108.38547,
2365.108,108.41885,
2362.197,105.40274,
2359.287,119.36992,
2356.376,127.99119,
2353.466,115.22777,
2350.555,107.60499,
2347.645,107,
2344.734,116.45624,
2341.823,107.199,
2338.913,129.20445,
2336.002,111.82053,
2333.092,113.80471,
2330.181,104.47316,
2327.270,102.05501,
2324.360,120.41978,
2321.449,132.44557,
2318.539,133.68198,
2315.628,118.28696,
2312.718,115.94934,
2309.807,117.43458,
2306.896,131.45696,
2303.986,119.35069,
2301.075,125,
2298.165,138.56756,
2295.254,114.6032,
2292.344,122.46882,
2289.433,132.60227,
2286.522,127.80794,
2283.612,143.14031,
2280.701,138.94172,
2277.791,118.08015,
2274.880,117.64604,
2271.969,114.80247,
2269.059,126.79292,
2266.148,118.05676,
2263.238,121.19691,
2260.327,140.34461,
2257.417,122.03278,
2254.506,139.0456,
2251.595,134.7237,
2248.685,140.99418,
2245.774,129.7805,
2242.864,146.10223,
2239.953,155.17254,
2237.043,125.37608,
2234.132,134.27264,
2231.221,145.73641,
2228.311,138.78093,
2225.400,158.94371,
2222.490,151.80119,
2219.579,135.49618,
2216.669,154.96661,
2213.758,148.30194,
2210.847,147.44835,
2207.937,162.42995,
2205.026,151.99941,
2202.116,166.68896,
2199.205,164.23741,
2196.294,159.25602,
2193.384,151.8685,
2190.473,152.71596,
2187.563,187.88883,
2184.652,164.09633,
2181.742,157.81804,
2178.831,152.36186,
2175.920,157.1603,
2173.010,192.72732,
2170.099,171.07042,
2167.189,185.99282,
2164.278,187.05427,
2161.368,203.2852,
2158.457,213.15275,
2155.546,197.98555,
2152.636,190.48403,
2149.725,206.14764,
2146.815,213.83316,
2143.904,210.70631,
2140.993,219.24876,
2138.083,203.56532,
2135.172,214.5042,
2132.262,216.50352,
2129.351,216.48965,
2126.441,225.71848,
2123.530,226.98878,
2120.619,225.31196,
2117.709,217.83575,
2114.798,203.56148,
2111.888,196.53743,
2108.977,202.45033,
2106.067,182.24867,
2103.156,192.5967,
2100.245,185.99122,
2097.335,174.89005,
2094.424,191.21301,
2091.514,173.49729,
2088.603,178.9677,
2085.692,183.49818,
2082.782,179.70682,
2079.871,207.92998,
2076.961,210.25831,
2074.050,227.59394,
2071.140,197.90821,
2068.229,186.1836,
2065.318,192.80326,
2062.408,196.65886,
2059.497,206.44051,
2056.587,208.65135,
2053.676,199.91692,
2050.766,203.6151,
2047.855,206.23107,
2044.944,183.72435,
2042.034,202.78606,
2039.123,193.48148,
2036.213,213.30669,
2033.302,227.60858,
2030.391,229.49165,
2027.481,227,
2024.570,221.10016,
2021.660,198.35997,
2018.749,238.70832,
2015.839,207.21063,
2012.928,214.77013,
2010.017,213.67535,
2007.107,214.67477,
2004.196,226.21432,
2001.286,239.83391,
1998.375,227.69094,
1995.465,224.14643,
1992.554,237.27048,
1989.643,245.75805,
1986.733,238.92982,
1983.822,224.79616,
1980.912,249.67292,
1978.001,231.23747,
1975.090,221.00763,
1972.180,218.96542,
1969.269,232.45406,
1966.359,230.97283,
1963.448,260.79526,
1960.538,231.8015,
1957.627,215.75851,
1954.716,223.74146,
1951.806,273.01288,
1948.895,232.95955,
1945.985,226.35294,
1943.074,253.03693,
1940.164,244.08645,
1937.253,240.87383,
1934.342,231.88022,
1931.432,228.96846,
1928.521,235.70121,
1925.611,225.62997,
1922.700,251.28314,
1919.790,259.86126,
1916.879,236.74374,
1913.968,253.97664,
1911.058,279.88588,
1908.147,253.58689,
1905.237,268.66171,
1902.326,242.38369,
1899.415,255.12682,
1896.505,239.78314,
1893.594,251.44821,
1890.684,246.44456,
1887.773,236.35329,
1884.863,260.1344,
1881.952,279.36992,
1879.041,271.65265,
1876.131,263.92811,
1873.220,249.92473,
1870.310,288.84298,
1867.399,291.01599,
1864.489,240.44091,
1861.578,277.96139,
1858.667,293.77248,
1855.757,270.81504,
1852.846,258.27178,
1849.936,265.86087,
1847.025,255.41119,
1844.114,269.26592,
1841.204,287.8042,
1838.293,283.01164,
1835.383,274.907,
1832.472,294.16348,
1829.562,306.08359,
1826.651,286.53801,
1823.740,279.45594,
1820.830,296.97653,
1817.919,281.64059,
1815.009,279.5687,
1812.098,283.59055,
1809.188,318.70535,
1806.277,279.92954,
1803.366,290.35119,
1800.456,253.81359,
1797.545,285,
1794.635,285.129,
1791.724,290.45625,
1788.813,314.4018,
1785.903,316.48258,
1782.992,313.31597,
1780.082,322.14193,
1777.171,268.65523,
1774.261,247.53543,
1771.350,284.60425,
1768.439,302.30043,
1765.529,319.27127,
1762.618,307.58437,
1759.708,306.02175,
1756.797,334.43182,
1753.887,350.10204,
1750.976,345.76898,
1748.065,345.77112,
1745.155,343.08388,
1742.244,337.36504,
1739.334,337.05412,
1736.423,364.14202,
1733.512,376.45529,
1730.602,372.5119,
1727.691,327.24335,
1724.781,373.77982,
1721.870,372.29513,
1718.960,397.60036,
1716.049,393.9323,
1713.138,378.32007,
1710.228,364.68614,
1707.317,386.88343,
1704.407,388.20321,
1701.496,411.70024,
1698.586,377.96461,
1695.675,424.59256,
1692.764,412.85245,
1689.854,387.12597,
1686.943,404.35921,
1684.033,423.52811,
1681.122,428.91504,
1678.211,410.18083,
1675.301,469.815,
1672.390,427.92822,
1669.480,404.23264,
1666.569,433.49514,
1663.659,471.88567,
1660.748,464.82646,
1657.837,456.52487,
1654.927,479.29713,
1652.016,449.9757,
1649.106,449.29377,
1646.195,461.93508,
1643.285,501.23047,
1640.374,553.10105,
1637.463,511.43235,
1634.553,535.31034,
1631.642,556.22802,
1628.732,577.07703,
1625.821,590.01636,
1622.911,614.85912,
1620.000,625.86141,
1617.089,659.32338,
1614.179,677.49238,
1611.268,706.88466,
1608.358,748.03343,
1605.447,773.57162,
1602.536,765.68113,
1599.626,794.43785,
1596.715,794.2772,
1593.805,770.74737,
1590.894,777.68737,
1587.984,850.88564,
1585.073,774.36587,
1582.162,791.56056,
1579.252,766.90456,
1576.341,789.63935,
1573.431,750.00955,
1570.520,708.71805,
1567.610,693.29401,
1564.699,705.5006,
1561.788,727.90125,
1558.878,728.85513,
1555.967,697.59142,
1553.057,704.68944,
1550.146,669.68011,
1547.235,646.49359,
1544.325,665.70383,
1541.414,689.96137,
1538.504,703.56901,
1535.593,687.49725,
1532.683,652.83999,
1529.772,659.14962,
1526.861,688.98836,
1523.951,693.08169,
1521.040,706.71285,
1518.130,726.82569,
1515.219,764.27998,
1512.309,751.37383,
1509.398,712.36308,
1506.487,721.36219,
1503.577,723.14695,
1500.666,723.5523,
1497.756,723.66147,
1494.845,765.87884,
1491.934,714.78267,
1489.024,648.37067,
1486.113,731.30383,
1483.203,728.23016,
1480.292,677.78633,
1477.382,693.24745,
1474.471,669.8396,
1471.560,690.02664,
1468.650,675.71887,
1465.739,662.07853,
1462.829,674.7268,
1459.918,706.09964,
1457.008,708.76904,
1454.097,687.99195,
1451.186,678.9207,
1448.276,672.31031,
1445.365,656.67694,
1442.455,637.27332,
1439.544,639.5704,
1436.633,637.48461,
1433.723,608.35576,
1430.812,652.92612,
1427.902,652.2255,
1424.991,661.70312,
1422.081,667.50486,
1419.170,678.36872,
1416.259,691.34088,
1413.349,712.88103,
1410.438,698.70639,
1407.528,688.71252,
1404.617,714.42077,
1401.707,682.12571,
1398.796,628.97555,
1395.885,646.04353,
1392.975,669.54111,
1390.064,657.36099,
1387.154,688.86929,
1384.243,683.96347,
1381.332,627.34804,
1378.422,595.77797,
1375.511,552.68604,
1372.601,586.0981,
1369.690,656.72057,
1366.780,660.07965,
1363.869,689.23851,
1360.958,656.10529,
1358.048,647.8328,
1355.137,696.90062,
1352.227,698.6011,
1349.316,676.4973,
1346.406,703.68069,
1343.495,698.7648,
1340.584,691.35677,
1337.674,711.71197,
1334.763,677.94069,
1331.853,728.9384,
1328.942,761.24178,
1326.032,716.87838,
1323.121,691.92168,
1320.210,714.96867,
1317.300,729.59023,
1314.389,740.27798,
1311.479,743.44665,
1308.568,747.93088,
1305.657,762.00936,
1302.747,744.66133,
1299.836,764.17442,
1296.926,744.38456,
1294.015,752.65847,
1291.105,730.10591,
1288.194,783.71076,
1285.283,774.3719,
1282.373,782.71868,
1279.462,779.82378,
1276.552,776.89767,
1273.641,795.49016,
1270.731,806.88358,
1267.820,804.89409,
1264.909,825.57049,
1261.999,757.29959,
1259.088,765.50868,
1256.178,771.99519,
1253.267,739.2434,
1250.356,729.67725,
1247.446,727.06636,
1244.535,720.04466,
1241.625,709.34816,
1238.714,705.35907,
1235.804,712.16021,
1232.893,707.49152,
1229.982,745.14141,
1227.072,719.79267,
1224.161,709.59496,
1221.251,702.78844,
1218.340,670.55284,
1215.430,680.97623,
1212.519,686.70066,
1209.608,652.82497,
1206.698,637.21302,
1203.787,662.79396,
1200.877,640.78009,
1197.966,653.36832,
1195.055,679.59746,
1192.145,707.29165,
1189.234,721.48792,
1186.324,750.09332,
1183.413,755.98475,
1180.503,749.47845,
1177.592,761.6866,
1174.681,727.46232,
1171.771,772.28848,
1168.860,784.79173,
1165.950,757.77987,
1163.039,739.82556,
1160.129,748.56667,
1157.218,766.17251,
1154.307,771.66077,
1151.397,761.82914,
1148.486,755.24498,
1145.576,783.84357,
1142.665,757.20619,
1139.754,748.49097,
1136.844,745.59939,
1133.933,741.48096,
1131.023,724.83712,
1128.112,723.99783,
1125.202,749.55073,
1122.291,740.86387,
1119.380,712.1559,
1116.470,728.04141,
1113.559,706.02928,
1110.649,714.06145,
1107.738,703.78219,
1104.828,690.0805,
1101.917,687.9702,
1099.006,681.43285,
1096.096,705.54866,
1093.185,681.84259,
1090.275,706.70592,
1087.364,693.10244,
1084.453,717.18539,
1081.543,723.28006,
1078.632,707.08844,
1075.722,727,
1072.811,725.63485,
1069.901,706.42311,
1066.990,698.53335,
1064.079,718.77644,
1061.169,709.66946,
1058.258,703.31668,
1055.348,706.29937,
1052.437,682.67202,
1049.527,681.83916,
1046.616,703.5599,
1043.705,692.89699,
1040.795,690.27701,
1037.884,690.49426,
1034.974,698.56572,
1032.063,707.75403,
1029.153,692.24635,
1026.242,702.62582,
1023.331,676.33504,
1020.421,711.43189,
1017.510,721.15614,
1014.600,725.57325,
1011.689,736.00902,
1008.778,725.70678,
1005.868,724.04633,
1002.957,729.20846,
1000.047,748.92801,
997.136,774.2071,
994.226,770.49257,
991.315,750.30446,
988.404,747.75739,
985.494,731.74802,
982.583,765.15371,
979.673,732.68602,
976.762,721.34841,
973.852,721.67397,
970.941,719.11086,
968.030,713.99417,
965.120,697.10024,
962.209,720.97142,
959.299,741.99798,
956.388,738.36068,
953.477,730.82205,
950.567,736.4442,
947.656,750.67116,
944.746,763.4145,
941.835,776.1472,
938.925,792.81905,
936.014,773.19122,
933.103,752.64951,
930.193,765.59684,
927.282,773.93771,
924.372,735.88541,
921.461,755.30121,
918.551,752.96227,
915.640,744.15011,
912.729,747.02534,
909.819,759.11205,
906.908,767.5363,
903.998,736.18543,
901.087,724.81747,
898.176,720.13683,
895.266,725.88717,
892.355,748.45532,
889.445,766.91919,
886.534,752.80718,
883.624,776.91328,
880.713,788.46893,
877.802,780.05217,
874.892,764.79384,
871.981,752.59318,
869.071,650.67281,
866.160,610.23133,
863.250,644.03303,
860.339,712.99592,
857.428,773.22628,
854.518,806.94084,
851.607,770.32979,
848.697,759.8731,
845.786,713.36891,
842.875,687.03058,
839.965,722.5439,
837.054,757.2698,
834.144,781.30362,
831.233,800.66561,
828.323,819.86972,
825.412,830.39019,
822.501,823.57438,
819.591,804.5672,
816.680,825.63465,
813.770,833.50601,
810.859,822.8165,
807.949,807.72439,
805.038,805.50663,
802.127,793.15972,
799.217,786.78226,
796.306,779.89185,
793.396,776,
790.485,775.36826,
787.574,773.46706,
784.664,785.76875,
781.753,807.45854,
778.843,817.98016,
775.932,827.02456,
773.022,839.9281,
770.111,807.22497,
767.200,798.9095,
764.290,819.53724,
761.379,830.48585,
758.469,821.79073,
755.558,820.8055,
752.648,814.28867,
749.737,813,
746.826,813,
743.916,817.4676,
741.005,827.89954,
738.095,818.15702,
735.184,807.70422,
732.274,758.77282,
729.363,726.74199,
726.452,745.60795,
723.542,754.51128,
720.631,793.99149,
717.721,806.57285,
714.810,828.31804,
711.899,861.49504,
708.989,855.03964,
706.078,829.35831,
703.168,828.46499,
700.257,837.36344,
697.347,839.78316,
694.436,820.84725,
691.525,815.22061,
688.615,812.11327,
685.704,812.72677,
682.794,826.93604,
679.883,864.84661,
676.973,839.20275,
674.062,861.43753,
671.151,867.79507,
668.241,855.76175,
665.330,854.13023,
662.420,835.7594,
659.509,850.413,
656.598,863.16375,
653.688,871.98111,
650.777,892.35103,
647.867,902.70329,
644.956,926.67025,
642.046,894.8088,
639.135,827.01743,
636.224,812.21485,
633.314,855.08753,
630.403,873.68574,
627.493,870.55036,
624.582,853.292,
621.672,836.66012,
618.761,842.83945,
615.850,879.71223,
612.940,905.26772,
610.029,894.34453,
607.119,860.39041,
604.208,882.56048,
601.297,909.9496,
598.387,909.22881,
595.476,865,
592.566,865,
589.655,898.04239,
586.745,916.43397,
583.834,908.21664,
580.923,877.03317,
578.013,882.52631,
575.102,892.03024,
572.192,905.86026,
569.281,919.1564,
566.371,914.46066,
563.460,907.65079,
560.549,928.38937,
557.639,960.78834,
554.728,979.9306,
551.818,947.15733,
548.907,919.27995,
545.996,923.88432,
543.086,937.40466,
540.175,869.66247,
537.265,882.3827,
534.354,899.5355,
531.444,910.27866,
528.533,913.59356,
525.622,950.06309,
522.712,941.01091,
519.801,923.88992,
516.891,911.49592,
513.980,899.10719,
511.070,936.03476,
508.159,934.33004,
505.248,921.25906,
502.338,939.45779,
499.427,920.93382,
496.517,914.30303,
493.606,937.9004,
490.695,982.82761,
487.785,952.80577,
484.874,957.04713,
481.964,932.93052,
479.053,895.30944,
476.143,909.13277,
473.232,897.05073,
470.321,898.32549,
467.411,910.31847,
464.500,925.45699,
461.590,904.01626,
458.679,943.12416,
455.769,961.72628,
452.858,924.94279,
449.947,953.20825,
447.037,928.05521,
444.126,922.04848,
441.216,945.33856,
438.305,941.5289,
435.395,923.95345,
432.484,912.08273,
429.573,911.55004,
426.663,926.75285,
423.752,903.59033,
420.842,837.28431,
417.931,745.57468,
415.020,656.08843,
412.110,715.18712,
409.199,833.84341,
406.289,941.62536,
403.378,964.90523,
400.468,936.93344,
397.557,929.54245,
394.646,928.30654,
391.736,921.09658,
388.825,924.1135,
385.915,921.80684,
383.004,912.71805,
380.094,898.15167,
377.183,920.72596,
374.272,915.60161,
371.362,927.4859,
368.451,977.31313,
365.541,949.54329,
362.630,946.91616,
359.719,943.30484,
356.809,923.09702,
353.898,891.6475,
350.988,924.22899,
348.077,960.16164,
345.167,961.4485,
342.256,930.8187,
339.345,945.91447,
336.435,957.28427,
333.524,931.6007,
330.614,918.93306,
327.703,937.07642,
324.793,965.47595,
321.882,986.98558,
318.971,981.03804,
316.061,964.83889,
313.150,964.08806,
310.240,1009.3571,
307.329,1008.8561,
304.418,1023.0465,
301.508,1043.1662,
298.597,1051.3107,
295.687,1024.2331,
292.776,999.74994,
289.866,992.09591,
286.955,1030.5096,
284.044,1049.2825,
281.134,1068.4789,
278.223,1086.1677,
275.313,1073.6412,
272.402,1119.215,
269.492,1166.0404,
266.581,1186.5873,
263.670,1110.8637,
260.760,1123.4773,
257.849,1157.053,
254.939,1162.9241,
252.028,1175.3054,
249.117,1130.6626,
246.207,1083.5541,
243.296,1128.2083,
240.386,1171.5265,
237.475,1170.4855,
234.565,1131.8588,
231.654,1105.565,
228.743,1117.261,
225.833,1125.4266,
222.922,1114.0827,
220.012,1094.4117,
217.101,1091.435,
214.191,1076.6409,
211.280,1015.5341,
208.369,1007.6359,
205.459,1009.194,
202.548,1021.2702,
199.638,1063.3579,
196.727,1032.2411,
193.816,1008.1174,
190.906,1018.4509,
187.995,974.28542,
185.085,941.50434,
182.174,939.62952,
179.264,1004.6785,
176.353,945.99977,
173.442,920.23929,
170.532,931.59929,
167.621,859.50173,
164.711,884.67326,
161.800,890.83872,
158.890,790.79659,
155.979,714.10526,
153.068,630.54916,
150.158,549.0376,
147.247,508.11432,
144.337,427.62217,
141.426,332.51996,
138.516,232.15519,
135.605,171.53284,
132.694,121.57109,
129.784,81.70395,
126.873,54.529016,
123.963,35.342317,
121.052,19.050926,
118.141,4.0589844,
115.231,10.395133,
112.320,11.729092,
109.410,9.8636447,
106.499,9.1514895,
103.589,6.7589821,
100.678,3.9135132,
97.767,1.0697629,
94.857,0.30701095,
91.946,3.6279978,
89.036,8.5484084,
86.125,5.7115873,
83.215,6.0618407,
80.304,5.3239712,
77.393,0.36678165,
74.483,2.6205398,
71.572,3.6376479,
68.662,2.307325,
65.751,-4.7571858,
62.840,-2.6646821,
59.930,2,
57.019,2,
54.109,-2.7772868,
51.198,-5.0951722,
48.288,-2.9943376,
45.377,-2.2909595,
42.466,-2.8244387,
39.556,-3.5395257,
36.645,-0.73076483,
33.735,-4.6732362,
30.824,-7.8955651,
27.914,-4.3896889,
25.003,-4,
22.092,-6.906141,
19.182,-12.931351,
16.271,-10.832881,
13.361,-24.329571,
10.450,-100.48919,
7.539,-428.69741,
4.629,-993.6659,
1.718,-1512.2767,
-1.192,-1738.1516,
-4.103,-1263.8497,
-7.013,-652.61093,
-9.924,3,
