,PLA0ED~1,
Wavenumbers [1/cm],Intensity,
3014.167,0.625,
3011.256,0.074989263,
3008.346,17.706623,
3005.435,7.5119287,
3002.525,14.662472,
2999.614,15.517245,
2996.704,20.588924,
2993.793,2.3680879,
2990.882,17.228002,
2987.972,14.59473,
2985.061,13.058503,
2982.151,7.1762508,
2979.240,13.056547,
2976.329,21.12227,
2973.419,30.363382,
2970.508,27.458366,
2967.598,14.242671,
2964.687,16.654211,
2961.777,24.001032,
2958.866,33.968232,
2955.955,32.766577,
2953.045,30.826353,
2950.134,36.986508,
2947.224,19.023563,
2944.313,29.478988,
2941.403,39.530108,
2938.492,37.199527,
2935.581,36.512121,
2932.671,31.268811,
2929.760,49.021151,
2926.850,39.095301,
2923.939,30.582928,
2921.028,33.77202,
2918.118,42.364293,
2915.207,25.441317,
2912.297,49.489598,
2909.386,42.033756,
2906.476,25.470532,
2903.565,37.625,
2900.654,32.731175,
2897.744,45.536995,
2894.833,36.975546,
2891.923,37.057701,
2889.012,26.451591,
2886.102,43.188519,
2883.191,1.6608726,
2880.280,37.778104,
2877.370,-100.74088,
2874.459,-172.44404,
2871.549,-87.137389,
2868.638,-0.2348265,
2865.727,-7.1134487,
2862.817,7.2974433,
2859.906,0.3600341,
2856.996,25.10915,
2854.085,46.230074,
2851.175,24.887046,
2848.264,32.688831,
2845.353,22.185743,
2842.443,46.027785,
2839.532,38.192197,
2836.622,43.108074,
2833.711,36.20271,
2830.801,46.61765,
2827.890,39.334803,
2824.979,41.489035,
2822.069,40.727349,
2819.158,52.28538,
2816.248,49.153948,
2813.337,52.511586,
2810.427,49.713156,
2807.516,38.366095,
2804.605,41.625,
2801.695,42.756581,
2798.784,66.776923,
2795.874,43.189635,
2792.963,43.196275,
2790.052,53.621997,
2787.142,43.375116,
2784.231,42.851724,
2781.321,39.373559,
2778.410,39.774739,
2775.500,36.434659,
2772.589,37.241202,
2769.678,57.051585,
2766.768,44.522058,
2763.857,49.677022,
2760.947,48.650217,
2758.036,54.319278,
2755.126,45.956198,
2752.215,56.411423,
2749.304,44.051278,
2746.394,47.778235,
2743.483,54.524959,
2740.573,49.31742,
2737.662,33.869076,
2734.751,49.741488,
2731.841,46.165291,
2728.930,43.768991,
2726.020,54.625,
2723.109,39.553085,
2720.199,50.762522,
2717.288,51.431572,
2714.377,55.49582,
2711.467,48.281039,
2708.556,34.103737,
2705.646,45.456017,
2702.735,61.462632,
2699.825,55.843142,
2696.914,55.339558,
2694.003,63.725815,
2691.093,55.392753,
2688.182,61.789445,
2685.272,63.306366,
2682.361,61.989629,
2679.450,59.96247,
2676.540,52.625,
2673.629,47.979286,
2670.719,51.471589,
2667.808,67.18728,
2664.898,55.962547,
2661.987,59.224934,
2659.076,55.752156,
2656.166,55.317685,
2653.255,48.475342,
2650.345,62.817379,
2647.434,41.454382,
2644.524,64.675328,
2641.613,57.053662,
2638.702,73.388284,
2635.792,65.436569,
2632.881,64.541803,
2629.971,56.880023,
2627.060,62.457813,
2624.149,72.137492,
2621.239,77.122036,
2618.328,54.413064,
2615.418,52.611367,
2612.507,65.451062,
2609.597,61.451347,
2606.686,60.183239,
2603.775,59.902774,
2600.865,54.918523,
2597.954,67.38543,
2595.044,58.330046,
2592.133,51.459413,
2589.223,63.323957,
2586.312,60.383752,
2583.401,66.953428,
2580.491,59.884595,
2577.580,58.620049,
2574.670,59.499321,
2571.759,70.726027,
2568.848,60.100079,
2565.938,85.434537,
2563.027,78.136398,
2560.117,65.447423,
2557.206,62.720941,
2554.296,70.766876,
2551.385,68.815022,
2548.474,84.291917,
2545.564,71.226455,
2542.653,84.635063,
2539.743,82.279033,
2536.832,52.256768,
2533.922,76.546154,
2531.011,74.099791,
2528.100,72.095357,
2525.190,71.740163,
2522.279,86.249816,
2519.369,72.285761,
2516.458,60.960693,
2513.548,68.479477,
2510.637,70.653929,
2507.726,97.56551,
2504.816,76.811015,
2501.905,74.117683,
2498.995,83.266686,
2496.084,72.412425,
2493.173,65.598842,
2490.263,81.591121,
2487.352,75.708467,
2484.442,79.903365,
2481.531,88.784543,
2478.621,70.895067,
2475.710,100.49465,
2472.799,79.432221,
2469.889,70.018358,
2466.978,73.625,
2464.068,77.455701,
2461.157,67.934943,
2458.247,79.330902,
2455.336,83.603476,
2452.425,69.469323,
2449.515,82.728955,
2446.604,84.631955,
2443.694,73.625,
2440.783,85.770271,
2437.872,62.135509,
2434.962,72.472931,
2432.051,71.427614,
2429.141,79.625,
2426.230,68.407294,
2423.320,92.35335,
2420.409,93.304647,
2417.498,88.001415,
2414.588,73.187827,
2411.677,81.911867,
2408.767,93.166337,
2405.856,104.56309,
2402.946,81.666111,
2400.035,91.30342,
2397.124,83.411092,
2394.214,95.139794,
2391.303,91.619583,
2388.393,80.86454,
2385.482,60.59436,
2382.571,71.334364,
2379.661,56.485432,
2376.750,70.043655,
2373.840,89.390571,
2370.929,99.549192,
2368.019,90.348539,
2365.108,88.088353,
2362.197,96.068794,
2359.287,98.406618,
2356.376,120.58978,
2353.466,99.474363,
2350.555,87.415028,
2347.645,89.809104,
2344.734,89.83698,
2341.823,100.44258,
2338.913,113.00706,
2336.002,97.928772,
2333.092,106.37217,
2330.181,94.062369,
2327.270,87.790016,
2324.360,97.683973,
2321.449,96.148822,
2318.539,106.1357,
2315.628,111.5071,
2312.718,120.69108,
2309.807,106.07849,
2306.896,101.90043,
2303.986,107.27431,
2301.075,105.32711,
2298.165,110.01928,
2295.254,91.055861,
2292.344,105.35941,
2289.433,108.24272,
2286.522,102.29905,
2283.612,118.28573,
2280.701,109.64296,
2277.791,111.70515,
2274.880,110.20106,
2271.969,100.71965,
2269.059,108.9765,
2266.148,96.304467,
2263.238,99.621132,
2260.327,110.55603,
2257.417,108.91333,
2254.506,110.6706,
2251.595,96.072395,
2248.685,104.19415,
2245.774,106.31742,
2242.864,114.40304,
2239.953,123.1216,
2237.043,112.28715,
2234.132,97.061418,
2231.221,112.49592,
2228.311,128.71391,
2225.400,109.09024,
2222.490,97.123513,
2219.579,121.86406,
2216.669,129.05584,
2213.758,119.49033,
2210.847,101.78873,
2207.937,132.28131,
2205.026,135.73608,
2202.116,134.52734,
2199.205,128.625,
2196.294,124.12901,
2193.384,118.4935,
2190.473,119.34096,
2187.563,149.5815,
2184.652,140.47439,
2181.742,134.89714,
2178.831,128.4616,
2175.920,143.36817,
2173.010,158.32568,
2170.099,154.69246,
2167.189,154.66088,
2164.278,162.11947,
2161.368,172.91116,
2158.457,159.38873,
2155.546,169.88176,
2152.636,167.99206,
2149.725,171.61157,
2146.815,174.59163,
2143.904,170.92982,
2140.993,178.66738,
2138.083,178.39089,
2135.172,192.19637,
2132.262,182.99912,
2129.351,182.625,
2126.441,200.29496,
2123.530,172.71479,
2120.619,177.73521,
2117.709,161.7345,
2114.798,162.57494,
2111.888,155.13748,
2108.977,168.976,
2106.067,141.73962,
2103.156,162.29906,
2100.245,136.63817,
2097.335,157.74542,
2094.424,158.625,
2091.514,154.33464,
2088.603,154.21944,
2085.692,166.17145,
2082.782,153.78172,
2079.871,136.94589,
2076.961,166.42935,
2074.050,162.625,
2071.140,158.76324,
2068.229,142.43489,
2065.318,162.95926,
2062.408,162.38977,
2059.497,159.65478,
2056.587,156.14847,
2053.676,156.34132,
2050.766,170.54727,
2047.855,138.90979,
2044.944,147.82693,
2042.034,146.65396,
2039.123,167.10648,
2036.213,164.37826,
2033.302,165.99421,
2030.391,170.16779,
2027.481,177.24681,
2024.570,183.46783,
2021.660,158.22149,
2018.749,179.16911,
2015.839,169.37369,
2012.928,173.49916,
2010.017,155.46865,
2007.107,165.53154,
2004.196,160.57737,
2001.286,187.02424,
1998.375,191.70767,
1995.465,169.10625,
1992.554,159.36622,
1989.643,189.51896,
1986.733,163.30395,
1983.822,163.26754,
1980.912,187.83213,
1978.001,154.93854,
1975.090,156.82042,
1972.180,156.21144,
1969.269,164.38078,
1966.359,143.43543,
1963.448,144.42686,
1960.538,157.11708,
1957.627,145.25038,
1954.716,166.93556,
1951.806,174.02886,
1948.895,162.88006,
1945.985,165.23775,
1943.074,170.70982,
1940.164,164.03813,
1937.253,136.33372,
1934.342,143.19772,
1931.432,159.70702,
1928.521,159.78044,
1925.611,156.625,
1922.700,153.45925,
1919.790,155.20879,
1916.879,149.11325,
1913.968,174.59303,
1911.058,200.04841,
1908.147,165.35202,
1905.237,170.86761,
1902.326,149.47092,
1899.415,138.55059,
1896.505,100.92615,
1893.594,115.42996,
1890.684,138.01064,
1887.773,147.90915,
1884.863,179.94846,
1881.952,181.46511,
1879.041,185.70288,
1876.131,180.48121,
1873.220,162.06299,
1870.310,166.12275,
1867.399,181.3851,
1864.489,145.20915,
1861.578,159.9986,
1858.667,164.35853,
1855.757,165.63574,
1852.846,152.87116,
1849.936,151.2296,
1847.025,149.09702,
1844.114,160.32859,
1841.204,206.9222,
1838.293,196.68321,
1835.383,175.28749,
1832.472,188.40413,
1829.562,196.65182,
1826.651,189.00078,
1823.740,174.88935,
1820.830,174.71164,
1817.919,160.96622,
1815.009,144.78149,
1812.098,179.42813,
1809.188,201.44666,
1806.277,170.35535,
1803.366,187.442,
1800.456,176.2403,
1797.545,172.75959,
1794.635,198.33592,
1791.724,166.75116,
1788.813,189.42731,
1785.903,187.9487,
1782.992,170.08703,
1780.082,163.97982,
1777.171,51.274336,
1774.261,5.9703902,
1771.350,73.659514,
1768.439,150.30931,
1765.529,212.72138,
1762.618,244.24312,
1759.708,209.46164,
1756.797,218.89015,
1753.887,238.5215,
1750.976,237.05955,
1748.065,224.57738,
1745.155,223.48299,
1742.244,231.61141,
1739.334,220.985,
1736.423,250.24551,
1733.512,255.16562,
1730.602,267.33336,
1727.691,225.03005,
1724.781,278.27059,
1721.870,253.97237,
1718.960,276.51429,
1716.049,272.71833,
1713.138,257.80006,
1710.228,253.01411,
1707.317,264.12443,
1704.407,264.7266,
1701.496,284.67905,
1698.586,268.14531,
1695.675,295.63197,
1692.764,276.79712,
1689.854,252.66436,
1686.943,287.37715,
1684.033,273.02238,
1681.122,285.4041,
1678.211,288.59645,
1675.301,306.5695,
1672.390,276.63098,
1669.480,279.0261,
1666.569,328.51074,
1663.659,319.674,
1660.748,323.45412,
1657.837,365.625,
1654.927,364.66441,
1652.016,324.7222,
1649.106,329.60424,
1646.195,368.76886,
1643.285,375.24024,
1640.374,400.74696,
1637.463,360.43566,
1634.553,405.20134,
1631.642,443.80958,
1628.732,460.47094,
1625.821,434.63547,
1622.911,450.53484,
1620.000,503.94467,
1617.089,485.02301,
1614.179,548.76373,
1611.268,544.84807,
1608.358,588.47114,
1605.447,605.71084,
1602.536,606.625,
1599.626,659.06117,
1596.715,661.8098,
1593.805,635.68937,
1590.894,639.67036,
1587.984,702.11754,
1585.073,612.93025,
1582.162,628.18556,
1579.252,613.34917,
1576.341,598.21118,
1573.431,591.70913,
1570.520,576.86621,
1567.610,571.87989,
1564.699,596.27601,
1561.788,579.56891,
1558.878,565.21118,
1555.967,539.84107,
1553.057,530.1767,
1550.146,549.44678,
1547.235,524.61509,
1544.325,501.3216,
1541.414,539.88895,
1538.504,564.94557,
1535.593,546.45214,
1532.683,515.24923,
1529.772,505.26857,
1526.861,503.32487,
1523.951,498.49735,
1521.040,531.56958,
1518.130,546.94339,
1515.219,580.66567,
1512.309,548.9538,
1509.398,521.98052,
1506.487,518.35735,
1503.577,523.05868,
1500.666,584.0727,
1497.756,586.40451,
1494.845,569.9841,
1491.934,530.42657,
1489.024,469.78952,
1486.113,513.98578,
1483.203,501.63798,
1480.292,504.71607,
1477.382,543.61266,
1474.471,488.16517,
1471.560,483.13832,
1468.650,465.39369,
1465.739,443.09618,
1462.829,471.83723,
1459.918,500.59742,
1457.008,504.625,
1454.097,503.70068,
1451.186,519.25943,
1448.276,515.32127,
1445.365,461.87382,
1442.455,442.97857,
1439.544,430.84934,
1436.633,439.31516,
1433.723,468.64613,
1430.812,425.01843,
1427.902,492.12891,
1424.991,471.27813,
1422.081,416.49385,
1419.170,409.03282,
1416.259,450.74828,
1413.349,447.03066,
1410.438,451.72214,
1407.528,463.99364,
1404.617,461.57946,
1401.707,432.24774,
1398.796,394.57609,
1395.885,405.97564,
1392.975,423.89484,
1390.064,389.45428,
1387.154,406.88643,
1384.243,404.28196,
1381.332,442.10377,
1378.422,373.04534,
1375.511,361.80397,
1372.601,380.97798,
1369.690,368.05222,
1366.780,380.67367,
1363.869,446.37555,
1360.958,447.17765,
1358.048,443.93137,
1355.137,456.98458,
1352.227,460.42237,
1349.316,492.00843,
1346.406,545.38982,
1343.495,528.41765,
1340.584,495.37474,
1337.674,514.87622,
1334.763,533.51914,
1331.853,530.73745,
1328.942,487.04126,
1326.032,500.38427,
1323.121,483.878,
1320.210,513.91656,
1317.300,534.98593,
1314.389,542.27789,
1311.479,531.89696,
1308.568,527.42941,
1305.657,548.88202,
1302.747,543.75641,
1299.836,594.57343,
1296.926,614.47132,
1294.015,589.64958,
1291.105,582.46121,
1288.194,640.73198,
1285.283,616.96083,
1282.373,609.85153,
1279.462,622.86014,
1276.552,646.34948,
1273.641,653.47759,
1270.731,638.32948,
1267.820,644.847,
1264.909,622.39381,
1261.999,591.19226,
1259.088,579.33468,
1256.178,612.88326,
1253.267,609.41865,
1250.356,592.40267,
1247.446,577.99755,
1244.535,575.59821,
1241.625,582.25832,
1238.714,577.35006,
1235.804,562.27058,
1232.893,588.87616,
1229.982,583.71699,
1227.072,586.43293,
1224.161,579.90097,
1221.251,564.47933,
1218.340,549.90782,
1215.430,556.18624,
1212.519,563.81396,
1209.608,536.46433,
1206.698,500.83802,
1203.787,526.57474,
1200.877,506.68667,
1197.966,539.95557,
1195.055,537.35876,
1192.145,554.65724,
1189.234,613.17718,
1186.324,651.44412,
1183.413,635.33563,
1180.503,631.26819,
1177.592,671.77626,
1174.681,630.97774,
1171.771,620.07832,
1168.860,639.72629,
1165.950,617.43632,
1163.039,612.3234,
1160.129,603.18732,
1157.218,609.60487,
1154.307,628.81935,
1151.397,629.0226,
1148.486,609.1207,
1145.576,633.93114,
1142.665,617.94871,
1139.754,646.72926,
1136.844,648.72288,
1133.933,648.38452,
1131.023,622.24344,
1128.112,593.76755,
1125.202,601.97281,
1122.291,617.37972,
1119.380,629.59902,
1116.470,626.95143,
1113.559,581.00331,
1110.649,569.58954,
1107.738,581.34136,
1104.828,589.3767,
1101.917,577.26953,
1099.006,557.18158,
1096.096,577.0124,
1093.185,550.67232,
1090.275,574.52165,
1087.364,579.93888,
1084.453,593.12414,
1081.543,599.68101,
1078.632,602.14647,
1075.722,619.18918,
1072.811,621.19063,
1069.901,615.07781,
1066.990,596.84171,
1064.079,596.02757,
1061.169,590.99739,
1058.258,584.77803,
1055.348,584.50688,
1052.437,581.37737,
1049.527,554.4236,
1046.616,549.21063,
1043.705,548.625,
1040.795,568.41864,
1037.884,577.60205,
1034.974,578.60438,
1032.063,582.43273,
1029.153,581.42928,
1026.242,604.78311,
1023.331,546.46213,
1020.421,575.75399,
1017.510,602.58941,
1014.600,609.625,
1011.689,599.64754,
1008.778,576.09111,
1005.868,584.40106,
1002.957,559.45078,
1000.047,556.353,
997.136,604.78571,
994.226,649.77867,
991.315,663.01609,
988.404,660.97648,
985.494,656.97288,
982.583,627.84997,
979.673,602.40725,
976.762,604.60574,
973.852,612.95103,
970.941,609.58653,
968.030,595.37063,
965.120,582.8935,
962.209,646.83416,
959.299,628.58678,
956.388,609.90543,
953.477,614.48966,
950.567,631.76208,
947.656,640.84782,
944.746,642.54693,
941.835,645.86425,
938.925,661.1021,
936.014,665.08422,
933.103,655.2693,
930.193,648.21941,
927.282,665.52511,
924.372,645.23055,
921.461,642.625,
918.551,631.00633,
915.640,617.52568,
912.729,608.74651,
909.819,608.62922,
906.908,646.53834,
903.998,639.87599,
901.087,616.62029,
898.176,613.69171,
895.266,620.13361,
892.355,614.9809,
889.445,627.5699,
886.534,648.4968,
883.624,645.22385,
880.713,641.625,
877.802,626.68716,
874.892,592.37421,
871.981,560.32429,
869.071,378.20429,
866.160,319.71657,
863.250,425.57063,
860.339,553.38751,
857.428,594.64249,
854.518,610.61399,
851.607,575.66707,
848.697,509.09709,
845.786,455.67669,
842.875,463.78346,
839.965,539.97012,
837.054,614.91341,
834.144,640.60473,
831.233,665.62355,
828.323,670.67928,
825.412,673.03015,
822.501,688.47606,
819.591,687.64966,
816.680,685.22115,
813.770,687.75751,
810.859,676.08778,
807.949,655.21522,
805.038,644.12279,
802.127,648.23843,
799.217,639.68031,
796.306,627.54385,
793.396,640.86949,
790.485,662.09598,
787.574,625.08487,
784.664,689.87374,
781.753,716.38665,
778.843,718.72418,
775.932,700.66226,
773.022,672.63938,
770.111,679.18001,
767.200,667.444,
764.290,664.78076,
761.379,668.77594,
758.469,680.5308,
755.558,706.57637,
752.648,704.94717,
749.737,698.7499,
746.826,675.57749,
743.916,661.00175,
741.005,685.74297,
738.095,713.34678,
735.184,704.46899,
732.274,657.02731,
729.363,611.90039,
726.452,601.98708,
723.542,620.60313,
720.631,650.67748,
717.721,676.23752,
714.810,699.6647,
711.899,718.00124,
708.989,719.61509,
706.078,718.02239,
703.168,678.76286,
700.257,679.20447,
697.347,716.27711,
694.436,718.95233,
691.525,731.00941,
688.615,737.39847,
685.704,734.44468,
682.794,730.90156,
679.883,741.30061,
676.973,734.08827,
674.062,733.90116,
671.151,726.73506,
668.241,712.81303,
665.330,701.19224,
662.420,713.17322,
659.509,726.41883,
656.598,722.67175,
653.688,723.42755,
650.777,769.48999,
647.867,765.50835,
644.956,755.9569,
642.046,717.87175,
639.135,663.24064,
636.224,631.85179,
633.314,677.10628,
630.403,715.82069,
627.493,741.53834,
624.582,740.08843,
621.672,683.85685,
618.761,719.62197,
615.850,732.72698,
612.940,746.94485,
610.029,767.3641,
607.119,735.77887,
604.208,730.49496,
601.297,741.09091,
598.387,743.7394,
595.476,722.81347,
592.566,735.40656,
589.655,753.82225,
586.745,760.02119,
583.834,754.42916,
580.923,746.74347,
578.013,766.36182,
575.102,741.22482,
572.192,733.27366,
569.281,762.57759,
566.371,779.0127,
563.460,778.5086,
560.549,782.01051,
557.639,798.97891,
554.728,831.54103,
551.818,814.37408,
548.907,791.12378,
545.996,777.84742,
543.086,775.45066,
540.175,770.00014,
537.265,789.90482,
534.354,807.65881,
531.444,826.2634,
528.533,845.92107,
525.622,807.89965,
522.712,790.5237,
519.801,766.67663,
516.891,738.25102,
513.980,741.3482,
511.070,774.02498,
508.159,774.25314,
505.248,759.87536,
502.338,760.625,
499.427,760.625,
496.517,780.42296,
493.606,794.95202,
490.695,790.95039,
487.785,771.70562,
484.874,773.14857,
481.964,757.76803,
479.053,732.44114,
476.143,731.67318,
473.232,748.17129,
470.321,754.13842,
467.411,750.83914,
464.500,743.40073,
461.590,774.03034,
458.679,794.18119,
455.769,790.07724,
452.858,762.4543,
449.947,780.02472,
447.037,776.95063,
444.126,781.12803,
441.216,796.55102,
438.305,801.88454,
435.395,817.70464,
432.484,826.4585,
429.573,815.02235,
426.663,761.05237,
423.752,633.87925,
420.842,464.17007,
417.931,312.4814,
415.020,266.22156,
412.110,536.78509,
409.199,709.97455,
406.289,789.33077,
403.378,797.39447,
400.468,729.35498,
397.557,698.37031,
394.646,708.47919,
391.736,761.12198,
388.825,807.88432,
385.915,824.28597,
383.004,806.92251,
380.094,758.77667,
377.183,781.35096,
374.272,797.39505,
371.362,800.62143,
368.451,790.58542,
365.541,822.85847,
362.630,816.33026,
359.719,802.14516,
356.809,798.30784,
353.898,793.06625,
350.988,797.59235,
348.077,804.36745,
345.167,806.80861,
342.256,770.94933,
339.345,796.23098,
336.435,822.62834,
333.524,809.36663,
330.614,801.16992,
327.703,814.54056,
324.793,824.72697,
321.882,810.64483,
318.971,818.8227,
316.061,823.08994,
313.150,829.01308,
310.240,843.11329,
307.329,858.63238,
304.418,882.86313,
301.508,902.06499,
298.597,892.43957,
295.687,899.75188,
292.776,879.4582,
289.866,850.76279,
286.955,875.14073,
284.044,896.96748,
281.134,942.80235,
278.223,1003.1639,
275.313,1006.8482,
272.402,990.1979,
269.492,984.59576,
266.581,992.00515,
263.670,885.40402,
260.760,897.98281,
257.849,956.61541,
254.939,1010.9227,
252.028,1013.7965,
249.117,986.3017,
246.207,966.83081,
243.296,1021.7336,
240.386,1032.1959,
237.475,1040.3878,
234.565,1048.1296,
231.654,1038.6346,
228.743,1055.0368,
225.833,1052.7704,
222.922,1015.2321,
220.012,985.36131,
217.101,972.68071,
214.191,963.28675,
211.280,942.19033,
208.369,921.78623,
205.459,932.98677,
202.548,964.12639,
199.638,967.02899,
196.727,941.69528,
193.816,947.00784,
190.906,998.95233,
187.995,865.73183,
185.085,856.03489,
182.174,901.13032,
179.264,917.75394,
176.353,900.40163,
173.442,924.06799,
170.532,970.4278,
167.621,848.58293,
164.711,790.39775,
161.800,744.52313,
158.890,676.86873,
155.979,610.63151,
153.068,569.11319,
150.158,538.16596,
147.247,464.93483,
144.337,410.14789,
141.426,337.57182,
138.516,227.88746,
135.605,165.03401,
132.694,127.33436,
129.784,99.196681,
126.873,40.556035,
123.963,28.05593,
121.052,22.525794,
118.141,9.675558,
115.231,13.888422,
112.320,11.812277,
109.410,7.3067763,
106.499,10.867552,
103.589,7.1429642,
100.678,3.8966217,
97.767,4.6075593,
94.857,5.317989,
91.946,7.6405544,
89.036,9.8347146,
86.125,4.8702777,
83.215,7.3414425,
80.304,7.0335097,
77.393,-3.5890393,
74.483,-0.44419025,
71.572,0.53794366,
68.662,-1.4442675,
65.751,-2.1507186,
62.840,3.8871258,
59.930,9.1267104,
57.019,3.4860545,
54.109,-3.9437693,
51.198,-5.6605165,
48.288,0.61933756,
45.377,-0.084040509,
42.466,0.44943868,
39.556,1.8552372,
36.645,3.2596176,
33.735,1.0287577,
30.824,-2.7003218,
27.914,-6.9073733,
25.003,-1.7712627,
22.092,0.010477211,
19.182,-2.9859913,
16.271,8.9053409,
13.361,48.184554,
10.450,101.03354,
7.539,132.45773,
4.629,-29.245917,
1.718,-294.21445,
-1.192,-639.30099,
-4.103,-578.24818,
-7.013,-355.62761,
-9.924,-1.375,
