,PL3709~1,
Wavenumbers [1/cm],Intensity,
3014.167,-3.125,
3011.256,1.1249463,
3008.346,19.158557,
3005.435,-0.2769411,
3002.525,16.800056,
2999.614,15.776309,
2996.704,23.919329,
2993.793,19.008064,
2990.882,10.050588,
2987.972,9.9052698,
2985.061,14.101599,
2982.151,21.562403,
2979.240,14.090774,
2976.329,29.394111,
2973.419,27.029044,
2970.508,20.72499,
2967.598,11.161747,
2964.687,23.561141,
2961.777,15.473134,
2958.866,28.213777,
2955.955,23.910394,
2953.045,18.608784,
2950.134,26.726322,
2947.224,17.245095,
2944.313,30.77386,
2941.403,25.791515,
2938.492,33.300473,
2935.581,33.987879,
2932.671,18.879331,
2929.760,31.786524,
2926.850,29.561466,
2923.939,30.515188,
2921.028,31.416192,
2918.118,42.912779,
2915.207,20.754696,
2912.297,44.760755,
2909.386,28.101269,
2906.476,30.007034,
2903.565,27.617224,
2900.654,26.545368,
2897.744,18.812139,
2894.833,12.63791,
2891.923,14.929502,
2889.012,-1.6278895,
2886.102,3.646626,
2883.191,-25.100456,
2880.280,-36.589136,
2877.370,-211.76993,
2874.459,-260.1312,
2871.549,-182.19,
2868.638,-57.708568,
2865.727,-15.809612,
2862.817,2.5474433,
2859.906,-4.2760061,
2856.996,23.350092,
2854.085,42.078805,
2851.175,28.254541,
2848.264,35.002661,
2845.353,16.047536,
2842.443,25.871518,
2839.532,23.442197,
2836.622,26.48177,
2833.711,38.815357,
2830.801,27.09117,
2827.890,38.520098,
2824.979,40.010965,
2822.069,37.840884,
2819.158,37.53538,
2816.248,38.139474,
2813.337,52.926232,
2810.427,36.566454,
2807.516,43.033281,
2804.605,40.305292,
2801.695,36.256559,
2798.784,34.431462,
2795.874,33.429066,
2792.963,42.16053,
2790.052,54.871354,
2787.142,36.625116,
2784.231,33.263219,
2781.321,35.623559,
2778.410,34.364843,
2775.500,44.001894,
2772.589,42.606645,
2769.678,53.554192,
2766.768,37.076923,
2763.857,50.34706,
2760.947,37.881304,
2758.036,41.416417,
2755.126,49.255342,
2752.215,54.597773,
2749.304,37.812073,
2746.394,47.758089,
2743.483,45.924975,
2740.573,47.326312,
2737.662,40.417903,
2734.751,35.782708,
2731.841,46.902475,
2728.930,40.548712,
2726.020,43.987269,
2723.109,38.668917,
2720.199,48.65938,
2717.288,50.050184,
2714.377,56.229101,
2711.467,51.317853,
2708.556,39.832474,
2705.646,49.015872,
2702.735,55.52963,
2699.825,38.005885,
2696.914,48.875477,
2694.003,69.232725,
2691.093,60.856955,
2688.182,52.820185,
2685.272,54.919099,
2682.361,41.116266,
2679.450,55.278221,
2676.540,35.159537,
2673.629,47.215816,
2670.719,43.875,
2667.808,52.43728,
2664.898,54.433364,
2661.987,51.508189,
2659.076,45.002156,
2656.166,48.069744,
2653.255,57.099487,
2650.345,46.170825,
2647.434,47.046478,
2644.524,47.716721,
2641.613,55.475253,
2638.702,49.048592,
2635.792,56.53004,
2632.881,61.25603,
2629.971,63.109931,
2627.060,50.040315,
2624.149,53.065636,
2621.239,58.904645,
2618.328,56.239192,
2615.418,45.193186,
2612.507,49.392796,
2609.597,45.150449,
2606.686,54.822799,
2603.775,60.954364,
2600.865,57.345985,
2597.954,49.312422,
2595.044,72.258521,
2592.133,54.760289,
2589.223,65.140276,
2586.312,67.387557,
2583.401,65.385934,
2580.491,56.971162,
2577.580,69.853545,
2574.670,54.384365,
2571.759,64.940914,
2568.848,74.758957,
2565.938,75.351298,
2563.027,55.752305,
2560.117,50.688092,
2557.206,58.299353,
2554.296,67.703375,
2551.385,71.255044,
2548.474,88.8382,
2545.564,60.951288,
2542.653,83.633393,
2539.743,69.418129,
2536.832,68.895562,
2533.922,64.811923,
2531.011,66.649511,
2528.100,75.477768,
2525.190,73.037295,
2522.279,79.359122,
2519.369,63.441367,
2516.458,49.207153,
2513.548,60.011193,
2510.637,68.612792,
2507.726,80.811805,
2504.816,75.561581,
2501.905,72.309756,
2498.995,66.711065,
2496.084,78.648512,
2493.173,67.032615,
2490.263,81.414017,
2487.352,76.207266,
2484.442,66.855709,
2481.531,73.976143,
2478.621,66.107225,
2475.710,96.80599,
2472.799,78.996175,
2469.889,58.661717,
2466.978,67.318285,
2464.068,63.086624,
2461.157,79.795076,
2458.247,71.139755,
2455.336,86.76738,
2452.425,83.851406,
2449.515,82.242985,
2446.604,78.881955,
2443.694,77.759071,
2440.783,88.113739,
2437.872,82.09379,
2434.962,82.884224,
2432.051,82.041911,
2429.141,85.910421,
2426.230,75.331338,
2423.320,96.446227,
2420.409,97.311043,
2417.498,85.473315,
2414.588,79.335105,
2411.677,75.663883,
2408.767,93.333663,
2405.856,92.255903,
2402.946,90.553285,
2400.035,90.26937,
2397.124,79.120976,
2394.214,97.848199,
2391.303,85.941398,
2388.393,79.100594,
2385.482,76.095309,
2382.571,55.520318,
2379.661,57.549533,
2376.750,64.239424,
2373.840,84.718714,
2370.929,105.66924,
2368.019,93.453199,
2365.108,99.82788,
2362.197,97.513319,
2359.287,99.05996,
2356.376,112.85387,
2353.466,93.330533,
2350.555,84.800213,
2347.645,89.730635,
2344.734,90.027081,
2341.823,92.841834,
2338.913,101.38842,
2336.002,95.437152,
2333.092,94.737247,
2330.181,88.383947,
2327.270,96.434958,
2324.360,96.278297,
2321.449,98.875,
2318.539,99.385704,
2315.628,101.96733,
2312.718,115.24065,
2309.807,97.489821,
2306.896,105.11913,
2303.986,103.74514,
2301.075,104.875,
2298.165,109.66355,
2295.254,93.262775,
2292.344,98.870795,
2289.433,105.80545,
2286.522,105.8436,
2283.612,111.14412,
2280.701,124.04985,
2277.791,127.59448,
2274.880,118.94904,
2271.969,112.64866,
2269.059,117.78509,
2266.148,116.4977,
2263.238,104.97925,
2260.327,115.28858,
2257.417,99.805552,
2254.506,117.66132,
2251.595,107.88232,
2248.685,108.50382,
2245.774,108.17175,
2242.864,133.96728,
2239.953,121.33016,
2237.043,121.31643,
2234.132,109.514,
2231.221,111.82337,
2228.311,121.96391,
2225.400,144.28395,
2222.490,127.77411,
2219.579,139.06263,
2216.669,126.87977,
2213.758,122.61356,
2210.847,130.54753,
2207.937,134.79356,
2205.026,147.09716,
2202.116,143.36864,
2199.205,126.63759,
2196.294,133.86697,
2193.384,133.76999,
2190.473,121.4372,
2187.563,141.00551,
2184.652,165.46521,
2181.742,149.80656,
2178.831,147.51314,
2175.920,149.12637,
2173.010,157.30074,
2170.099,154.80903,
2167.189,160.86782,
2164.278,162.95641,
2161.368,176.5898,
2158.457,161.63873,
2155.546,168.20771,
2152.636,172.99735,
2149.725,166.71393,
2146.815,178.4412,
2143.904,185.47723,
2140.993,190.1766,
2138.083,192.61662,
2135.172,199.3876,
2132.262,180.35035,
2129.351,197.06137,
2126.441,188.20504,
2123.530,200.96479,
2120.619,205.02195,
2117.709,180.08394,
2114.798,179.0404,
2111.888,167.55059,
2108.977,162.50414,
2106.067,151.70744,
2103.156,156.55319,
2100.245,147.87876,
2097.335,154.23626,
2094.424,152.32736,
2091.514,142.52289,
2088.603,150.40035,
2085.692,160.51434,
2082.782,160.80677,
2079.871,167.73264,
2076.961,183.90633,
2074.050,165.11742,
2071.140,168.74865,
2068.229,165.59635,
2065.318,174.78875,
2062.408,170.48847,
2059.497,176.7024,
2056.587,183.03784,
2053.676,183.50823,
2050.766,182.02896,
2047.855,159.21675,
2044.944,167.6827,
2042.034,148.77098,
2039.123,166.77736,
2036.213,178.37717,
2033.302,184.52686,
2030.391,182.55349,
2027.481,190.47239,
2024.570,185.07531,
2021.660,180.99326,
2018.749,191.15318,
2015.839,173.95112,
2012.928,181.5646,
2010.017,188.09542,
2007.107,184.31423,
2004.196,179.67266,
2001.286,204.56402,
1998.375,194.78247,
1995.465,190.80804,
1992.554,173.46928,
1989.643,200.80352,
1986.733,185.80482,
1983.822,176.18519,
1980.912,224.22083,
1978.001,191.73956,
1975.090,177.70247,
1972.180,174.59839,
1969.269,176.64797,
1966.359,167.98306,
1963.448,181.94634,
1960.538,172.45632,
1957.627,163.52515,
1954.716,175.50155,
1951.806,188.12983,
1948.895,170.43173,
1945.985,155.04494,
1943.074,178.46185,
1940.164,171.10609,
1937.253,179.65797,
1934.342,160.90922,
1931.432,181.61633,
1928.521,177.64011,
1925.611,180.40735,
1922.700,183.29213,
1919.790,180.29121,
1916.879,164.99099,
1913.968,187.84549,
1911.058,220.24135,
1908.147,168.07791,
1905.237,164.86031,
1902.326,168.39205,
1899.415,148.65792,
1896.505,128.78458,
1893.594,144.04277,
1890.684,157.41758,
1887.773,156.004,
1884.863,184.64721,
1881.952,227.95968,
1879.041,209.34592,
1876.131,180.95867,
1873.220,196.92375,
1870.310,202.65975,
1867.399,212.71506,
1864.489,197.03077,
1861.578,201.5288,
1858.667,204.35407,
1855.757,185.0707,
1852.846,190.88013,
1849.936,196.29342,
1847.025,193.05506,
1844.114,182.91031,
1841.204,206.30856,
1838.293,208.89995,
1835.383,183.49151,
1832.472,218.16717,
1829.562,229.98854,
1826.651,198.6779,
1823.740,195.42674,
1820.830,210.99323,
1817.919,188.81495,
1815.009,192.29357,
1812.098,229.78049,
1809.188,234.81298,
1806.277,192.82667,
1803.366,216.47573,
1800.456,192.4903,
1797.545,191.03786,
1794.635,242.004,
1791.724,237.09838,
1788.813,211.07911,
1785.903,216.84016,
1782.992,194.41151,
1780.082,162.73613,
1777.171,53.857848,
1774.261,12.140449,
1771.350,96.78202,
1768.439,196.24081,
1765.529,257.24266,
1762.618,261.61746,
1759.708,231.21188,
1756.797,247.54167,
1753.887,263.92602,
1750.976,265.00262,
1748.065,251.28514,
1745.155,251.73299,
1742.244,244.63227,
1739.334,232.39735,
1736.423,268.73476,
1733.512,263.77331,
1730.602,272.33137,
1727.691,254.84518,
1724.781,294.28302,
1721.870,284.34154,
1718.960,283.80839,
1716.049,283.19705,
1713.138,316.21984,
1710.228,307.07995,
1707.317,282.76071,
1704.407,276.28141,
1701.496,308.69072,
1698.586,334.05063,
1695.675,335.875,
1692.764,318.83401,
1689.854,272.91041,
1686.943,306.62715,
1684.033,295.19787,
1681.122,295.85801,
1678.211,294.88452,
1675.301,357.68075,
1672.390,339.81219,
1669.480,319.05951,
1666.569,342.25588,
1663.659,371.43403,
1660.748,345.58843,
1657.837,381.98435,
1654.927,385.82069,
1652.016,342.50678,
1649.106,367.99741,
1646.195,373.71417,
1643.285,407.44206,
1640.374,388.97953,
1637.463,394.09117,
1634.553,406.05233,
1631.642,418.13559,
1628.732,441.83352,
1625.821,434.90052,
1622.911,473.65523,
1620.000,491.64822,
1617.089,478.15361,
1614.179,533.26754,
1611.268,523.32113,
1608.358,559.09572,
1605.447,591.04667,
1602.536,574.23726,
1599.626,638.19023,
1596.715,628.44578,
1593.805,626.875,
1590.894,615.42629,
1587.984,607.81236,
1585.073,571.14069,
1582.162,579.90295,
1579.252,560.78087,
1576.341,571.0952,
1573.431,575.65817,
1570.520,562.88059,
1567.610,578.99296,
1564.699,559.0489,
1561.788,545.35391,
1558.878,553.43368,
1555.967,513.61046,
1553.057,516.39198,
1550.146,515.5114,
1547.235,512.95892,
1544.325,511.08862,
1541.414,507.49517,
1538.504,515.55443,
1535.593,521.875,
1532.683,528.30652,
1529.772,519.48776,
1526.861,497.875,
1523.951,505.32941,
1521.040,513.42158,
1518.130,525.12815,
1515.219,563.71546,
1512.309,540.93804,
1509.398,519.0157,
1506.487,513.3397,
1503.577,505.54883,
1500.666,525.86768,
1497.756,519.70574,
1494.845,539.79386,
1491.934,489.78366,
1489.024,461.87137,
1486.113,495.18197,
1483.203,537.84255,
1480.292,512.32859,
1477.382,546.47916,
1474.471,479.1371,
1471.560,485.62731,
1468.650,479.10988,
1465.739,474.07745,
1462.829,491.98907,
1459.918,520.55471,
1457.008,517.10554,
1454.097,481.38868,
1451.186,479.42045,
1448.276,495.43695,
1445.365,465.266,
1442.455,441.23508,
1439.544,438.4454,
1436.633,441.95246,
1433.723,433.74736,
1430.812,439.65335,
1427.902,437.61914,
1424.991,468.8953,
1422.081,417.57881,
1419.170,420.65154,
1416.259,436.45613,
1413.349,422.50446,
1410.438,421.77346,
1407.528,450.26841,
1404.617,494.23141,
1401.707,488.37798,
1398.796,435.13732,
1395.885,393.60721,
1392.975,394.97971,
1390.064,427.40997,
1387.154,447.64134,
1384.243,442.21896,
1381.332,414.89506,
1378.422,373.9089,
1375.511,355.17328,
1372.601,407.40451,
1369.690,420.44722,
1366.780,433.75553,
1363.869,457.94283,
1360.958,464.55457,
1358.048,471.58805,
1355.137,497.37668,
1352.227,498.03175,
1349.316,494.3723,
1346.406,517.40463,
1343.495,498.15894,
1340.584,482.26691,
1337.674,541.30218,
1334.763,520.86299,
1331.853,546.82546,
1328.942,530.97518,
1326.032,551.71238,
1323.121,516.12196,
1320.210,541.16432,
1317.300,554.97268,
1314.389,575.54215,
1311.479,592.32165,
1308.568,588.54448,
1305.657,586.47957,
1302.747,575.24145,
1299.836,632.06661,
1296.926,605.00319,
1294.015,607.76116,
1291.105,611.39717,
1288.194,633.44106,
1285.283,603.07484,
1282.373,619.8827,
1279.462,643.36509,
1276.552,665.06405,
1273.641,679.1809,
1270.731,657.2317,
1267.820,622.72022,
1264.909,605.78698,
1261.999,597.90829,
1259.088,598.82041,
1256.178,622.85578,
1253.267,613.83268,
1250.356,619.35655,
1247.446,622.70155,
1244.535,615.92859,
1241.625,585.65285,
1238.714,561.70675,
1235.804,589.18567,
1232.893,595.87192,
1229.982,609.26172,
1227.072,591.15548,
1224.161,644.50774,
1221.251,605.73739,
1218.340,557.13221,
1215.430,567.40177,
1212.519,574.93394,
1209.608,564.67126,
1206.698,566.87471,
1203.787,531.25188,
1200.877,530.04812,
1197.966,565.11533,
1195.055,575.40749,
1192.145,609.18277,
1189.234,650.36824,
1186.324,671.23906,
1183.413,662.5095,
1180.503,653.62011,
1177.592,664.78405,
1174.681,656.10103,
1171.771,644.80224,
1168.860,684.99127,
1165.950,644.52908,
1163.039,658.3191,
1160.129,645.87065,
1157.218,654.39254,
1154.307,676.79372,
1151.397,658.66581,
1148.486,634.36783,
1145.576,676.72081,
1142.665,673.16916,
1139.754,663.92508,
1136.844,667.47742,
1133.933,692.16223,
1131.023,673.8841,
1128.112,640.87428,
1125.202,651.80736,
1122.291,657.37365,
1119.380,653.99626,
1116.470,666.35165,
1113.559,643.90428,
1110.649,623.12324,
1107.738,619.08991,
1104.828,630.19699,
1101.917,641.875,
1099.006,641.52449,
1096.096,638.96119,
1093.185,624.03515,
1090.275,652.818,
1087.364,653.01377,
1084.453,665.624,
1081.543,643.25554,
1078.632,621.126,
1075.722,672.50785,
1072.811,683.56474,
1069.901,679.19843,
1066.990,630.37512,
1064.079,656.30326,
1061.169,652.33525,
1058.258,641.22728,
1055.348,647.52333,
1052.437,636.46338,
1049.527,609.44563,
1046.616,624.21573,
1043.705,651.31025,
1040.795,664.62154,
1037.884,644.61107,
1034.974,629.32345,
1032.063,635.91367,
1029.153,620.19859,
1026.242,647.8772,
1023.331,638.04236,
1020.421,678.39819,
1017.510,676.70507,
1014.600,653.68519,
1011.689,641.0243,
1008.778,633.58178,
1005.868,631.60472,
1002.957,601.49232,
1000.047,615.80301,
997.136,666.3371,
994.226,703.12106,
991.315,711.48391,
988.404,708.82174,
985.494,687.7791,
982.583,683.49632,
979.673,672.63195,
976.762,672.98471,
973.852,677.20103,
970.941,680.06052,
968.030,683.92704,
965.120,689.88574,
962.209,692.44337,
959.299,687.91726,
956.388,688.11486,
953.477,682.47651,
950.567,684.16191,
947.656,717.76089,
944.746,709.26533,
941.835,704.01612,
938.925,704.84915,
936.014,711.94491,
933.103,721.75904,
930.193,732.47062,
927.282,744.9502,
924.372,709.43471,
921.461,698.2474,
918.551,687.161,
915.640,680.875,
912.729,683.02185,
909.819,689.54223,
906.908,694.59678,
903.998,682.14917,
901.087,697.33368,
898.176,704.05744,
895.266,700.1924,
892.355,701.18912,
889.445,702.86765,
886.534,711.22372,
883.624,725.65881,
880.713,734.93714,
877.802,705.22018,
874.892,628.98342,
871.981,558.35728,
869.071,367.04774,
866.160,391.83161,
863.250,536.34483,
860.339,668.9332,
857.428,722.10128,
854.518,753.09573,
851.607,622.46085,
848.697,578.55267,
845.786,542.92669,
842.875,554.52894,
839.965,640.45322,
837.054,729.80988,
834.144,724.00861,
831.233,758.8724,
828.323,772.91843,
825.412,757.92826,
822.501,741.57729,
819.591,778.76526,
816.680,782.27885,
813.770,767.83894,
810.859,741.27661,
807.949,735.03361,
805.038,773.28207,
802.127,760.11204,
799.217,761.11117,
796.306,743.7127,
793.396,746.22632,
790.485,772.71732,
787.574,774.8786,
784.664,748.63501,
781.753,772.72731,
778.843,785.89484,
775.932,792.28228,
773.022,806.46585,
770.111,790.93186,
767.200,787.59106,
764.290,777.62895,
761.379,779.93395,
758.469,787.38773,
755.558,763.33695,
752.648,778.81441,
749.737,784.48616,
746.826,769.09104,
743.916,751.82957,
741.005,761.27684,
738.095,800.24693,
735.184,727.64855,
732.274,673.20962,
729.363,657.59092,
726.452,675.16063,
723.542,709.96455,
720.631,770.7445,
717.721,788.875,
714.810,799.15334,
711.899,817.94431,
708.989,826.82049,
706.078,813.25285,
703.168,806.8389,
700.257,801.57442,
697.347,795.57079,
694.436,791.55148,
691.525,816.46944,
688.615,797.34746,
685.704,782.01161,
682.794,793.04508,
679.883,832.11809,
676.973,815.2893,
674.062,818.25582,
671.151,827.57329,
668.241,832.96901,
665.330,825.51362,
662.420,796.75928,
659.509,790.875,
656.598,808.185,
653.688,837.08615,
650.777,857.11893,
647.867,834.82175,
644.956,813.15795,
642.046,770.12175,
639.135,726.80953,
636.224,738.18534,
633.314,800.11254,
630.403,807.00684,
627.493,807.40427,
624.582,815.04986,
621.672,802.37795,
618.761,832.27257,
615.850,852.34377,
612.940,856.09351,
610.029,850.82068,
607.119,874.50959,
604.208,890.36525,
601.297,898.36759,
598.387,889.40971,
595.476,859.31514,
592.566,842.7867,
589.655,876.15684,
586.745,876.34641,
583.834,848.89874,
580.923,841.90817,
578.013,847.40131,
575.102,844.85988,
572.192,852.59353,
569.281,877.63959,
566.371,909.72717,
563.460,882.53987,
560.549,873.28595,
557.639,888.96035,
554.728,921.08666,
551.818,908.6016,
548.907,872.96669,
545.996,868.20416,
543.086,886.66121,
540.175,853.17944,
537.265,868.2577,
534.354,870.35978,
531.444,864.48171,
528.533,862.30974,
525.622,882.48437,
522.712,886.875,
519.801,890.31192,
516.891,889.6148,
513.980,858.64296,
511.070,861.50978,
508.159,878.20199,
505.248,897.12971,
502.338,906.26502,
499.427,885.42555,
496.517,896.84468,
493.606,910.88448,
490.695,912.875,
487.785,912.875,
484.874,909.64388,
481.964,893.34026,
479.053,864.9691,
476.143,831.94671,
473.232,873.75863,
470.321,889.41527,
467.411,889.64782,
464.500,894.15745,
461.590,865.82506,
458.679,902.99916,
455.769,924.12179,
452.858,893.45407,
449.947,927.83098,
447.037,897.25584,
444.126,897.64469,
441.216,932.59914,
438.305,890.6929,
435.395,913.06737,
432.484,913.28867,
429.573,878.14233,
426.663,815.05066,
423.752,660.62733,
420.842,445.16862,
417.931,228.81437,
415.020,98.376773,
412.110,431.88027,
409.199,661.00936,
406.289,774.56469,
403.378,785.63935,
400.468,716.08787,
397.557,740.66261,
394.646,810.73218,
391.736,880.15065,
388.825,857.52372,
385.915,858.32571,
383.004,871.4425,
380.094,887.83661,
377.183,887.08413,
374.272,890.67446,
371.362,902.11617,
368.451,921.82941,
365.541,921.07887,
362.630,923.05996,
359.719,914.8121,
356.809,892.05304,
353.898,911.52179,
350.988,923.38484,
348.077,926.84214,
345.167,921.38306,
342.256,911.67117,
339.345,899.30921,
336.435,899.75796,
333.524,921.1134,
330.614,865.22672,
327.703,890.48763,
324.793,930.61721,
321.882,929.88762,
318.971,935.09172,
316.061,935.41006,
313.150,938.26308,
310.240,952.36329,
307.329,917.14315,
304.418,918.37741,
301.508,949.47811,
298.597,996.86479,
295.687,975.81711,
292.776,968.87503,
289.866,972.6055,
286.955,957.09226,
284.044,1006.7399,
281.134,1045.3916,
278.223,1056.9649,
275.313,1037.0698,
272.402,1067.1483,
269.492,1071.9133,
266.581,1022.8842,
263.670,939.07368,
260.760,988.53104,
257.849,1062.2907,
254.939,1080.6377,
252.028,1072.1889,
249.117,1051.9724,
246.207,1050.0584,
243.296,1120.334,
240.386,1116.1211,
237.475,1131.3895,
234.565,1166.4502,
231.654,1170.1021,
228.743,1159.943,
225.833,1139.984,
222.922,1112.2295,
220.012,1098.3869,
217.101,1115.4665,
214.191,1126.5099,
211.280,1088.6818,
208.369,1087.2206,
205.459,1102.6473,
202.548,1122.6187,
199.638,1109.557,
196.727,1105.1464,
193.816,1112.0026,
190.906,1128.7672,
187.995,1068.6732,
185.085,1055.4407,
182.174,1069.7515,
179.264,1091.4345,
176.353,1082.341,
173.442,1092.5527,
170.532,1109.3579,
167.621,1001.9326,
164.711,973.92614,
161.800,918.34914,
158.890,752.8118,
155.979,732.55019,
153.068,680.86383,
150.158,599.43878,
147.247,520.46403,
144.337,448.22635,
141.426,357.87438,
138.516,235.28598,
135.605,167.32841,
132.694,116.98898,
129.784,79.603362,
126.873,47.422519,
123.963,36.891509,
121.052,27.076059,
118.141,9.9424107,
115.231,12.717281,
112.320,11.333184,
109.410,7.6022895,
106.499,6.177979,
103.589,0.83270971,
100.678,-2.8533783,
97.767,-2.1424407,
94.857,1.3399452,
91.946,6.099887,
89.036,10.423408,
86.125,7.5865873,
83.215,8.9986814,
80.304,6.8046444,
77.393,-5.2342446,
74.483,0.42634958,
71.572,2.7879437,
68.662,0.736465,
65.751,-0.67643715,
62.840,1.7652119,
59.930,3.5639966,
57.019,-1.3715773,
54.109,-3.3193217,
51.198,-1.7121258,
48.288,3.8863249,
45.377,5.293081,
42.466,3.8139033,
39.556,1.5657115,
36.645,5.7788528,
33.735,4.2787577,
30.824,2.095887,
27.914,2.7970622,
25.003,3.4976375,
22.092,1.2917635,
19.182,-3.3469827,
16.271,20.435682,
13.361,85.507453,
10.450,187.47542,
7.539,336.21659,
4.629,253.02231,
1.718,28.759213,
-1.192,-330.27022,
-4.103,-382.20169,
-7.013,-269.38041,
-9.924,-2.125,
