,Pliquid_AuCOFNPs-citrate13new_1E-1mgmL_100uL_mix_1E-4mgL_16h_785nm_133mW_3s_1acc_0_RamanShift__1__30,
Raman shift [1/cm],Intensity,
3014.167,3.25,
3011.256,0.80001074,
3008.346,55.091,
3005.435,70.59629,
3002.525,58.56991,
2999.614,54.765609,
2996.704,72.657215,
2993.793,77.39228,
2990.882,67.074412,
2987.972,87.194505,
2985.061,83.343605,
2982.151,85.204616,
2979.240,79.21386,
2976.329,93.498635,
2973.419,97.850258,
2970.508,88.483327,
2967.598,91.488956,
2964.687,98.160326,
2961.777,102.06198,
2958.866,105.26336,
2955.955,89.526546,
2953.045,122.41554,
2950.134,119.10132,
2947.224,105.96172,
2944.313,120.81196,
2941.403,107.51186,
2938.492,116.14433,
2935.581,116.34697,
2932.671,126.04827,
2929.760,120.99231,
2926.850,107.1906,
2923.939,130.57245,
2921.028,139.20311,
2918.118,134.25,
2915.207,141.31338,
2912.297,129.32193,
2909.386,136.03832,
2906.476,128.02529,
2903.565,140.15371,
2900.654,128.57963,
2897.744,128.27514,
2894.833,130.66236,
2891.923,118.27559,
2889.012,121.78757,
2886.102,123.77298,
2883.191,115.25094,
2880.280,105.61841,
2877.370,78.907019,
2874.459,70.061485,
2871.549,97.815796,
2868.638,126.88915,
2865.727,121.0692,
2862.817,132.25,
2859.906,132.9594,
2856.996,145.75226,
2854.085,150.53152,
2851.175,146.8434,
2848.264,145.59816,
2845.353,154.73239,
2842.443,136.84025,
2839.532,137.48885,
2836.622,147.46354,
2833.711,142.15422,
2830.801,151.93309,
2827.890,139.52098,
2824.979,150.52193,
2822.069,144.30686,
2819.158,146.96967,
2816.248,146.98553,
2813.337,144.81707,
2810.427,154.98553,
2807.516,156.19969,
2804.605,141.47596,
2801.695,155.86844,
2798.784,143.80238,
2795.874,142.11545,
2792.963,138.10723,
2790.052,145.24893,
2787.142,158.53946,
2784.231,148.73448,
2781.321,146.80998,
2778.410,144.39974,
2775.500,151.01586,
2772.589,157.4419,
2769.678,149.85752,
2766.768,143.38009,
2763.857,160.77601,
2760.947,155.73424,
2758.036,152.40286,
2755.126,138.71582,
2752.215,165.18635,
2749.304,157.27159,
2746.394,156.94353,
2743.483,163.25,
2740.573,162.36283,
2737.662,160.15384,
2734.751,162.43458,
2731.841,150.89835,
2728.930,155.22886,
2726.020,161.04109,
2723.109,165.04392,
2720.199,159.56239,
2717.288,172.53102,
2714.377,173.73328,
2711.467,172.43022,
2708.556,165.78221,
2705.646,176.37682,
2702.735,169.91495,
2699.825,164.33726,
2696.914,161.86909,
2694.003,172.76382,
2691.093,176.25,
2688.182,168.61296,
2685.272,193.61273,
2682.361,178.76201,
2679.450,174.32816,
2676.540,182.84352,
2673.629,163.58184,
2670.719,172.60028,
2667.808,168.68772,
2664.898,184.25,
2661.987,181.41661,
2659.076,176.63147,
2656.166,181.25,
2653.255,181.73129,
2650.345,186.17015,
2647.434,183.47835,
2644.524,184.13014,
2641.613,189.33548,
2638.702,183.28156,
2635.792,193.25,
2632.881,189.78577,
2629.971,188.12249,
2627.060,204.585,
2624.149,195.38437,
2621.239,201.75296,
2618.328,185.67387,
2615.418,194.25454,
2612.507,197.21441,
2609.597,195.70908,
2606.686,194.36648,
2603.775,203.40873,
2600.865,193.89845,
2597.954,198.68123,
2595.044,206.58924,
2592.133,207.69588,
2589.223,195.8763,
2586.312,214.14954,
2583.401,197.84125,
2580.491,199.34616,
2577.580,200.24835,
2574.670,200.63369,
2571.759,207.00257,
2568.848,213.36604,
2565.938,212.96445,
2563.027,198.93404,
2560.117,203.9883,
2557.206,217.33118,
2554.296,220.25,
2551.385,215.43195,
2548.474,219.80576,
2545.564,208.75649,
2542.653,224.6292,
2539.743,220.23768,
2536.832,215.96402,
2533.922,217.34462,
2531.011,224.34991,
2528.100,219.25346,
2525.190,216.99344,
2522.279,234.31204,
2519.369,221.28737,
2516.458,224.68697,
2513.548,228.38619,
2510.637,229.74186,
2507.726,235.68866,
2504.816,232.81257,
2501.905,226.75732,
2498.995,218.90691,
2496.084,223.42418,
2493.173,225.72417,
2490.263,227.87936,
2487.352,236.79253,
2484.442,244.12368,
2481.531,240.72863,
2478.621,246.1789,
2475.710,234.44936,
2472.799,256.79712,
2469.889,252.06719,
2466.978,240.93058,
2464.068,232.33465,
2461.157,270.97758,
2458.247,249.14697,
2455.336,250.12086,
2452.425,236.63677,
2449.515,245.35396,
2446.604,251.48734,
2443.694,251.15708,
2440.783,250.82095,
2437.872,251.06768,
2434.962,251.50345,
2432.051,259.91038,
2429.141,261.07931,
2426.230,264.25,
2423.320,255.89316,
2420.409,247.41018,
2417.498,257.83989,
2414.588,274.96476,
2411.677,270.78384,
2408.767,259.51476,
2405.856,264.65714,
2402.946,261.45822,
2400.035,254.75469,
2397.124,263.15908,
2394.214,270.46441,
2391.303,265.50406,
2388.393,270.02441,
2385.482,246.26342,
2382.571,266.40172,
2379.661,276.34295,
2376.750,283.25,
2373.840,281.68126,
2370.929,281.25,
2368.019,287.17733,
2365.108,293.27356,
2362.197,281.29106,
2359.287,282.43496,
2356.376,259.29403,
2353.466,291.70553,
2350.555,283.96524,
2347.645,293.65795,
2344.734,290.88594,
2341.823,291.23342,
2338.913,292.69774,
2336.002,279.21648,
2333.092,288.19246,
2330.181,314.63868,
2327.270,297.68014,
2324.360,294.50238,
2321.449,295.52895,
2318.539,313.07873,
2315.628,304.55256,
2312.718,304.25,
2309.807,306.11337,
2306.896,308.78522,
2303.986,311.80835,
2301.075,298.86702,
2298.165,304.83664,
2295.254,300.37926,
2292.344,287.03837,
2289.433,300.65546,
2286.522,313.08934,
2283.612,318.29083,
2280.701,306.80609,
2277.791,313.77097,
2274.880,321.32809,
2271.969,314.85494,
2269.059,327.10558,
2266.148,340.48873,
2263.238,304.96818,
2260.327,313.5259,
2257.417,321.28278,
2254.506,335.05912,
2251.595,335.10819,
2248.685,334.98654,
2245.774,328.94242,
2242.864,327.25,
2239.953,332.71197,
2237.043,347.74322,
2234.132,333.9903,
2231.221,320.14402,
2228.311,332.9072,
2225.400,338.95363,
2222.490,365.10672,
2219.579,365.0443,
2216.669,354.72377,
2213.758,353.72712,
2210.847,367.98297,
2207.937,374.16856,
2205.026,369.91676,
2202.116,366.46338,
2199.205,372.91189,
2196.294,380.75401,
2193.384,373.69749,
2190.473,380.82981,
2187.563,406.2355,
2184.652,407.0153,
2181.742,425.59058,
2178.831,426.28505,
2175.920,448.07332,
2173.010,476.82653,
2170.099,478.18403,
2167.189,521.38633,
2164.278,545.09221,
2161.368,579.24928,
2158.457,611.19508,
2155.546,648.26445,
2152.636,659.25,
2149.725,689.20971,
2146.815,709.74947,
2143.904,741.74443,
2140.993,734.30283,
2138.083,761.90954,
2135.172,761.36756,
2132.262,759.14173,
2129.351,760.20858,
2126.441,736.16255,
2123.530,693.11531,
2120.619,675.33282,
2117.709,632.44887,
2114.798,596.82671,
2111.888,564.20009,
2108.977,545.08443,
2106.067,520.08244,
2103.156,512.61049,
2100.245,459.24812,
2097.335,455.40707,
2094.424,446.85651,
2091.514,433.88705,
2088.603,427.09791,
2085.692,421.38388,
2082.782,411.00906,
2079.871,412.53588,
2076.961,406.70205,
2074.050,416.39545,
2071.140,416.67549,
2068.229,407.87629,
2065.318,421.781,
2062.408,411.93912,
2059.497,388.42856,
2056.587,418.13312,
2053.676,415.28443,
2050.766,403.86585,
2047.855,392.70567,
2044.944,407.58494,
2042.034,399.45804,
2039.123,398.47222,
2036.213,424.67224,
2033.302,418.29366,
2030.391,394.72494,
2027.481,414.03024,
2024.570,413.13598,
2021.660,393.37346,
2018.749,395.6299,
2015.839,404.84646,
2012.928,405.00839,
2010.017,414.25,
2007.107,414.66869,
2004.196,419.34525,
2001.286,394.24652,
1998.375,395.43013,
1995.465,409.75625,
1992.554,428.77926,
1989.643,430.28456,
1986.733,410.08947,
1983.822,409.93021,
1980.912,421.01195,
1978.001,396.03849,
1975.090,389.01642,
1972.180,402.73271,
1969.269,388.53156,
1966.359,395.4124,
1963.448,414.01619,
1960.538,407.51188,
1957.627,432.89089,
1954.716,425.566,
1951.806,412.6971,
1948.895,418.82696,
1945.985,408.78595,
1943.074,419.38677,
1940.164,402.24085,
1937.253,436.80659,
1934.342,431.24144,
1931.432,416.9724,
1928.521,393.61269,
1925.611,395.62003,
1922.700,401.62431,
1919.790,391.05359,
1916.879,394.8315,
1913.968,423.21557,
1911.058,409.78754,
1908.147,404.71133,
1905.237,411.27204,
1902.326,403.99666,
1899.415,420.20244,
1896.505,427.03314,
1893.594,426.43292,
1890.684,412.8906,
1887.773,388.38828,
1884.863,423.53474,
1881.952,419.2578,
1879.041,434.24014,
1876.131,410.67485,
1873.220,410.22348,
1870.310,429.81499,
1867.399,386.96971,
1864.489,439.77015,
1861.578,403.25,
1858.667,404.86376,
1855.757,419.63067,
1852.846,437.48078,
1849.936,417.48324,
1847.025,396.8972,
1844.114,408.72298,
1841.204,440.78147,
1838.293,435.28659,
1835.383,432.37748,
1832.472,438.16826,
1829.562,435.08281,
1826.651,448.19044,
1823.740,437.23464,
1820.830,436.65162,
1817.919,439.87875,
1815.009,442.8187,
1812.098,436.0689,
1809.188,445.56781,
1806.277,459.94015,
1803.366,458.34982,
1800.456,463.53556,
1797.545,450.05148,
1794.635,439.15301,
1791.724,447.3956,
1788.813,455.04589,
1785.903,438.73258,
1782.992,429.1278,
1780.082,432.14116,
1777.171,425.24893,
1774.261,417.59993,
1771.350,431.03751,
1768.439,461.67559,
1765.529,463.15926,
1762.618,466.66563,
1759.708,487.13061,
1756.797,482.19697,
1753.887,475.66108,
1750.976,463.4326,
1748.065,473.44201,
1745.155,497.55317,
1742.244,489.6694,
1739.334,469.55589,
1736.423,470.31541,
1733.512,490.71346,
1730.602,527.9187,
1727.691,520.59381,
1724.781,497.15874,
1721.870,484.20233,
1718.960,527.47277,
1716.049,530.5382,
1713.138,527.54001,
1710.228,513.32525,
1707.317,521.86486,
1704.407,532.23397,
1701.496,524.13452,
1698.586,506.61828,
1695.675,480.92158,
1692.764,509.5451,
1689.854,540.9075,
1686.943,532.58726,
1684.033,524.44869,
1681.122,551.77421,
1678.211,555.22145,
1675.301,569.20683,
1672.390,556.39057,
1669.480,603.01736,
1666.569,574.18652,
1663.659,569.8543,
1660.748,606.78989,
1657.837,634.68739,
1654.927,653.85171,
1652.016,638.80514,
1649.106,700.24628,
1646.195,659.7465,
1643.285,640.25261,
1640.374,682.26743,
1637.463,637.47499,
1634.553,703.718,
1631.642,668.89062,
1628.732,727.28555,
1625.821,733.29514,
1622.911,801.86118,
1620.000,846.68306,
1617.089,889.39428,
1614.179,944.67074,
1611.268,955.87822,
1608.358,1026.7851,
1605.447,1078.3361,
1602.536,1060.7485,
1599.626,1118.1257,
1596.715,1115.0816,
1593.805,1078.4767,
1590.894,1132.3742,
1587.984,1120.3299,
1585.073,1095.1288,
1582.162,1072.0476,
1579.252,1077.2513,
1576.341,1037.5947,
1573.431,1035.8649,
1570.520,1016.8474,
1567.610,1013.9755,
1564.699,1007.9997,
1561.788,989.75719,
1558.878,980.51895,
1555.967,978.58934,
1553.057,938.06075,
1550.146,936.75904,
1547.235,928.40792,
1544.325,874.2283,
1541.414,849.65057,
1538.504,862.47084,
1535.593,856.12948,
1532.683,843.08758,
1529.772,819.3754,
1526.861,806.57341,
1523.951,835.64096,
1521.040,819.26002,
1518.130,799.36587,
1515.219,790.85115,
1512.309,770.82214,
1509.398,823.80524,
1506.487,805.3206,
1503.577,826.48656,
1500.666,814.9069,
1497.756,806.9961,
1494.845,839.56963,
1491.934,823.07362,
1489.024,769.17402,
1486.113,767.25,
1483.203,814.32289,
1480.292,727.76225,
1477.382,707.20876,
1474.471,745.38633,
1471.560,745.63934,
1468.650,737.15036,
1465.739,739.09294,
1462.829,706.63459,
1459.918,693.19484,
1457.008,716.98866,
1454.097,729.93921,
1451.186,719.34865,
1448.276,695.33608,
1445.365,675.50039,
1442.455,690.08951,
1439.544,731.28094,
1436.633,765.24803,
1433.723,680.25,
1430.812,680.39777,
1427.902,683.10689,
1424.991,719.12186,
1422.081,699.14803,
1419.170,676.51255,
1416.259,666.7695,
1413.349,680.35482,
1410.438,688.7489,
1407.528,661.28162,
1404.617,689.28462,
1401.707,750.98655,
1398.796,732.46341,
1395.885,687.03745,
1392.975,681.43692,
1390.064,650.65812,
1387.154,637.95098,
1384.243,638.18065,
1381.332,629.02466,
1378.422,638.00339,
1375.511,691.3999,
1372.601,715.28926,
1369.690,805.54391,
1366.780,787.77656,
1363.869,819.20624,
1360.958,828.30805,
1358.048,832.96305,
1355.137,877.6763,
1352.227,893.11916,
1349.316,861.47342,
1346.406,869.36666,
1343.495,927.69604,
1340.584,964.78638,
1337.674,928.32526,
1334.763,986.86186,
1331.853,976.66232,
1328.942,966.4659,
1326.032,999.50607,
1323.121,1018.3645,
1320.210,1009.5975,
1317.300,1009.1523,
1314.389,1005.0276,
1311.479,1015.1625,
1308.568,1050.1033,
1305.657,1070.6881,
1302.747,1062.7799,
1299.836,1044.6211,
1296.926,1097.2927,
1294.015,1098.2121,
1291.105,1162.5296,
1288.194,1203.9985,
1285.283,1213.682,
1282.373,1230.0703,
1279.462,1260.6614,
1276.552,1286.6122,
1273.641,1317.508,
1270.731,1341.0769,
1267.820,1310.7184,
1264.909,1298.8216,
1261.999,1311.4484,
1259.088,1344.2847,
1256.178,1314.5611,
1253.267,1296.2077,
1250.356,1261.7736,
1247.446,1221.434,
1244.535,1192.8438,
1241.625,1164.0834,
1238.714,1131.3341,
1235.804,1111.6966,
1232.893,1087.5012,
1229.982,1081.5447,
1227.072,1060.7226,
1224.161,1039.0779,
1221.251,1024.8269,
1218.340,997.28096,
1215.430,975.44143,
1212.519,980.47451,
1209.608,992.41499,
1206.698,989.80325,
1203.787,999.74247,
1200.877,1011.8013,
1197.966,988.42312,
1195.055,1039.2982,
1192.145,1046.7473,
1189.234,1083.88,
1186.324,1106.432,
1183.413,1120.1739,
1180.503,1110.6303,
1177.592,1065.0379,
1174.681,1075.3904,
1171.771,1083.3324,
1168.860,1086.9048,
1165.950,1066.2865,
1163.039,1036.1075,
1160.129,1048.8442,
1157.218,1056.116,
1154.307,1046.9921,
1151.397,1034.9554,
1148.486,997.10014,
1145.576,997.29078,
1142.665,1021.2644,
1139.754,1002.0957,
1136.844,973.4397,
1133.933,976.15314,
1131.023,973.9197,
1128.112,963.74964,
1125.202,968.49155,
1122.291,971.38073,
1119.380,986.19803,
1116.470,980.90286,
1113.559,964.01177,
1110.649,983.47929,
1107.738,1008.5738,
1104.828,1005.9348,
1101.917,984.58717,
1099.006,980.35304,
1096.096,991.21756,
1093.185,1007.0216,
1090.275,987.20897,
1087.364,984.30837,
1084.453,991.99957,
1081.543,996.81178,
1078.632,996.87679,
1075.722,995.05297,
1072.811,979.9469,
1069.901,961.60843,
1066.990,1003.0916,
1064.079,1012.5695,
1061.169,1023.8483,
1058.258,1042.9902,
1055.348,1051.5467,
1052.437,1042.8738,
1049.527,1055.5451,
1046.616,1037.2997,
1043.705,1046.8115,
1040.795,1042.5879,
1037.884,1047.859,
1034.974,1060.6018,
1032.063,1066.7269,
1029.153,1068.8732,
1026.242,1074.0629,
1023.331,1095.082,
1020.421,1089.4906,
1017.510,1091.9733,
1014.600,1105.7086,
1011.689,1127.5125,
1008.778,1155.3026,
1005.868,1167.6129,
1002.957,1208.0496,
1000.047,1236.09,
997.136,1260.6951,
994.226,1276.2653,
991.315,1277.901,
988.404,1271.2228,
985.494,1275.4444,
982.583,1239.4691,
979.673,1229.1285,
976.762,1237.8178,
973.852,1235.0838,
970.941,1234.4016,
968.030,1256.9378,
965.120,1221.3431,
962.209,1243.5092,
959.299,1234.5015,
956.388,1228.69,
953.477,1229.8941,
950.567,1241.1384,
947.656,1260.1224,
944.746,1213.3968,
941.835,1248.5014,
938.925,1266.4627,
936.014,1244.947,
933.103,1231.9614,
930.193,1244.6629,
927.282,1202.0667,
924.372,1198.6843,
921.461,1193.0952,
918.551,1191.8309,
915.640,1179.0767,
912.729,1156.4196,
909.819,1143.9172,
906.908,1148.9718,
903.998,1145.2732,
901.087,1157.6166,
898.176,1181.9518,
895.266,1201.5196,
892.355,1208.8047,
889.445,1233.1435,
886.534,1236.5895,
883.624,1238.5957,
880.713,1240.2707,
877.802,1239.513,
874.892,1238.0885,
871.981,1245.5398,
869.071,1215.4649,
866.160,1212.3199,
863.250,1243.6538,
860.339,1260.1528,
857.428,1237.5717,
854.518,1225.6001,
851.607,1203.1342,
848.697,1204.7525,
845.786,1202.0603,
842.875,1203.5419,
839.965,1212.3761,
837.054,1199.4268,
834.144,1215.1731,
831.233,1227.5827,
828.323,1207.5214,
825.412,1189.9771,
822.501,1202.0797,
819.591,1178.9405,
816.680,1192.6731,
813.770,1165.5514,
810.859,1154.0186,
807.949,1155.0841,
805.038,1134.9557,
802.127,1124.2551,
799.217,1134.4309,
796.306,1125.1958,
793.396,1114.4714,
790.485,1118.3039,
787.574,1137.0009,
784.664,1130.44,
781.753,1139.3148,
778.843,1127.5872,
775.932,1119.8177,
773.022,1141.3768,
770.111,1142.1944,
767.200,1152.1471,
764.290,1151.7827,
761.379,1150.0377,
758.469,1148.5295,
755.558,1137.1559,
752.648,1100.4988,
749.737,1093.9028,
746.826,1077.9323,
743.916,1046.4057,
741.005,1003.8044,
738.095,920.18108,
735.184,805.85128,
732.274,784.2341,
729.363,849.32226,
726.452,958.76806,
723.542,1050.2295,
720.631,1079.7152,
717.721,1087.25,
714.810,1096.767,
711.899,1114.8837,
708.989,1126.1806,
706.078,1126.25,
703.168,1103.7828,
700.257,1093.7883,
697.347,1098.7284,
694.436,1093.5992,
691.525,1106.46,
688.615,1104.2187,
685.704,1102.1134,
682.794,1103.9521,
679.883,1106.7186,
676.973,1117.1364,
674.062,1115.4215,
671.151,1118.0716,
668.241,1114.7201,
665.330,1084.6282,
662.420,1092.6155,
659.509,1110.7582,
656.598,1115.057,
653.688,1114.4611,
650.777,1136.0601,
647.867,1159.9499,
644.956,1110.1456,
642.046,1079.5668,
639.135,1085.7173,
636.224,1091.3853,
633.314,1118.3792,
630.403,1127.0236,
627.493,1132.8589,
624.582,1137.0717,
621.672,1122.8158,
618.761,1137.4488,
615.850,1176.4112,
612.940,1193.3209,
610.029,1168.3043,
607.119,1144.6154,
604.208,1151.4802,
601.297,1172.1996,
598.387,1189.25,
595.476,1189.5471,
592.566,1192.6954,
589.655,1164.7428,
586.745,1157.0614,
583.834,1158.6862,
580.923,1128.0462,
578.013,1094.3027,
575.102,1101.3105,
572.192,1117.5374,
569.281,1124.547,
566.371,1120.6339,
563.460,1149.8797,
560.549,1151.5299,
557.639,1148.0383,
554.728,1169.0529,
551.818,1165.9317,
548.907,1179.8759,
545.996,1183.4182,
543.086,1177.4375,
540.175,1192.2318,
537.265,1212.8055,
534.354,1195.6672,
531.444,1183.7896,
528.533,1217.0777,
525.622,1228.7169,
522.712,1237.3175,
519.801,1237.8131,
516.891,1234.9106,
513.980,1248.0736,
511.070,1266.8587,
508.159,1288.0994,
505.248,1304.0011,
502.338,1307.2892,
499.427,1342.7935,
496.517,1366.3914,
493.606,1371.5296,
490.695,1360.143,
487.785,1359.3732,
484.874,1389.6225,
481.964,1387.5625,
479.053,1356.6535,
476.143,1337.4545,
473.232,1359.2709,
470.321,1368.25,
467.411,1361.1587,
464.500,1341.1615,
461.590,1377.1513,
458.679,1353.682,
455.769,1340.743,
452.858,1369.9435,
449.947,1347.7895,
447.037,1371.7677,
444.126,1383.9652,
441.216,1377.4832,
438.305,1401.865,
435.395,1395.4155,
432.484,1397.3348,
429.573,1402.8124,
426.663,1383.8089,
423.752,1345.2868,
420.842,1349.8009,
417.931,1373.3881,
415.020,1370.3547,
412.110,1393.6616,
409.199,1425.2329,
406.289,1440.3947,
403.378,1413.3166,
400.468,1432.9725,
397.557,1443.8773,
394.646,1441.5164,
391.736,1422.8637,
388.825,1410.796,
385.915,1349.7731,
383.004,1330.0887,
380.094,1408.9775,
377.183,1442.8389,
374.272,1453.8783,
371.362,1460.8422,
368.451,1475.253,
365.541,1491.7648,
362.630,1486.9639,
359.719,1479.25,
356.809,1481.7873,
353.898,1523.72,
350.988,1533.6225,
348.077,1519.7624,
345.167,1490.3852,
342.256,1512.7973,
339.345,1513.9357,
336.435,1507.0293,
333.524,1502.166,
330.614,1531.2271,
327.703,1507.3921,
324.793,1488.624,
321.882,1524.3023,
318.971,1545.8621,
316.061,1542.9954,
313.150,1528.7857,
310.240,1517.654,
307.329,1567.2746,
304.418,1562.6285,
301.508,1536.2039,
298.597,1547.3101,
295.687,1457.4998,
292.776,1435.0834,
289.866,1488.0706,
286.955,1601.0956,
284.044,1591.3175,
281.134,1611.0571,
278.223,1672.4056,
275.313,1687.1427,
272.402,1720.457,
269.492,1737.4972,
266.581,1727.9857,
263.670,1738.2782,
260.760,1738.1157,
257.849,1740.6392,
254.939,1756.0507,
252.028,1749.0116,
249.117,1763.6094,
246.207,1789.1747,
243.296,1808.2076,
240.386,1797.1902,
237.475,1775.6509,
234.565,1751.2147,
231.654,1744.6412,
228.743,1746.1268,
225.833,1742.7619,
222.922,1730.5558,
220.012,1737.1128,
217.101,1738.7593,
214.191,1729.7261,
211.280,1701.3551,
208.369,1709.3422,
205.459,1715.4478,
202.548,1714.4923,
199.638,1698.528,
196.727,1730.3992,
193.816,1753.5408,
190.906,1745.2946,
187.995,1689.5447,
185.085,1707.1327,
182.174,1748.6418,
179.264,1750.0873,
176.353,1737.4344,
173.442,1722.9988,
170.532,1709.746,
167.621,1705.4201,
164.711,1671.1392,
161.800,1619.1312,
158.890,1554.3557,
155.979,1484.1482,
153.068,1370.107,
150.158,1217.9346,
147.247,1045.6261,
144.337,858.91795,
141.426,671.43622,
138.516,489.34584,
135.605,341.41386,
132.694,234.63033,
129.784,159.40357,
126.873,98.617536,
123.963,68.608826,
121.052,47.034613,
118.141,26.331455,
115.231,34.066274,
112.320,33.437277,
109.410,27.977289,
106.499,26.552979,
103.589,22.328219,
100.678,15.718918,
97.767,6.4767294,
94.857,5.557011,
91.946,4.8468891,
89.036,4.8144895,
86.125,8.3605159,
83.215,9.25,
80.304,9.7288654,
77.393,11.145205,
74.483,4.0435155,
71.572,0.97470423,
68.662,1.7651275,
65.751,-3.18003,
62.840,-0.41468215,
59.930,4.6245724,
57.019,6.0347364,
54.109,6.8471608,
51.198,6.0435629,
48.288,3.2613249,
45.377,4.668081,
42.466,5.25,
39.556,5.0197628,
36.645,3.6153824,
33.735,3.7692485,
30.824,2.2620172,
27.914,-4.04856,
25.003,3.3442872,
22.092,7.9270954,
19.182,6.9754056,
16.271,-1.4184759,
13.361,36.131424,
10.450,83.836717,
7.539,34.954641,
4.629,-8.2131735,
1.718,-117.35903,
-1.192,-380.18252,
-4.103,-300.11581,
-7.013,-158.04094,
-9.924,-0.75,
