,PLC1D2~1,
Wavenumbers [1/cm],Intensity,
3014.167,0,
3011.256,-0.55001074,
3008.346,24.273885,
3005.435,22.886929,
3002.525,32.414989,
2999.614,46.327291,
2996.704,54.955671,
2993.793,33.866936,
2990.882,45.083942,
2987.972,56.94955,
2985.061,46.55665,
2982.151,45.119327,
2979.240,40.848852,
2976.329,57.519111,
2973.419,64.553787,
2970.508,66.383337,
2967.598,58.761044,
2964.687,58.298233,
2961.777,47.598134,
2958.866,59.665677,
2955.955,58.723454,
2953.045,73.733784,
2950.134,73.361508,
2947.224,61.597845,
2944.313,85.595442,
2941.403,71.749546,
2938.492,80.552837,
2935.581,80.451516,
2932.671,76.600866,
2929.760,82.069232,
2926.850,82.052256,
2923.939,91.121507,
2921.028,100.64132,
2918.118,92.099495,
2915.207,81.525236,
2912.297,114.83921,
2909.386,104.40146,
2906.476,88.876426,
2903.565,90.677034,
2900.654,99.446912,
2897.744,106.88685,
2894.833,93.051638,
2891.923,78.701897,
2889.012,94.121388,
2886.102,103.58379,
2883.191,103.99811,
2880.280,138.66986,
2877.370,146.64536,
2874.459,45.22033,
2871.549,58.631327,
2868.638,66.865959,
2865.727,84.738449,
2862.817,90,
2859.906,76.190873,
2856.996,99.506793,
2854.085,114.72482,
2851.175,101.54522,
2848.264,103.12766,
2845.353,84.560743,
2842.443,109.6007,
2839.532,97.35828,
2836.622,87.972004,
2833.711,103.73313,
2830.801,95.41029,
2827.890,104.62588,
2824.979,94.876097,
2822.069,100.17058,
2819.158,109.29919,
2816.248,101.49421,
2813.337,122.23661,
2810.427,97.426987,
2807.516,99.215939,
2804.605,105.18269,
2801.695,103.69737,
2798.784,101.29569,
2795.874,91.424797,
2792.963,87.928403,
2790.052,97.996997,
2787.142,108.81592,
2784.231,110.22672,
2781.321,87.502882,
2778.410,101.63958,
2775.500,109.46828,
2772.589,96.346329,
2769.678,108.28323,
2766.768,105.20192,
2763.857,101.05202,
2760.947,101.03152,
2758.036,104.30572,
2755.126,105.47222,
2752.215,115.46818,
2749.304,110.63849,
2746.394,112.54029,
2743.483,126.94998,
2740.573,123.01545,
2737.662,112.55326,
2734.751,107.09229,
2731.841,123.62272,
2728.930,109.77543,
2726.020,109.55613,
2723.109,110.88658,
2720.199,121.76571,
2717.288,118.15694,
2714.377,123.25836,
2711.467,114.96704,
2708.556,123.52126,
2705.646,113.85913,
2702.735,122.35569,
2699.825,135.19633,
2696.914,125.19045,
2694.003,129.15609,
2691.093,139.23225,
2688.182,130.54444,
2685.272,136.0882,
2682.361,110.84716,
2679.450,123.6954,
2676.540,120.77644,
2673.629,115.64122,
2670.719,130.21165,
2667.808,120.58363,
2664.898,125.07782,
2661.987,138.36681,
2659.076,116.94183,
2656.166,128.11257,
2653.255,127.85034,
2650.345,133.56806,
2647.434,118.02887,
2644.524,130.54437,
2641.613,133.68573,
2638.702,133.01578,
2635.792,139.43769,
2632.881,140.30948,
2629.971,136.76507,
2627.060,134.16594,
2624.149,135.40626,
2621.239,133.75741,
2618.328,121.46626,
2615.418,133.65909,
2612.507,143.82606,
2609.597,132.56088,
2606.686,126.45384,
2603.775,138.91666,
2600.865,138.70311,
2597.954,131.91037,
2595.044,150.99114,
2592.133,139.54763,
2589.223,145.26528,
2586.312,141.3417,
2583.401,142.10219,
2580.491,151.88939,
2577.580,153.97359,
2574.670,142.4278,
2571.759,156.75257,
2568.848,150.76791,
2565.938,149.76199,
2563.027,139.46363,
2560.117,137.55139,
2557.206,162.12177,
2554.296,155.43249,
2551.385,166.30594,
2548.474,176.59294,
2545.564,168.50649,
2542.653,175.92617,
2539.743,165.66636,
2536.832,148.2243,
2533.922,171.93692,
2531.011,178.44912,
2528.100,184.67589,
2525.190,173.11516,
2522.279,174.0938,
2519.369,168.75516,
2516.458,149.7762,
2513.548,167.41791,
2510.637,161.55334,
2507.726,168.43866,
2504.816,168.37542,
2501.905,176.6811,
2498.995,170.47775,
2496.084,178,
2493.173,173.02616,
2490.263,172.98871,
2487.352,192.58267,
2484.442,181.29123,
2481.531,173.31387,
2478.621,173.0711,
2475.710,190.90799,
2472.799,175.79376,
2469.889,172.30195,
2466.978,161.68058,
2464.068,178.94188,
2461.157,173,
2458.247,180.67656,
2455.336,191,
2452.425,193.67453,
2449.515,185.12266,
2446.604,183.17974,
2443.694,178,
2440.783,189.33559,
2437.872,193.81768,
2434.962,190.83871,
2432.051,192.09869,
2429.141,200.8116,
2426.230,186.36901,
2423.320,204.37151,
2420.409,201.7564,
2417.498,216.76125,
2414.588,199.02293,
2411.677,178.50202,
2408.767,195.79429,
2405.856,212.1595,
2402.946,204.99375,
2400.035,206.19249,
2397.124,197.5508,
2394.214,193.3512,
2391.303,194.67954,
2388.393,187.29533,
2385.482,193.55938,
2382.571,202.22858,
2379.661,180.23252,
2376.750,181.10593,
2373.840,204.09989,
2370.929,222.87004,
2368.019,224.71248,
2365.108,194.34817,
2362.197,203.98631,
2359.287,200.4117,
2356.376,215.97006,
2353.466,226.42468,
2350.555,216.44487,
2347.645,207.44769,
2344.734,215.24426,
2341.823,214.06633,
2338.913,233.87606,
2336.002,203.31565,
2333.092,216.91979,
2330.181,218.07158,
2327.270,206.88008,
2324.360,217.41978,
2321.449,227.50679,
2318.539,225.19268,
2315.628,227.02558,
2312.718,228.4163,
2309.807,235.09301,
2306.896,244.205,
2303.986,234.83124,
2301.075,243.14894,
2298.165,241.20191,
2295.254,223.38777,
2292.344,234.09951,
2289.433,246.25863,
2286.522,236.241,
2283.612,242.23979,
2280.701,267.82954,
2277.791,226.40075,
2274.880,235.14402,
2271.969,235.86831,
2269.059,255.40601,
2266.148,241.92488,
2263.238,240.19691,
2260.327,246.75845,
2257.417,235.45611,
2254.506,251.78632,
2251.595,248.28728,
2248.685,259.52111,
2245.774,255.89025,
2242.864,253.5187,
2239.953,262.59307,
2237.043,255.92109,
2234.132,261.77911,
2231.221,260.68206,
2228.311,245.04125,
2225.400,278.57782,
2222.490,262.7003,
2219.579,258.36762,
2216.669,262.49285,
2213.758,259.43398,
2210.847,246.52142,
2207.937,285.24913,
2205.026,264.88863,
2202.116,272.26221,
2199.205,279.59953,
2196.294,278.88403,
2193.384,283.78902,
2190.473,282.13615,
2187.563,307.95166,
2184.652,299.65673,
2181.742,302.49919,
2178.831,287.43969,
2175.920,284.50273,
2173.010,306.65193,
2170.099,306.46775,
2167.189,321.15786,
2164.278,341.53266,
2161.368,338.7136,
2158.457,353.84725,
2155.546,348.83364,
2152.636,337.72874,
2149.725,347.48321,
2146.815,351.93326,
2143.904,374.50186,
2140.993,374.80958,
2138.083,373.40115,
2135.172,397.97481,
2132.262,394.11532,
2129.351,385.46894,
2126.441,399.01946,
2123.530,373.38162,
2120.619,402.45891,
2117.709,371.36312,
2114.798,355.84222,
2111.888,338.90018,
2108.977,331.18543,
2106.067,327.48324,
2103.156,313.80247,
2100.245,312.00439,
2097.335,319.84293,
2094.424,326,
2091.514,318.49187,
2088.603,314.0184,
2085.692,318.68033,
2082.782,319.24094,
2079.871,329.2147,
2076.961,323.51662,
2074.050,320.66061,
2071.140,315.60907,
2068.229,322.36719,
2065.318,322.59301,
2062.408,311.28746,
2059.497,325.66672,
2056.587,348.70929,
2053.676,326.13473,
2050.766,337.61435,
2047.855,312.45567,
2044.944,327.86699,
2042.034,327.94799,
2039.123,330.65993,
2036.213,311.86881,
2033.302,324.86902,
2030.391,326.01774,
2027.481,318.92675,
2024.570,336.32819,
2021.660,315.47823,
2018.749,335.43014,
2015.839,318.84777,
2012.928,311.66611,
2010.017,325.23452,
2007.107,303.23177,
2004.196,301.58335,
2001.286,323.73141,
1998.375,336.69587,
1995.465,315.76161,
1992.554,302.11183,
1989.643,297.13825,
1986.733,291.74912,
1983.822,307.25702,
1980.912,309.3852,
1978.001,282.8553,
1975.090,306.21832,
1972.180,299,
1969.269,308.6236,
1966.359,298.48626,
1963.448,303.61031,
1960.538,303.31943,
1957.627,271.68419,
1954.716,276.74146,
1951.806,297.65225,
1948.895,288.06685,
1945.985,271.26798,
1943.074,283.43912,
1940.164,282.35578,
1937.253,279.12617,
1934.342,285.09411,
1931.432,285.03154,
1928.521,293.88429,
1925.611,290.74688,
1922.700,286,
1919.790,292.02883,
1916.879,274.39499,
1913.968,272.00123,
1911.058,291.41441,
1908.147,270.46133,
1905.237,276.02939,
1902.326,264.74666,
1899.415,262.25363,
1896.505,232.34943,
1893.594,235.54573,
1890.684,241.71237,
1887.773,243.957,
1884.863,263.32346,
1881.952,262.74763,
1879.041,252.46106,
1876.131,264.84444,
1873.220,258.41147,
1870.310,255.1435,
1867.399,294.36026,
1864.489,272.03894,
1861.578,273.2802,
1858.667,272.18565,
1855.757,249.20286,
1852.846,248.76409,
1849.936,255.48849,
1847.025,252.7056,
1844.114,267.68005,
1841.204,315.96503,
1838.293,303.57733,
1835.383,266.29049,
1832.472,296.53565,
1829.562,307.52838,
1826.651,287.22179,
1823.740,288.46362,
1820.830,278.11011,
1817.919,275.62875,
1815.009,265.72519,
1812.098,257.71654,
1809.188,318.90683,
1806.277,299.53116,
1803.366,274.73382,
1800.456,261.3082,
1797.545,302.01413,
1794.635,310.96798,
1791.724,299.21366,
1788.813,287.81646,
1785.903,327.50977,
1782.992,309.04626,
1780.082,337.20026,
1777.171,261.98928,
1774.261,238.06032,
1771.350,270.749,
1768.439,300.13076,
1765.529,340.45651,
1762.618,350.58437,
1759.708,329.09764,
1756.797,322.29546,
1753.887,337.07726,
1750.976,344.53796,
1748.065,341.47005,
1745.155,360.35468,
1742.244,353.79804,
1739.334,320.0353,
1736.423,341.50089,
1733.512,362.27644,
1730.602,360.5119,
1727.691,379.72683,
1724.781,378.92081,
1721.870,370.56187,
1718.960,407.64491,
1716.049,379.08511,
1713.138,390.80991,
1710.228,397.48119,
1707.317,375.00114,
1704.407,402.5455,
1701.496,384.12285,
1698.586,393.08781,
1695.675,403.35709,
1692.764,426.72132,
1689.854,339.9842,
1686.943,436.49253,
1684.033,392.21698,
1681.122,440.15038,
1678.211,387.51394,
1675.301,422.889,
1672.390,407.04187,
1669.480,421.02407,
1666.569,425.09185,
1663.659,509.19971,
1660.748,461.52061,
1657.837,487.54074,
1654.927,466.78914,
1652.016,458.53458,
1649.106,481.71367,
1646.195,549.68831,
1643.285,537.27344,
1640.374,548.81185,
1637.463,540.91874,
1634.553,591.22167,
1631.642,606.69491,
1628.732,669.86964,
1625.821,648.02094,
1622.911,679.81968,
1620.000,684.93701,
1617.089,742.82587,
1614.179,790.64635,
1611.268,814.14491,
1608.358,855.98661,
1605.447,918.34335,
1602.536,922.93189,
1599.626,984.6355,
1596.715,971.84798,
1593.805,953.90203,
1590.894,961.68737,
1587.984,1007.1707,
1585.073,921.26097,
1582.162,902.49534,
1579.252,893.81699,
1576.341,875.17767,
1573.431,852.20382,
1570.520,810.3099,
1567.610,810.17664,
1564.699,798.77437,
1561.788,791.59156,
1558.878,819.67605,
1555.967,801.28809,
1553.057,739.06943,
1550.146,723.44725,
1547.235,704.02564,
1544.325,719.36638,
1541.414,741.2196,
1538.504,737.4862,
1535.593,727.26171,
1532.683,733.0788,
1529.772,754.15622,
1526.861,761.02329,
1523.951,759.91831,
1521.040,756.2217,
1518.130,771.06524,
1515.219,772.07977,
1512.309,773.55854,
1509.398,745.62181,
1506.487,721.33824,
1503.577,751.02867,
1500.666,753.4184,
1497.756,726.75446,
1494.845,747.83991,
1491.934,743.78897,
1489.024,679.30195,
1486.113,708.52533,
1483.203,679.02596,
1480.292,672.45447,
1477.382,711.60416,
1474.471,648.86638,
1471.560,628.45133,
1468.650,614.65125,
1465.739,621.45029,
1462.829,640.93635,
1459.918,661.70729,
1457.008,653.21515,
1454.097,642.39453,
1451.186,644.34623,
1448.276,614.70669,
1445.365,559.42496,
1442.455,518.18656,
1439.544,534.76844,
1436.633,558.54222,
1433.723,495.37387,
1430.812,498,
1427.902,498.94709,
1424.991,538.75311,
1422.081,500.54848,
1419.170,520.32963,
1416.259,558.83271,
1413.349,526.21698,
1410.438,509.5011,
1407.528,533.10593,
1404.617,559.32969,
1401.707,507.05684,
1398.796,444.03149,
1395.885,455.08285,
1392.975,480.39564,
1390.064,470.52845,
1387.154,475.17813,
1384.243,494.06749,
1381.332,454.34002,
1378.422,440.51695,
1375.511,431.14914,
1372.601,432.84314,
1369.690,499.86335,
1366.780,487.23895,
1363.869,512.96499,
1360.958,526.32043,
1358.048,519.28695,
1355.137,556.05472,
1352.227,578.44435,
1349.316,579.44145,
1346.406,621.49523,
1343.495,644.50522,
1340.584,654.28471,
1337.674,716.35517,
1334.763,687.55255,
1331.853,728.35072,
1328.942,701.53715,
1326.032,699.63124,
1323.121,708.89157,
1320.210,768.60326,
1317.300,780.4735,
1314.389,811.65361,
1311.479,841.95153,
1308.568,837.2614,
1305.657,858.74298,
1302.747,891.56864,
1299.836,951.64864,
1296.926,943.0255,
1294.015,965.08926,
1291.105,981.84975,
1288.194,1018.346,
1285.283,1014.8279,
1282.373,1021.3906,
1279.462,1036.2351,
1276.552,1078.7718,
1273.641,1096.4644,
1270.731,1061.2343,
1267.820,1075.8554,
1264.909,1097.4061,
1261.999,1062.2357,
1259.088,1013.8933,
1256.178,1068.3826,
1253.267,1032.7355,
1250.356,1033.2223,
1247.446,1053.4947,
1244.535,1048.6295,
1241.625,1009.7778,
1238.714,980.22724,
1235.804,1000.5534,
1232.893,1025.1233,
1229.982,1031.6508,
1227.072,991.81706,
1224.161,995.72403,
1221.251,993.27745,
1218.340,946.00535,
1215.430,943.02141,
1212.519,948.77549,
1209.608,937.89813,
1206.698,952.91509,
1203.787,967.7437,
1200.877,925.61888,
1197.966,967.87937,
1195.055,946.96229,
1192.145,997.09672,
1189.234,1050.6836,
1186.324,1101.0939,
1183.413,1113.3096,
1180.503,1100.7216,
1177.592,1109.303,
1174.681,1106.3664,
1171.771,1101.7733,
1168.860,1091.9494,
1165.950,1071.6491,
1163.039,1074.6824,
1160.129,1070.9217,
1157.218,1094.3634,
1154.307,1137.6149,
1151.397,1151.4403,
1148.486,1130,
1145.576,1130.9251,
1142.665,1152.2351,
1139.754,1162.9499,
1136.844,1153.0949,
1133.933,1147.4135,
1131.023,1119.1463,
1128.112,1096.5702,
1125.202,1113.9324,
1122.291,1117.4933,
1119.380,1100.1905,
1116.470,1119.6062,
1113.559,1114.2675,
1110.649,1084.4965,
1107.738,1064.106,
1104.828,1066.9059,
1101.917,1071.4908,
1099.006,1061.2576,
1096.096,1083.0973,
1093.185,1035.6852,
1090.275,1065.1801,
1087.364,1080.5474,
1084.453,1107.061,
1081.543,1115.3591,
1078.632,1115.5358,
1075.722,1141.6836,
1072.811,1134.0764,
1069.901,1107.0053,
1066.990,1104.1917,
1064.079,1113.5272,
1061.169,1101.431,
1058.258,1093.0818,
1055.348,1094.7087,
1052.437,1084.9518,
1049.527,1100,
1046.616,1100,
1043.705,1086.897,
1040.795,1105.9862,
1037.884,1111.9197,
1034.974,1097.5515,
1032.063,1088.0999,
1029.153,1096.3382,
1026.242,1082.4989,
1023.331,1096.999,
1020.421,1152.2826,
1017.510,1157.0712,
1014.600,1148.0752,
1011.689,1159.8462,
1008.778,1170.6805,
1005.868,1163.0154,
1002.957,1164.7362,
1000.047,1205.04,
997.136,1219.4127,
994.226,1220.7846,
991.315,1219.3465,
988.404,1205.1633,
985.494,1175.211,
982.583,1184.6331,
979.673,1192.5848,
976.762,1181.4967,
973.852,1176.4201,
970.941,1183.1855,
968.030,1178.9363,
965.120,1139.2255,
962.209,1192.9357,
959.299,1203.4165,
956.388,1220.239,
953.477,1221.0802,
950.567,1219.1626,
947.656,1260.9973,
944.746,1253.3513,
941.835,1239.2332,
938.925,1253.1093,
936.014,1266.5524,
933.103,1268.1752,
930.193,1255.4092,
927.282,1224.8625,
924.372,1222.3257,
921.461,1244.8284,
918.551,1229.7627,
915.640,1208.7506,
912.729,1201.3899,
909.819,1198.0008,
906.908,1205.5827,
903.998,1187.7066,
901.087,1169.6334,
898.176,1170.5895,
895.266,1196.1873,
892.355,1225.66,
889.445,1197.1249,
886.534,1227.8903,
883.624,1222.5619,
880.713,1232.3107,
877.802,1235.8835,
874.892,1208.1977,
871.981,1175.7313,
869.071,1079.6588,
866.160,1058.8602,
863.250,1096.3152,
860.339,1153.4785,
857.428,1203.6698,
854.518,1253.0722,
851.607,1255.5684,
848.697,1218.8579,
845.786,1149.0655,
842.875,1131.1098,
839.965,1204.447,
837.054,1275.0558,
834.144,1280.0283,
831.233,1324.9968,
828.323,1320.2931,
825.412,1307.4883,
822.501,1339.0426,
819.591,1344.8274,
816.680,1315.3525,
813.770,1299.229,
810.859,1284.5239,
807.949,1269.4171,
805.038,1257.3119,
802.127,1235.0875,
799.217,1240.4539,
796.306,1230.5134,
793.396,1235.0154,
790.485,1255.9471,
787.574,1252.6539,
784.664,1269.8762,
781.753,1297.1554,
778.843,1314.3909,
775.932,1326.4814,
773.022,1336.5621,
770.111,1307.9468,
767.200,1301.4321,
764.290,1310.9797,
761.379,1305.2146,
758.469,1289.8595,
755.558,1312.3404,
752.648,1323.7448,
749.737,1327.9584,
746.826,1310.3512,
743.916,1305.195,
741.005,1348.559,
738.095,1362.3609,
735.184,1353.9892,
732.274,1307.9282,
729.363,1268.6551,
726.452,1260.7376,
723.542,1231.5994,
720.631,1262.8752,
717.721,1298.2052,
714.810,1333.3692,
711.899,1356.802,
708.989,1343.0842,
706.078,1320.5635,
703.168,1319.2505,
700.257,1327.776,
697.347,1330.3484,
694.436,1309.8036,
691.525,1302.5694,
688.615,1321.7541,
685.704,1335.2951,
682.794,1340.2766,
679.883,1350.8919,
676.973,1348.4878,
674.062,1363.314,
671.151,1369.37,
668.241,1365.2853,
665.330,1360.4285,
662.420,1306.1147,
659.509,1331.826,
656.598,1375.9357,
653.688,1415.2017,
650.777,1444.5149,
647.867,1400.7168,
644.956,1411.432,
642.046,1397.8803,
639.135,1349.4715,
636.224,1306.2387,
633.314,1353.875,
630.403,1372.5033,
627.493,1356.26,
624.582,1323.8829,
621.672,1327.8428,
618.761,1328.7599,
615.850,1364.8142,
612.940,1415.1751,
610.029,1450.4761,
607.119,1417.3116,
604.208,1426.7802,
601.297,1450.4452,
598.387,1447.7892,
595.476,1394.1087,
592.566,1384.6638,
589.655,1436.7749,
586.745,1444.7355,
583.834,1412.1692,
580.923,1395.1137,
578.013,1413.9473,
575.102,1410.9698,
572.192,1413.5748,
569.281,1431.9526,
566.371,1448.3877,
563.460,1454.2328,
560.549,1468.182,
557.639,1484.2228,
554.728,1492.0638,
551.818,1477.2378,
548.907,1461.2023,
545.996,1455.3327,
543.086,1463.0263,
540.175,1481.7138,
537.265,1455.4774,
534.354,1451.0203,
531.444,1451.1482,
528.533,1437.6555,
525.622,1460.9339,
522.712,1458.719,
519.801,1439.8704,
516.891,1426.2338,
513.980,1471.9173,
511.070,1476.7043,
508.159,1460.2852,
505.248,1449.5109,
502.338,1470.9382,
499.427,1434.6621,
496.517,1438.0101,
493.606,1461.7962,
490.695,1488.3581,
487.785,1483.7393,
484.874,1486.8773,
481.964,1466.1597,
479.053,1431.9776,
476.143,1423.53,
473.232,1428.0358,
470.321,1431.9463,
467.411,1432.987,
464.500,1430.0582,
461.590,1432.3554,
458.679,1436.8521,
455.769,1434.6439,
452.858,1428.1698,
449.947,1477.8253,
447.037,1455.8417,
444.126,1450.897,
441.216,1485.4082,
438.305,1528.0763,
435.395,1495.3174,
432.484,1464.9979,
429.573,1448.6925,
426.663,1438.8106,
423.752,1363.3762,
420.842,1255.6468,
417.931,1133.2487,
415.020,1017.9783,
412.110,1262.7485,
409.199,1421.9706,
406.289,1493.492,
403.378,1494.6465,
400.468,1390.3193,
397.557,1394.5329,
394.646,1449.3929,
391.736,1501.9276,
388.825,1499.6649,
385.915,1495.8068,
383.004,1490.7157,
380.094,1484.8848,
377.183,1482.6274,
374.272,1470.0588,
371.362,1471.4788,
368.451,1499.9118,
365.541,1514.9225,
362.630,1520.6387,
359.719,1504.8339,
356.809,1463.5922,
353.898,1456.853,
350.988,1503.8238,
348.077,1540.3535,
345.167,1527.2593,
342.256,1492.8941,
339.345,1497.8801,
336.435,1509.0569,
333.524,1504.5872,
330.614,1523.2161,
327.703,1535.6743,
324.793,1556.1785,
321.882,1596.9008,
318.971,1556.0115,
316.061,1541.5117,
313.150,1544.4643,
310.240,1555.596,
307.329,1598.1636,
304.418,1637.3417,
301.508,1674.24,
298.597,1712.7417,
295.687,1706.5186,
292.776,1695.3333,
289.866,1693.0061,
286.955,1726.2487,
284.044,1779.07,
281.134,1828.847,
278.223,1858.7787,
275.313,1809.4094,
272.402,1836.1778,
269.492,1861.4157,
266.581,1854.6368,
263.670,1807.5852,
260.760,1856.1636,
257.849,1910.6904,
254.939,1904.0854,
252.028,1874.3224,
249.117,1895.8916,
246.207,1937.2729,
243.296,1946.0574,
240.386,1965.2838,
237.475,1983.8363,
234.565,1992.3633,
231.654,1956.5745,
228.743,1982.3713,
225.833,1971.0222,
222.922,1889.7814,
220.012,1906.5382,
217.101,1926.2308,
214.191,1918.4883,
211.280,1843.5596,
208.369,1845.4009,
205.459,1846.6045,
202.548,1851.6491,
199.638,1901.7188,
196.727,1835.9395,
193.816,1811.9084,
190.906,1883.1812,
187.995,1802.8144,
185.085,1779.7286,
182.174,1783.8247,
179.264,1779.4881,
176.353,1779,
173.442,1764.1351,
170.532,1733.0436,
167.621,1690.506,
164.711,1691.6136,
161.800,1634.9232,
158.890,1435.5587,
155.979,1338.3569,
153.068,1235.441,
150.158,1113.3182,
147.247,938.85577,
144.337,774.53116,
141.426,602.43764,
138.516,413.17836,
135.605,308.34835,
132.694,222.34703,
129.784,152.4079,
126.873,98.058032,
123.963,67.651615,
121.052,43.368166,
118.141,19.095499,
115.231,17.578859,
112.320,14.88182,
109.410,13.090842,
106.499,18.788084,
103.589,13.276946,
100.678,7.7283783,
97.767,7.0174407,
94.857,1.4560876,
91.946,5.0466631,
89.036,13.774204,
86.125,12.355794,
83.215,8.8144779,
80.304,4.8028366,
77.393,1.2619869,
74.483,8.2064845,
71.572,9.1011831,
68.662,4,
65.751,4,
62.840,0.62808612,
59.930,-2.6254276,
57.019,-1.2152636,
54.109,-2.1943217,
51.198,-1.1903443,
48.288,2.9830127,
45.377,0.87287847,
42.466,0.82443868,
39.556,2,
36.645,2,
33.735,0.4422546,
30.824,-1,
27.914,-1,
25.003,-0.37736252,
22.092,-3.8748547,
19.182,-11.588108,
16.271,1.0027139,
13.361,32.551853,
10.450,53.85609,
7.539,-34.131646,
4.629,-315.16249,
1.718,-652.14859,
-1.192,-962.37791,
-4.103,-791.13869,
-7.013,-456.47339,
-9.924,-2,
