,Pliquid_AuCOFNPs-citrate13new_1E-1mgmL_100uL_mix_1E-1mgL_16h_785nm_133mW_3s_1acc_0_RamanShift__4__65,
Raman shift [1/cm],Intensity,
3014.167,-2.125,
3011.256,-1.5749893,
3008.346,50.018902,
3005.435,67.48984,
3002.525,60.912472,
2999.614,65.637336,
2996.704,64.875,
2993.793,78.379608,
2990.882,76.004765,
2987.972,66.89518,
2985.061,77.081905,
2982.151,76.948943,
2979.240,76.090774,
2976.329,88.388651,
2973.419,78.029044,
2970.508,82.824931,
2967.598,103.11034,
2964.687,90.262907,
2961.777,89.251032,
2958.866,93.206354,
2955.955,81.456877,
2953.045,73.79223,
2950.134,99.099535,
2947.224,109.50491,
2944.313,97.77386,
2941.403,100.61314,
2938.492,107.14057,
2935.581,85.197725,
2932.671,108.43725,
2929.760,108.64806,
2926.850,105.50921,
2923.939,113.99651,
2921.028,111.95738,
2918.118,112.39641,
2915.207,123.28639,
2912.297,121.87923,
2909.386,115.05749,
2906.476,113.51825,
2903.565,127.92315,
2900.654,118.41698,
2897.744,105.06358,
2894.833,111.62773,
2891.923,114.47121,
2889.012,110.12356,
2886.102,111.85473,
2883.191,96.887272,
2880.280,86.396519,
2877.370,78.927269,
2874.459,73.812162,
2871.549,106.07266,
2868.638,114.32862,
2865.727,113.90192,
2862.817,120.24665,
2859.906,116.27956,
2856.996,115.32292,
2854.085,118.07246,
2851.175,128.85387,
2848.264,133.88467,
2845.353,116.15537,
2842.443,127.27779,
2839.532,128.75557,
2836.622,113.93685,
2833.711,120.92681,
2830.801,133.56544,
2827.890,120.68794,
2824.979,127.36897,
2822.069,137.77265,
2819.158,125.45451,
2816.248,119.875,
2813.337,129.64817,
2810.427,123.57335,
2807.516,129.81734,
2804.605,130.34857,
2801.695,138.78288,
2798.784,136.72715,
2795.874,125.88028,
2792.963,130.51809,
2790.052,141.87371,
2787.142,127.61177,
2784.231,118.45575,
2781.321,141.12068,
2778.410,129.46003,
2775.500,121.21638,
2772.589,119.14487,
2769.678,128.875,
2766.768,131.30995,
2763.857,134.50506,
2760.947,122.37815,
2758.036,127.95783,
2755.126,141.44551,
2752.215,135.89763,
2749.304,121.89659,
2746.394,138.47375,
2743.483,142.52504,
2740.573,137.53652,
2737.662,136.76849,
2734.751,136.52554,
2731.841,116.03617,
2728.930,146.52758,
2726.020,145.21181,
2723.109,125.71042,
2720.199,145.01252,
2717.288,133.17426,
2714.377,143.2914,
2711.467,146.66181,
2708.556,157.17268,
2705.646,141.90311,
2702.735,139.71263,
2699.825,140.45135,
2696.914,138.49409,
2694.003,159.48964,
2691.093,156.875,
2688.182,164.51204,
2685.272,151.71568,
2682.361,153.02784,
2679.450,162.82971,
2676.540,151.67176,
2673.629,144.52969,
2670.719,156.94062,
2667.808,144.7018,
2664.898,146.05691,
2661.987,149.37517,
2659.076,156.74784,
2656.166,165.98757,
2653.255,166.68793,
2650.345,170.30694,
2647.434,176.73153,
2644.524,156.96374,
2641.613,168.73232,
2638.702,172.85922,
2635.792,160.24888,
2632.881,170.02974,
2629.971,175.23744,
2627.060,170.70781,
2624.149,173.95625,
2621.239,175.12945,
2618.328,146.80752,
2615.418,164.55681,
2612.507,165.32161,
2609.597,158.9768,
2606.686,157.75852,
2603.775,158.31945,
2600.865,173.63951,
2597.954,163.30623,
2595.044,173.52691,
2592.133,179.32088,
2589.223,185.3329,
2586.312,174.2167,
2583.401,170.93703,
2580.491,172.1346,
2577.580,175.875,
2574.670,172.27742,
2571.759,169.48116,
2568.848,176.52142,
2565.938,176.77963,
2563.027,192.31365,
2560.117,187.23948,
2557.206,188.68312,
2554.296,193.90475,
2551.385,187.04888,
2548.474,177.50474,
2545.564,199.24189,
2542.653,184.17031,
2539.743,185.20864,
2536.832,183.01705,
2533.922,181.20615,
2531.011,203.24988,
2528.100,200.47777,
2525.190,200.40902,
2522.279,196.9219,
2519.369,190.02642,
2516.458,178.54639,
2513.548,198.43843,
2510.637,195.05945,
2507.726,196.62593,
2504.816,201.75099,
2501.905,189.20854,
2498.995,208.39725,
2496.084,203.6346,
2493.173,201.58526,
2490.263,192.48178,
2487.352,205.3758,
2484.442,215.16623,
2481.531,210.875,
2478.621,202.42947,
2475.710,214.80599,
2472.799,207.84807,
2469.889,215.81406,
2466.978,214.98843,
2464.068,219.62105,
2461.157,214.41496,
2458.247,215.33082,
2455.336,210.51297,
2452.425,208.30896,
2449.515,204.81888,
2446.604,220.93955,
2443.694,207.80509,
2440.783,215.4009,
2437.872,204.6043,
2434.962,222.82431,
2432.051,213.53538,
2429.141,213.99256,
2426.230,221.54904,
2423.320,248.36104,
2420.409,224.66366,
2417.498,206.67837,
2414.588,236.9395,
2411.677,230.59217,
2408.767,245.0689,
2405.856,236.97259,
2402.946,234.29144,
2400.035,232.57219,
2397.124,242.31351,
2394.214,239.497,
2391.303,240.19546,
2388.393,228.91684,
2385.482,231.61063,
2382.571,240.06515,
2379.661,241.29342,
2376.750,250.7716,
2373.840,243.30626,
2370.929,233.97247,
2368.019,256.79127,
2365.108,250.99018,
2362.197,253.51332,
2359.287,253.4633,
2356.376,249.88381,
2353.466,243.60096,
2350.555,262.08497,
2347.645,264.42731,
2344.734,247.96251,
2341.823,264.51017,
2338.913,265.03319,
2336.002,257.80796,
2333.092,269.56463,
2330.181,273.13842,
2327.270,246.47015,
2324.360,255.69808,
2321.449,273.22874,
2318.539,266.25725,
2315.628,269.94175,
2312.718,278.2913,
2309.807,269.42151,
2306.896,271.33196,
2303.986,262.27117,
2301.075,274.34308,
2298.165,263.90362,
2295.254,279.46568,
2292.344,273.29406,
2289.433,279.86727,
2286.522,275.82145,
2283.612,282.84568,
2280.701,285.14406,
2277.791,277.7147,
2274.880,276.87094,
2271.969,292.13015,
2269.059,291.61341,
2266.148,291.71139,
2263.238,298.37307,
2260.327,308.73705,
2257.417,305.45167,
2254.506,304.11148,
2251.595,303.73685,
2248.685,288.82696,
2245.774,305.59992,
2242.864,301.3388,
2239.953,329.13721,
2237.043,304.04393,
2234.132,304.22306,
2231.221,300.03261,
2228.311,308.44329,
2225.400,327.98758,
2222.490,328.90425,
2219.579,319.97785,
2216.669,322.40123,
2213.758,313.61356,
2210.847,322.35358,
2207.937,334.46782,
2205.026,345.65314,
2202.116,336.39942,
2199.205,336.63759,
2196.294,334.313,
2193.384,340.98001,
2190.473,340.44307,
2187.563,360.98134,
2184.652,382.72439,
2181.742,379.21558,
2178.831,380.78943,
2175.920,389.12637,
2173.010,403.82625,
2170.099,396.87648,
2167.189,415.8463,
2164.278,413.1956,
2161.368,431.73083,
2158.457,467.34754,
2155.546,483.9202,
2152.636,479.51332,
2149.725,481.7005,
2146.815,506.07415,
2143.904,543.37314,
2140.993,538.4094,
2138.083,536.51026,
2135.172,545.79103,
2132.262,561.50792,
2129.351,543.73005,
2126.441,536.875,
2123.530,534.66174,
2120.619,512.43478,
2117.709,482.70069,
2114.798,457.15574,
2111.888,446.72527,
2108.977,435.7889,
2106.067,413.15718,
2103.156,411.27418,
2100.245,409.8543,
2097.335,377.59751,
2094.424,383.3537,
2091.514,377.00934,
2088.603,365.24826,
2085.692,383.83401,
2082.782,384.27266,
2079.871,376.58912,
2076.961,358.10198,
2074.050,388.22651,
2071.140,361.34583,
2068.229,386.33725,
2065.318,378.02325,
2062.408,374.95065,
2059.497,370.47619,
2056.587,383.64224,
2053.676,381.52545,
2050.766,381.72104,
2047.855,377.3339,
2044.944,359.80609,
2042.034,368.48197,
2039.123,385.71675,
2036.213,398.45276,
2033.302,382.54907,
2030.391,349.40109,
2027.481,377.53315,
2024.570,364.06145,
2021.660,376.75154,
2018.749,359.0907,
2015.839,392.69981,
2012.928,407.42701,
2010.017,395.55035,
2007.107,383.989,
2004.196,371.43453,
2001.286,386.56402,
1998.375,381.65354,
1995.465,392.39375,
1992.554,379.34574,
1989.643,392.32198,
1986.733,370.08904,
1983.822,368.93778,
1980.912,350.71754,
1978.001,380.84159,
1975.090,362.85974,
1972.180,374.66754,
1969.269,397.29172,
1966.359,370.30692,
1963.448,357.64119,
1960.538,395.76992,
1957.627,381.58396,
1954.716,393.4441,
1951.806,388.82532,
1948.895,388.89523,
1945.985,395.4665,
1943.074,387.98579,
1940.164,371.45189,
1937.253,379.20522,
1934.342,394.89211,
1931.432,385.90654,
1928.521,381.12198,
1925.611,387.9204,
1922.700,370.88053,
1919.790,371.04257,
1916.879,363.50275,
1913.968,380.85287,
1911.058,354.31946,
1908.147,389.93778,
1905.237,390.52202,
1902.326,366.19352,
1899.415,368.5628,
1896.505,375.2727,
1893.594,390.32927,
1890.684,384.67896,
1887.773,387.53857,
1884.863,406.63126,
1881.952,384.58029,
1879.041,366.57957,
1876.131,405.59394,
1873.220,388.72445,
1870.310,387.65975,
1867.399,416.41119,
1864.489,396.05719,
1861.578,377.92979,
1858.667,399.19535,
1855.757,409.46569,
1852.846,419.37244,
1849.936,418.78191,
1847.025,414.87744,
1844.114,395.02321,
1841.204,405.32954,
1838.293,425.38914,
1835.383,392.28252,
1832.472,390.25935,
1829.562,441.84194,
1826.651,420.11325,
1823.740,408.61065,
1820.830,431.16651,
1817.919,436.06062,
1815.009,451.28721,
1812.098,436.81989,
1809.188,397.35571,
1806.277,415.41023,
1803.366,450.10973,
1800.456,405.69936,
1797.545,419.96719,
1794.635,416.61793,
1791.724,398.9331,
1788.813,447.866,
1785.903,428.5513,
1782.992,448.29077,
1780.082,430.29772,
1777.171,429.20101,
1774.261,425.60048,
1771.350,457.77275,
1768.439,441.74704,
1765.529,443.42131,
1762.618,457.08814,
1759.708,463.32063,
1756.797,445.81439,
1753.887,458.82543,
1750.976,449.39203,
1748.065,454.68145,
1745.155,464.48795,
1742.244,442.99731,
1739.334,461.26323,
1736.423,467.51613,
1733.512,469.96851,
1730.602,477.85914,
1727.691,476.80436,
1724.781,469.58239,
1721.870,460.6321,
1718.960,471.20848,
1716.049,485.62065,
1713.138,493.85997,
1710.228,492.26411,
1707.317,491.875,
1704.407,500.85897,
1701.496,500.96345,
1698.586,511.96281,
1695.675,509.13217,
1692.764,480.47335,
1689.854,556.36717,
1686.943,527.98795,
1684.033,576.60835,
1681.122,507.09845,
1678.211,560.35154,
1675.301,573.83492,
1672.390,527.08734,
1669.480,597.82687,
1666.569,591.90039,
1663.659,594.60996,
1660.748,637.67953,
1657.837,578.12157,
1654.927,633.40642,
1652.016,614.53107,
1649.106,641.95217,
1646.195,685.30657,
1643.285,702.0319,
1640.374,666.02134,
1637.463,672.85699,
1634.553,672.76167,
1631.642,732.12473,
1628.732,755.05276,
1625.821,784.89986,
1622.911,822.66087,
1620.000,888.04348,
1617.089,908.47699,
1614.179,983.70352,
1611.268,1022.4622,
1608.358,1070.5807,
1605.447,1078.5322,
1602.536,1097.5127,
1599.626,1144.8716,
1596.715,1141.6142,
1593.805,1114.045,
1590.894,1059.7961,
1587.984,1092.7152,
1585.073,1024.8539,
1582.162,1043.6007,
1579.252,1027.7809,
1576.341,1021.2729,
1573.431,1029.4899,
1570.520,1011.2368,
1567.610,989.2277,
1564.699,970.09943,
1561.788,954.31172,
1558.878,932.12316,
1555.967,923.21434,
1553.057,920.3233,
1550.146,905.96958,
1547.235,875.44259,
1544.325,842.90904,
1541.414,848.777,
1538.504,841.24008,
1535.593,826.17872,
1532.683,833.41561,
1529.772,841.06862,
1526.861,825.72365,
1523.951,797.31118,
1521.040,816.24528,
1518.130,820.12135,
1515.219,816.99544,
1512.309,802.86599,
1509.398,801.36367,
1506.487,788.85904,
1503.577,804.3768,
1500.666,788.0842,
1497.756,779.29093,
1494.845,844.67489,
1491.934,839.72067,
1489.024,792.55852,
1486.113,789.02057,
1483.203,772.88798,
1480.292,784.45118,
1477.382,752.12033,
1474.471,720.08625,
1471.560,732.46798,
1468.650,726.8928,
1465.739,717.03206,
1462.829,704.7291,
1459.918,707.26735,
1457.008,746.86002,
1454.097,767.24536,
1451.186,729.92336,
1448.276,702.25439,
1445.365,708.4453,
1442.455,706.90106,
1439.544,732.59341,
1436.633,709.82634,
1433.723,704.00264,
1430.812,699.64818,
1427.902,721.67205,
1424.991,713.14219,
1422.081,678.92835,
1419.170,725.9905,
1416.259,704.71273,
1413.349,678.23873,
1410.438,672.57478,
1407.528,688.3248,
1404.617,694.52649,
1401.707,687.04565,
1398.796,701.2281,
1395.885,732.79634,
1392.975,739.43719,
1390.064,719.98882,
1387.154,691.38803,
1384.243,648.53104,
1381.332,665.1204,
1378.422,621.725,
1375.511,676.99507,
1372.601,721.18881,
1369.690,732.59,
1366.780,821.7909,
1363.869,825.26012,
1360.958,800.04916,
1358.048,799.18137,
1355.137,823.79963,
1352.227,851.85546,
1349.316,904.14672,
1346.406,945.75834,
1343.495,906.61195,
1340.584,925.91015,
1337.674,960.83818,
1334.763,946.16854,
1331.853,1006.4386,
1328.942,983.08054,
1326.032,996.18741,
1323.121,985.79668,
1320.210,1001.5185,
1317.300,997.1192,
1314.389,997.15298,
1311.479,999.44787,
1308.568,997.7772,
1305.657,1017.4942,
1302.747,1032.886,
1299.836,1043.509,
1296.926,1090.6186,
1294.015,1085.1027,
1291.105,1111.2913,
1288.194,1165.9946,
1285.283,1196.7751,
1282.373,1205.7734,
1279.462,1232.1294,
1276.552,1263.0955,
1273.641,1254.7559,
1270.731,1237.1646,
1267.820,1281.9768,
1264.909,1305.8633,
1261.999,1256.5727,
1259.088,1303.0909,
1256.178,1302.4492,
1253.267,1271.9544,
1250.356,1235.7848,
1247.446,1191.7785,
1244.535,1163.4331,
1241.625,1143.9565,
1238.714,1105.2592,
1235.804,1066.6808,
1232.893,1084.8735,
1229.982,1091.3537,
1227.072,1075.9634,
1224.161,1066.47,
1221.251,1023.1825,
1218.340,993.97532,
1215.430,975.41483,
1212.519,954.65049,
1209.608,954.4044,
1206.698,975.51317,
1203.787,968.1313,
1200.877,1012.6521,
1197.966,1009.0555,
1195.055,1024.2335,
1192.145,1079.469,
1189.234,1101.4165,
1186.324,1126.7863,
1183.413,1132.6263,
1180.503,1108.7926,
1177.592,1101.3802,
1174.681,1119.7072,
1171.771,1097.4423,
1168.860,1078.6874,
1165.950,1089.7756,
1163.039,1057.2565,
1160.129,1057.2112,
1157.218,1052.9722,
1154.307,1017.9527,
1151.397,1000.2123,
1148.486,1031.5839,
1145.576,980.37836,
1142.665,1015.007,
1139.754,1025.1977,
1136.844,996.06167,
1133.933,972.31789,
1131.023,983.28674,
1128.112,1006.7317,
1125.202,1010.1842,
1122.291,1004.7497,
1119.380,1003.7884,
1116.470,994.9631,
1113.559,990.00875,
1110.649,982.32654,
1107.738,990.663,
1104.828,1005.036,
1101.917,1010.2833,
1099.006,1013.9573,
1096.096,1036.6924,
1093.185,1017.3764,
1090.275,1028.0141,
1087.364,1007.5468,
1084.453,1005.312,
1081.543,1005.7399,
1078.632,1017.6188,
1075.722,1058.4302,
1072.811,1047.875,
1069.901,1047.875,
1066.990,1049.4917,
1064.079,1058.7217,
1061.169,1082.7578,
1058.258,1092.5227,
1055.348,1082.9931,
1052.437,1075.2994,
1049.527,1048.3855,
1046.616,1087.4828,
1043.705,1111.9149,
1040.795,1112.1285,
1037.884,1102.8061,
1034.974,1102.0889,
1032.063,1109.6827,
1029.153,1102.6553,
1026.242,1075.8416,
1023.331,1115.7057,
1020.421,1114.1156,
1017.510,1118.8394,
1014.600,1138.9858,
1011.689,1166.5674,
1008.778,1186.4767,
1005.868,1161.1298,
1002.957,1189.5215,
1000.047,1247.019,
997.136,1273.9229,
994.226,1291.3671,
991.315,1290.7389,
988.404,1249.9839,
985.494,1229.7599,
982.583,1224.6206,
979.673,1190.2193,
976.762,1186.0944,
973.852,1203.3673,
970.941,1217.2822,
968.030,1215.2738,
965.120,1211.9072,
962.209,1219.5801,
959.299,1227.2492,
956.388,1225.3953,
953.477,1216.1206,
950.567,1218.3319,
947.656,1246.5381,
944.746,1236.3434,
941.835,1239.1143,
938.925,1239.2169,
936.014,1254.5556,
933.103,1259.2822,
930.193,1235.0808,
927.282,1214.7751,
924.372,1194.4806,
921.461,1194.8206,
918.551,1180.1898,
915.640,1163.3507,
912.729,1152.9231,
909.819,1145.987,
906.908,1154.4113,
903.998,1178.7359,
901.087,1191.8766,
898.176,1197.7838,
895.266,1204.636,
892.355,1217.2309,
889.445,1229.8199,
886.534,1207.3335,
883.624,1211.6218,
880.713,1251.5999,
877.802,1275.4533,
874.892,1251.4627,
871.981,1230.7505,
869.071,1183.132,
866.160,1210.0629,
863.250,1226.9234,
860.339,1233.6026,
857.428,1241.5793,
854.518,1231.9472,
851.607,1234.4434,
848.697,1221.8065,
845.786,1196.1543,
842.875,1204.0911,
839.965,1245.8699,
837.054,1214.0425,
834.144,1228.96,
831.233,1223.209,
828.323,1219.3696,
825.412,1223.4166,
822.501,1227.1515,
819.591,1206.4915,
816.680,1200.266,
813.770,1176.3209,
810.859,1162.875,
807.949,1171.9702,
805.038,1190.8971,
802.127,1149.7407,
799.217,1163.019,
796.306,1174.5507,
793.396,1169.9207,
790.485,1161.7713,
787.574,1182.4115,
784.664,1143.8663,
781.753,1165.7273,
778.843,1170.0734,
775.932,1171.6032,
773.022,1198.7626,
770.111,1204.4856,
767.200,1207.1589,
764.290,1197.4732,
761.379,1181.6038,
758.469,1180.5939,
755.558,1223.3919,
752.648,1173.7011,
749.737,1144.9441,
746.826,1120.4221,
743.916,1091.8683,
741.005,1056.4732,
738.095,1017.5031,
735.184,887.73955,
732.274,856.28141,
729.363,901.11836,
726.452,979.97105,
723.542,1107.8552,
720.631,1146.9856,
717.721,1153.4379,
714.810,1166.8635,
711.899,1185.1621,
708.989,1152.0782,
706.078,1166.2985,
703.168,1157.7306,
700.257,1162.6647,
697.347,1179.5708,
694.436,1174.7441,
691.525,1169.9212,
688.615,1182.711,
685.704,1176.6291,
682.794,1151.3219,
679.883,1131.6051,
676.973,1170.0709,
674.062,1163.8372,
671.151,1148.8617,
668.241,1147.9754,
665.330,1174.4422,
662.420,1186.4232,
659.509,1179.986,
656.598,1174.0095,
653.688,1181.3866,
650.777,1209.0919,
647.867,1185.9984,
644.956,1173.4452,
642.046,1162.2414,
639.135,1158.3248,
636.224,1179.066,
633.314,1217.175,
630.403,1206.1826,
627.493,1186.882,
624.582,1192.471,
621.672,1253.4545,
618.761,1219.3979,
615.850,1216.6908,
612.940,1233.7795,
610.029,1252.875,
607.119,1252.875,
604.208,1247.1949,
601.297,1230.9165,
598.387,1234.9328,
595.476,1277.5723,
592.566,1253.1732,
589.655,1250.8187,
586.745,1234.0823,
583.834,1204.2875,
580.923,1180.7944,
578.013,1167.454,
575.102,1169.0373,
572.192,1169.6594,
569.281,1171.4674,
566.371,1213.7291,
563.460,1232.6898,
560.549,1227.1803,
557.639,1221.8576,
554.728,1239.9388,
551.818,1225.1128,
548.907,1227.9691,
545.996,1238.8732,
543.086,1244.5066,
540.175,1219.5899,
537.265,1236.7063,
534.354,1254.4105,
531.444,1263.7604,
528.533,1259.3851,
525.622,1238.4345,
522.712,1253.2911,
519.801,1263.2018,
516.891,1266.2307,
513.980,1302.6226,
511.070,1315.0315,
508.159,1314.0993,
505.248,1322.6449,
502.338,1363.4909,
499.427,1350.3698,
496.517,1377.4204,
493.606,1386.7423,
490.695,1364.2242,
487.785,1402.7138,
484.874,1408.875,
481.964,1403.0611,
479.053,1391.9333,
476.143,1379.6459,
473.232,1380.3138,
470.321,1367.7374,
467.411,1359.1935,
464.500,1374.8944,
461.590,1375.6601,
458.679,1397.3365,
455.769,1395.341,
452.858,1356.0564,
449.947,1386.6136,
447.037,1414.1116,
444.126,1408.2811,
441.216,1377.5208,
438.305,1392.7594,
435.395,1396.1863,
432.484,1399.3755,
429.573,1399.68,
426.663,1385.9974,
423.752,1367.4395,
420.842,1351.6547,
417.931,1347.2617,
415.020,1366.2207,
412.110,1402.724,
409.199,1406.0951,
406.289,1402.2705,
403.378,1421.9134,
400.468,1433.2533,
397.557,1396.7713,
394.646,1357.7976,
391.736,1354.2231,
388.825,1333.8588,
385.915,1295.4112,
383.004,1284.8642,
380.094,1331.6025,
377.183,1365.4639,
374.272,1415.5835,
371.362,1457.5275,
368.451,1476.7868,
365.541,1491.7975,
362.630,1485.4964,
359.719,1487.5298,
356.809,1514.3702,
353.898,1539.0805,
350.988,1539.9076,
348.077,1524.1299,
345.167,1498.7454,
342.256,1515.9279,
339.345,1511.8406,
336.435,1513.0355,
333.524,1537.0629,
330.614,1543.0241,
327.703,1552.5761,
324.793,1558.8438,
321.882,1555.9417,
318.971,1583.4491,
316.061,1577.2489,
313.150,1560.875,
310.240,1560.875,
307.329,1527.2871,
304.418,1525.7298,
301.508,1542.2381,
298.597,1551.1231,
295.687,1544.4254,
292.776,1536.7083,
289.866,1550.3363,
286.955,1642.677,
284.044,1716.5949,
281.134,1782.9792,
278.223,1840.9407,
275.313,1875.5729,
272.402,1896.8167,
269.492,1923.0345,
266.581,1956.4561,
263.670,1936.6063,
260.760,1990.9491,
257.849,2048.4413,
254.939,2055.7801,
252.028,2045.0173,
249.117,2053.2093,
246.207,2065.9809,
243.296,2058.6605,
240.386,2061.14,
237.475,2049.0443,
234.565,2022.9638,
231.654,1998.1308,
228.743,1997.4779,
225.833,1967.9462,
222.922,1893.5884,
220.012,1908.8881,
217.101,1916.8193,
214.191,1918.1265,
211.280,1912.3068,
208.369,1910.5294,
205.459,1868.7522,
202.548,1818.2817,
199.638,1884.3158,
196.727,1912.2804,
193.816,1927.6914,
190.906,1939.5861,
187.995,1959.8587,
185.085,1982.4792,
182.174,1977.3484,
179.264,1894.2303,
176.353,1949.5937,
173.442,1950.3443,
170.532,1885.1028,
167.621,1861.3106,
164.711,1833.8523,
161.800,1792.0189,
158.890,1725.0842,
155.979,1622.5918,
153.068,1484.0454,
150.158,1314.1395,
147.247,1121.7283,
144.337,894.85403,
141.426,689.78066,
138.516,535.64904,
135.605,364.67676,
132.694,247.4077,
129.784,169.21677,
126.873,99.134041,
123.963,69.510106,
121.052,54.475529,
118.141,45.908705,
115.231,33.084734,
112.320,28.722272,
109.410,29.329579,
106.499,26.480958,
103.589,20.272455,
100.678,14.24527,
97.767,9.9796443,
94.857,11.260978,
91.946,11.471889,
89.036,11.100796,
86.125,12.519206,
83.215,15.529602,
80.304,16.198971,
77.393,11.241782,
74.483,8.2544602,
71.572,8.6867606,
68.662,11.390128,
65.751,6.44497,
62.840,8.7286159,
59.930,12.313141,
57.019,10.197895,
54.109,7.4863566,
51.198,6.1766093,
48.288,6.9599366,
45.377,17.510608,
42.466,18.577245,
39.556,13.759881,
36.645,13.057691,
33.735,15.471242,
30.824,18.095887,
27.914,18.797062,
25.003,23.233462,
22.092,26.197905,
19.182,28.247972,
16.271,70.21738,
13.361,322.47001,
10.450,813.90028,
7.539,1790.1452,
4.629,2547.8082,
1.718,2805.2027,
-1.192,2105.2696,
-4.103,1218.6126,
-7.013,491.36336,
-9.924,4.875,
