,PLFBEA~1,
Wavenumbers [1/cm],Intensity,
3014.167,-2.25,
3011.256,0.44993558,
3008.346,65.783263,
3005.435,68.48145,
3002.525,78.090045,
2999.614,84.166918,
2996.704,95.89124,
2993.793,83.75,
2990.882,90.52859,
2987.972,117.6037,
2985.061,92.296803,
2982.151,105.55673,
2979.240,96.598852,
2976.329,108.00956,
2973.419,118.48838,
2970.508,118.05002,
2967.598,117.41546,
2964.687,115.52581,
2961.777,109.87809,
2958.866,132.41865,
2955.955,137.33849,
2953.045,127.41892,
2950.134,141.93075,
2947.224,149.94928,
2944.313,157.64886,
2941.403,149.19024,
2938.492,146.88821,
2935.581,150.38434,
2932.671,156.23069,
2929.760,161.88846,
2926.850,163.75,
2923.939,159.46962,
2921.028,164.60298,
2918.118,168.04849,
2915.207,156.92723,
2912.297,183.63999,
2909.386,165.19524,
2906.476,168.4326,
2903.565,165.75,
2900.654,170.0321,
2897.744,164.85058,
2894.833,168.214,
2891.923,170.6699,
2889.012,147.83093,
2886.102,156.95811,
2883.191,127.77832,
2880.280,124.372,
2877.370,51.02343,
2874.459,-36.011056,
2871.549,6.1058856,
2868.638,122.07571,
2865.727,127.80384,
2862.817,149.96523,
2859.906,151.00356,
2856.996,168.21603,
2854.085,196.87609,
2851.175,167.41864,
2848.264,187.3825,
2845.353,169.96567,
2842.443,178.95139,
2839.532,165.33217,
2836.622,173.38477,
2833.711,176.79397,
2830.801,182.25368,
2827.890,186.37588,
2824.979,188.82401,
2822.069,195.86372,
2819.158,198.52897,
2816.248,184.50868,
2813.337,215.46099,
2810.427,193.09573,
2807.516,191.69969,
2804.605,193.93269,
2801.695,187.92105,
2798.784,182.97177,
2795.874,183.87399,
2792.963,179.24946,
2790.052,203.74206,
2787.142,185.25023,
2784.231,187.04195,
2781.321,197.1214,
2778.410,186.50508,
2775.500,203.13068,
2772.589,184.86696,
2769.678,207.35752,
2766.768,196.82183,
2763.857,191.38199,
2760.947,192.23424,
2758.036,191.44428,
2755.126,214.4188,
2752.215,204.4954,
2749.304,196.38849,
2746.394,209.77213,
2743.483,218.15003,
2740.573,210.08848,
2737.662,215.2929,
2734.751,197.25985,
2731.841,209.37272,
2728.930,201.69056,
2726.020,210.96412,
2723.109,218.04875,
2720.199,225.30009,
2717.288,215.46898,
2714.377,234.29558,
2711.467,224.75,
2708.556,230.48389,
2705.646,230.67956,
2702.735,225.75516,
2699.825,229.28272,
2696.914,226.13091,
2694.003,235.39227,
2691.093,235.73195,
2688.182,244.49667,
2685.272,226.27205,
2682.361,223.11463,
2679.450,234.53598,
2676.540,217.97356,
2673.629,227.42265,
2670.719,226.67699,
2667.808,236.31228,
2664.898,237.23055,
2661.987,238.58339,
2659.076,239.00431,
2656.166,241.86257,
2653.255,240.63776,
2650.345,250.02223,
2647.434,234.4079,
2644.524,254.25596,
2641.613,256.52184,
2638.702,237.17609,
2635.792,245.28041,
2632.881,248.28577,
2629.971,250.98493,
2627.060,251.41563,
2624.149,253.31876,
2621.239,247.25296,
2618.328,232.23355,
2615.418,265.08636,
2612.507,260.64724,
2609.597,252.39271,
2606.686,255.6456,
2603.775,267.42857,
2600.865,268.86606,
2597.954,259.7562,
2595.044,278.42848,
2592.133,259.85175,
2589.223,269.36475,
2586.312,294.47869,
2583.401,280.03469,
2580.491,275.40869,
2577.580,271.7302,
2574.670,263.62432,
2571.759,280.90667,
2568.848,278.51791,
2565.938,290.75,
2563.027,285.2614,
2560.117,282.74067,
2557.206,302.119,
2554.296,279.92162,
2551.385,289.94809,
2548.474,311.60205,
2545.564,285.73132,
2542.653,301.76006,
2539.743,300.39171,
2536.832,293.28084,
2533.922,302.73423,
2531.011,306.14963,
2528.100,306.55484,
2525.190,295.16885,
2522.279,310.99963,
2519.369,298.16495,
2516.458,302.08215,
2513.548,299.94092,
2510.637,308.04114,
2507.726,323.06597,
2504.816,302.62373,
2501.905,304.48902,
2498.995,305.64578,
2496.084,324.65595,
2493.173,311.43344,
2490.263,304.51386,
2487.352,313.58307,
2484.442,316.86989,
2481.531,331.59046,
2478.621,314.16227,
2475.710,331.61198,
2472.799,312.02356,
2469.889,316.93008,
2466.978,323.42014,
2464.068,315.04627,
2461.157,334.47758,
2458.247,321.60295,
2455.336,341.21578,
2452.425,333.8113,
2449.515,337.22194,
2446.604,341.75695,
2443.694,336.56416,
2440.783,337.51126,
2437.872,346.82293,
2434.962,345.07259,
2432.051,342.06495,
2429.141,334.80313,
2426.230,339.96771,
2423.320,347.83519,
2420.409,358.02587,
2417.498,339.34832,
2414.588,347.10738,
2411.677,332.1803,
2408.767,345.26772,
2405.856,370.38799,
2402.946,371.16019,
2400.035,371.53874,
2397.124,366.42379,
2394.214,377.26479,
2391.303,376.96003,
2388.393,354.80579,
2385.482,337.36687,
2382.571,329.26921,
2379.661,334.77302,
2376.750,359.64407,
2373.840,371.94683,
2370.929,350.02074,
2368.019,376.67733,
2365.108,392.26047,
2362.197,388.22116,
2359.287,404.09485,
2356.376,390.78522,
2353.466,414.63022,
2350.555,396.5151,
2347.645,395.42153,
2344.734,404.35832,
2341.823,395.949,
2338.913,395.99329,
2336.002,404.34567,
2333.092,399.73866,
2330.181,398.03132,
2327.270,378.01512,
2324.360,413.36319,
2321.449,419.87244,
2318.539,418.38916,
2315.628,421.26279,
2312.718,433.88217,
2309.807,422.15988,
2306.896,429.00978,
2303.986,421.87328,
2301.075,413.92019,
2298.165,413.75954,
2295.254,411.77154,
2292.344,429.06114,
2289.433,441.03954,
2286.522,445.66505,
2283.612,446.25891,
2280.701,453.59751,
2277.791,464.22903,
2274.880,450.89402,
2271.969,447.75,
2269.059,463.94893,
2266.148,447.56803,
2263.238,436.75,
2260.327,473.26691,
2257.417,442.83389,
2254.506,453.96368,
2251.595,459.17543,
2248.685,480.1634,
2245.774,450.70667,
2242.864,464.78739,
2239.953,475.65352,
2237.043,467.59464,
2234.132,462.98383,
2231.221,475.19973,
2228.311,483.01031,
2225.400,506.97516,
2222.490,510.66522,
2219.579,500.9557,
2216.669,505.30485,
2213.758,484.61796,
2210.847,491.03462,
2207.937,499.50569,
2205.026,520.52872,
2202.116,495.27442,
2199.205,505.41189,
2196.294,517.188,
2193.384,525.98651,
2190.473,518.59624,
2187.563,556.62433,
2184.652,533.15979,
2181.742,542.31763,
2178.831,537.46598,
2175.920,543.00137,
2173.010,578.00283,
2170.099,574.41864,
2167.189,593.6926,
2164.278,588.24447,
2161.368,603.32136,
2158.457,610.25715,
2155.546,634.00676,
2152.636,636.99471,
2149.725,634.41443,
2146.815,668.58209,
2143.904,676.0474,
2140.993,673.24202,
2138.083,688.03266,
2135.172,692.7584,
2132.262,690.49824,
2129.351,698.81212,
2126.441,691.14803,
2123.530,678.54797,
2120.619,659.51152,
2117.709,645.68519,
2114.798,629.9154,
2111.888,614.83824,
2108.977,619.73015,
2106.067,596.86462,
2103.156,594.54835,
2100.245,574.75878,
2097.335,587.90707,
2094.424,579.35651,
2091.514,564.24187,
2088.603,562.61631,
2085.692,565.70173,
2082.782,591.26386,
2079.871,573.53414,
2076.961,590.13555,
2074.050,581.94394,
2071.140,584.78456,
2068.229,577.02865,
2065.318,581.23251,
2062.408,593.34834,
2059.497,593.9643,
2056.587,605.13362,
2053.676,579.16841,
2050.766,581.98019,
2047.855,552.8924,
2044.944,558.01602,
2042.034,557.85402,
2039.123,561.95202,
2036.213,578.21221,
2033.302,584.07593,
2030.391,591.4619,
2027.481,607.1157,
2024.570,584.09361,
2021.660,580.63174,
2018.749,606.21813,
2015.839,592.21194,
2012.928,585.99161,
2010.017,573.82817,
2007.107,574.44908,
2004.196,583.23809,
2001.286,595.43902,
1998.375,580.78641,
1995.465,563.67054,
1992.554,589.79682,
1989.643,577.33758,
1986.733,575.57281,
1983.822,557.57127,
1980.912,572.70033,
1978.001,559.79266,
1975.090,537.98358,
1972.180,533.43882,
1969.269,550.67531,
1966.359,535.99298,
1963.448,564.19784,
1960.538,568.20037,
1957.627,541.67568,
1954.716,551.37655,
1951.806,563.10418,
1948.895,548.32696,
1945.985,539.51144,
1943.074,562.73904,
1940.164,543.32689,
1937.253,529.98936,
1934.342,515.24572,
1931.432,529.75947,
1928.521,519.96934,
1925.611,526.76929,
1922.700,532.95856,
1919.790,515.52476,
1916.879,496.93574,
1913.968,508.73402,
1911.058,558.56981,
1908.147,525.62443,
1905.237,513.93384,
1902.326,517.73964,
1899.415,494.23657,
1896.505,467.31015,
1893.594,475.73788,
1890.684,499.75,
1887.773,506.68086,
1884.863,526.4197,
1881.952,540.32994,
1879.041,555.61034,
1876.131,532.8755,
1873.220,511.05967,
1870.310,556.09072,
1867.399,547.94192,
1864.489,502.38563,
1861.578,543.3104,
1858.667,545.37577,
1855.757,524.75358,
1852.846,522.25769,
1849.936,527.95921,
1847.025,520.16607,
1844.114,526.09832,
1841.204,583.1451,
1838.293,561.32567,
1835.383,537.60998,
1832.472,570.57609,
1829.562,583.94401,
1826.651,557.71513,
1823.740,569.501,
1820.830,588.00992,
1817.919,546.77367,
1815.009,554.73091,
1812.098,559.54527,
1809.188,626.34674,
1806.277,575.98938,
1803.366,596.51709,
1800.456,582.25539,
1797.545,580.01918,
1794.635,638.52495,
1791.724,621.53634,
1788.813,641.34434,
1785.903,609.21134,
1782.992,566.57863,
1780.082,555.04648,
1777.171,472.06958,
1774.261,430.97021,
1771.350,497.82302,
1768.439,594.45516,
1765.529,629.6602,
1762.618,641.58126,
1759.708,621.71714,
1756.797,613.34849,
1753.887,643.6742,
1750.976,672.67081,
1748.065,676.37673,
1745.155,679.41446,
1742.244,665.87231,
1739.334,649.21824,
1736.423,654.22849,
1733.512,634.46538,
1730.602,670.63102,
1727.691,673.46743,
1724.781,710.65198,
1721.870,687.14504,
1718.960,716.57268,
1716.049,691.19101,
1713.138,741.17972,
1710.228,702.01337,
1707.317,700.942,
1704.407,704.44519,
1701.496,740.30036,
1698.586,712.33453,
1695.675,783.67098,
1692.764,731.94669,
1689.854,727.79331,
1686.943,715.18843,
1684.033,731.32778,
1681.122,775.98534,
1678.211,737.13069,
1675.301,828.46633,
1672.390,800.70813,
1669.480,786.92648,
1666.569,809.27053,
1663.659,849.50501,
1660.748,835.46343,
1657.837,872.05618,
1654.927,886.71059,
1652.016,925.94813,
1649.106,894.09273,
1646.195,908.68508,
1643.285,947.98047,
1640.374,1000.4782,
1637.463,988.38051,
1634.553,1023.6071,
1631.642,1081.4775,
1628.732,1147.5071,
1625.821,1106.7703,
1622.911,1137.5753,
1620.000,1227.6035,
1617.089,1293.4366,
1614.179,1368.6067,
1611.268,1423.7052,
1608.358,1507.7232,
1605.447,1560.779,
1602.536,1608.4806,
1599.626,1629.2287,
1596.715,1667.9616,
1593.805,1674.433,
1590.894,1667.7046,
1587.984,1630.3741,
1585.073,1573.701,
1582.162,1573.0989,
1579.252,1561.6572,
1576.341,1557.1479,
1573.431,1483.1316,
1570.520,1455.1062,
1567.610,1430.3967,
1564.699,1432.9004,
1561.788,1390.2716,
1558.878,1376.2121,
1555.967,1360.2514,
1553.057,1359.6809,
1550.146,1323.5756,
1547.235,1290.6661,
1544.325,1289.1432,
1541.414,1312.2722,
1538.504,1330.7776,
1535.593,1321.0379,
1532.683,1295.9682,
1529.772,1306.9183,
1526.861,1326.6569,
1523.951,1320.6406,
1521.040,1352.4629,
1518.130,1359.1775,
1515.219,1362.5503,
1512.309,1340.6013,
1509.398,1316.4171,
1506.487,1349.0336,
1503.577,1334.3987,
1500.666,1318.7354,
1497.756,1304.2756,
1494.845,1320.5488,
1491.934,1267.624,
1489.024,1229.1243,
1486.113,1250.9304,
1483.203,1242.9802,
1480.292,1168.778,
1477.382,1203.4366,
1474.471,1161.0335,
1471.560,1128.0597,
1468.650,1137.4653,
1465.739,1172.9316,
1462.829,1194.1214,
1459.918,1188.9101,
1457.008,1190.8886,
1454.097,1184.0366,
1451.186,1165.75,
1448.276,1138.8152,
1445.365,1062.5304,
1442.455,1002.0298,
1439.544,1010.5257,
1436.633,1000.3121,
1433.723,960.98416,
1430.812,994.94246,
1427.902,960.17844,
1424.991,978.18593,
1422.081,988.84225,
1419.170,975.06097,
1416.259,1025.4041,
1413.349,1022.6452,
1410.438,1026.1474,
1407.528,1027.175,
1404.617,1043.3638,
1401.707,996.39667,
1398.796,930.53325,
1395.885,920.71067,
1392.975,912.87438,
1390.064,889.87033,
1387.154,883.39375,
1384.243,831.9918,
1381.332,847.39795,
1378.422,880.69238,
1375.511,802.00278,
1372.601,899.35803,
1369.690,904.32111,
1366.780,913.25442,
1363.869,949.16794,
1360.958,984.85757,
1358.048,1003.8697,
1355.137,1059.2157,
1352.227,1084.1616,
1349.316,1121.9626,
1346.406,1210.8093,
1343.495,1188.7604,
1340.584,1183.3212,
1337.674,1206.8253,
1334.763,1268.0788,
1331.853,1329.2761,
1328.942,1327.3027,
1326.032,1369.9779,
1323.121,1373.0813,
1320.210,1399.3846,
1317.300,1436.7691,
1314.389,1475.3616,
1311.479,1489.3229,
1308.568,1493.7585,
1305.657,1522.1215,
1302.747,1555.8216,
1299.836,1653.7672,
1296.926,1649.1001,
1294.015,1699.6629,
1291.105,1677.0948,
1288.194,1727.2658,
1285.283,1726.4299,
1282.373,1739.1015,
1279.462,1762.9262,
1276.552,1789.5453,
1273.641,1807.3704,
1270.731,1799.6933,
1267.820,1781.919,
1264.909,1773.7935,
1261.999,1738.6488,
1259.088,1763.276,
1256.178,1822.1326,
1253.267,1746.5913,
1250.356,1731.5861,
1247.446,1753.1784,
1244.535,1735.5135,
1241.625,1705.75,
1238.714,1701.7023,
1235.804,1702.7985,
1232.893,1738.2508,
1229.982,1733.4928,
1227.072,1696.375,
1224.161,1696.2715,
1221.251,1662.5026,
1218.340,1623.5419,
1215.430,1629.1198,
1212.519,1625.3758,
1209.608,1589.7644,
1206.698,1568.218,
1203.787,1567.8003,
1200.877,1591.8674,
1197.966,1626.0354,
1195.055,1602.1525,
1192.145,1678.1437,
1189.234,1775.4684,
1186.324,1798.4758,
1183.413,1824.1714,
1180.503,1882.1932,
1177.592,1890.5276,
1174.681,1855.3562,
1171.771,1846.0385,
1168.860,1858.5417,
1165.950,1867.8129,
1163.039,1890.0037,
1160.129,1860.9993,
1157.218,1857.8253,
1154.307,1878.2977,
1151.397,1874.9209,
1148.486,1887.4993,
1145.576,1892.4439,
1142.665,1908.4263,
1139.754,1900.8001,
1136.844,1865.8358,
1133.933,1866.4127,
1131.023,1860.6987,
1128.112,1847.7493,
1125.202,1859.8901,
1122.291,1860.6004,
1119.380,1797.1224,
1116.470,1835.0712,
1113.559,1821.9653,
1110.649,1779.4238,
1107.738,1780.6469,
1104.828,1797.5017,
1101.917,1780.9565,
1099.006,1753.4611,
1096.096,1787.1161,
1093.185,1744.094,
1090.275,1788.4969,
1087.364,1795.6333,
1084.453,1841.5595,
1081.543,1850.7039,
1078.632,1826.9724,
1075.722,1860.1441,
1072.811,1885.7643,
1069.901,1857.82,
1066.990,1842.0084,
1064.079,1862.568,
1061.169,1862.1517,
1058.258,1842.5863,
1055.348,1830.5138,
1052.437,1828.0265,
1049.527,1795.3276,
1046.616,1836.1626,
1043.705,1815.3148,
1040.795,1840.3137,
1037.884,1826.3828,
1034.974,1793.6327,
1032.063,1799.3805,
1029.153,1826.2427,
1026.242,1847.0016,
1023.331,1811.0857,
1020.421,1851.85,
1017.510,1882.835,
1014.600,1892.8647,
1011.689,1893.4694,
1008.778,1890.5356,
1005.868,1906.5724,
1002.957,1886.7842,
1000.047,1945.63,
997.136,1976.3852,
994.226,1996.0267,
991.315,2004.6163,
988.404,1976.4541,
985.494,1938.7116,
982.583,1936.9985,
979.673,1919.9221,
976.762,1907.879,
973.852,1909.4961,
970.941,1927.4197,
968.030,1948.9927,
965.120,1927.8932,
962.209,1961.9949,
959.299,1947.2108,
956.388,1946.0295,
953.477,1960.3816,
950.567,1983.9912,
947.656,2018.5353,
944.746,2039.7742,
941.835,2000.2593,
938.925,1993.3822,
936.014,2004.3607,
933.103,2025.7552,
930.193,2039.9595,
927.282,2007.7876,
924.372,1990.0299,
921.461,1997.3232,
918.551,1971.7033,
915.640,1945.2257,
912.729,1940.7019,
909.819,1947.9716,
906.908,1942.0746,
903.998,1952.0897,
901.087,1961.1151,
898.176,1951.8657,
895.266,1948.859,
892.355,1971.3365,
889.445,1963.7831,
886.534,2029.7049,
883.624,2036.6945,
880.713,2045.4882,
877.802,2041.8122,
874.892,1983.0476,
871.981,1843.4949,
869.071,1705.6518,
866.160,1717.6279,
863.250,1822.8645,
860.339,1931.672,
857.428,1987.8719,
854.518,2011.752,
851.607,1942.6903,
848.697,1932.1256,
845.786,1870.993,
842.875,1854.6472,
839.965,1953.5613,
837.054,2058.364,
834.144,2113.0617,
831.233,2156.4143,
828.323,2151.4834,
825.412,2123.9547,
822.501,2116.0693,
819.591,2140.0348,
816.680,2116.7115,
813.770,2120.1475,
810.859,2092.8094,
807.949,2055.2305,
805.038,2059.2611,
802.127,2038.6829,
799.217,2070.2926,
796.306,2034.6415,
793.396,2017.0479,
790.485,2049.3299,
787.574,2063.4039,
784.664,2080.6262,
781.753,2097.8407,
778.843,2138.5657,
775.932,2149.6763,
773.022,2095.6232,
770.111,2094.8056,
767.200,2123.6799,
764.290,2107.3234,
761.379,2089.5377,
758.469,2093.2612,
755.558,2102.9688,
752.648,2110.3002,
749.737,2101.3054,
746.826,2110.6691,
743.916,2106.2497,
741.005,2056.2523,
738.095,2104.9649,
735.184,2054.9753,
732.274,2013.2918,
729.363,2004.492,
726.452,2024.8197,
723.542,2041.817,
720.631,2073.3316,
717.721,2099.3625,
714.810,2114.7954,
711.899,2125.5817,
708.989,2150.5964,
706.078,2127.5122,
703.168,2121.1428,
700.257,2147.1546,
697.347,2174.7511,
694.436,2138.4663,
691.525,2128.0168,
688.615,2150.2775,
685.704,2153.9577,
682.794,2147.0052,
679.883,2170.2454,
676.973,2159.0262,
674.062,2161.8547,
671.151,2161.2434,
668.241,2161.0385,
665.330,2173.0861,
662.420,2137.9419,
659.509,2165.6712,
656.598,2192.674,
653.688,2221.7637,
650.777,2289.5601,
647.867,2313.4499,
644.956,2262.4073,
642.046,2197.4843,
639.135,2154.9596,
636.224,2155.9171,
633.314,2189.2625,
630.403,2198.3412,
627.493,2206.0474,
624.582,2205.9197,
621.672,2152.8561,
618.761,2195.5864,
615.850,2235.6464,
612.940,2269.3868,
610.029,2290.725,
607.119,2272.5635,
604.208,2279.2702,
601.297,2287.7352,
598.387,2279.2783,
595.476,2245.3786,
592.566,2241.4433,
589.655,2242.6937,
586.745,2257.637,
583.834,2270.0408,
580.923,2249.7358,
578.013,2247.3816,
575.102,2250.7651,
572.192,2272.6861,
569.281,2307.7342,
566.371,2313.2126,
563.460,2313.75,
560.549,2316.6737,
557.639,2324.047,
554.728,2337.9179,
551.818,2372.2518,
548.907,2335.2628,
545.996,2323.468,
543.086,2347.0658,
540.175,2334.6075,
537.265,2326.5072,
534.354,2339.8041,
531.444,2336.8013,
528.533,2289.9573,
525.622,2320.9952,
522.712,2334.4243,
519.801,2313.164,
516.891,2274.2541,
513.980,2286.6428,
511.070,2295.4978,
508.159,2299.2276,
505.248,2301.2522,
502.338,2305.8404,
499.427,2308.9277,
496.517,2308.053,
493.606,2324.2476,
490.695,2354.5776,
487.785,2324.5558,
484.874,2322.9811,
481.964,2299.8333,
479.053,2265.1177,
476.143,2266.6536,
473.232,2291.2097,
470.321,2288.5856,
467.411,2274.737,
464.500,2271.9827,
461.590,2281.1716,
458.679,2299.1582,
455.769,2322.4622,
452.858,2346.8635,
449.947,2357.5585,
447.037,2329.412,
444.126,2314.5561,
441.216,2320.6334,
438.305,2308.4425,
435.395,2321.8296,
432.484,2343.0861,
429.573,2348.0823,
426.663,2289.5515,
423.752,2207.3365,
420.842,2011.1698,
417.931,1790.8164,
415.020,1696.0216,
412.110,1997.8327,
409.199,2232.9772,
406.289,2338.136,
403.378,2265.5989,
400.468,2220.9952,
397.557,2206.75,
394.646,2244.7277,
391.736,2347.8949,
388.825,2352.4203,
385.915,2346.2993,
383.004,2336.3235,
380.094,2329.324,
377.183,2360.1755,
374.272,2362.7794,
371.362,2372.4664,
368.451,2407.9324,
365.541,2410.9345,
362.630,2416.1199,
359.719,2401.696,
356.809,2358.161,
353.898,2348.4266,
350.988,2383.7241,
348.077,2409.6514,
345.167,2393.7283,
342.256,2373.5574,
339.345,2382.6301,
336.435,2389.3654,
333.524,2372.844,
330.614,2375.8246,
327.703,2398.8264,
324.793,2422.5857,
321.882,2430.8059,
318.971,2453.8526,
316.061,2468.5864,
313.150,2482.9095,
310.240,2505.9151,
307.329,2560.3478,
304.418,2570.3512,
301.508,2559.5069,
298.597,2569.8728,
295.687,2606.6437,
292.776,2636.6667,
289.866,2663.4687,
286.955,2704.8373,
284.044,2750.5975,
281.134,2826.7012,
278.223,2917.1811,
275.313,2920.1285,
272.402,2950.957,
269.492,2962.9276,
266.581,2936.6526,
263.670,2865.3401,
260.760,2915.7941,
257.849,2997.944,
254.939,3047.1142,
252.028,3008.6624,
249.117,2962.6857,
246.207,2957.571,
243.296,3080.5532,
240.386,3076.7722,
237.475,3058.5295,
234.565,3040.7591,
231.654,3021.7691,
228.743,3023.5037,
225.833,3017.0786,
222.922,2991.7308,
220.012,2969.8741,
217.101,2947.0471,
214.191,2942.9894,
211.280,2983.7273,
208.369,2910.7221,
205.459,2884.1305,
202.548,2905.3907,
199.638,2938.0449,
196.727,2888.8571,
193.816,2860.694,
190.906,2887.1947,
187.995,2785.8313,
185.085,2744.6029,
182.174,2747.1524,
179.264,2781.8452,
176.353,2733.2061,
173.442,2711.0012,
170.532,2714.4252,
167.621,2634.3969,
164.711,2582.2671,
161.800,2470.9443,
158.890,2225.5172,
155.979,2072.0146,
153.068,1942.1729,
150.158,1799.1125,
147.247,1519.1111,
144.337,1243.1741,
141.426,973.97676,
138.516,713.74524,
135.605,511.81818,
132.694,361.93957,
129.784,251.07445,
126.873,155.24706,
123.963,106.15835,
121.052,73.834877,
118.141,48.848307,
115.231,43.776008,
112.320,34.124553,
109.410,23.886355,
106.499,24.59851,
103.589,20.267964,
100.678,17.564865,
97.767,19.697678,
94.857,14.899077,
91.946,15.571776,
89.036,19.75,
86.125,19.75,
83.215,21.342761,
80.304,17.243048,
77.393,0.9551397,
74.483,8.2667545,
71.572,12.025296,
68.662,10.265128,
65.751,5.31997,
62.840,4.713404,
59.930,6.1245724,
57.019,7.5347364,
54.109,8.3471608,
51.198,7.2419536,
48.288,3.7726498,
45.377,6.586162,
42.466,7.3377807,
39.556,5.94417,
36.645,1.0288384,
33.735,1.3077454,
30.824,1.6455651,
27.914,-1.8603111,
25.003,0.2405499,
22.092,-1.4790456,
19.182,-7.9754056,
16.271,0.41847594,
13.361,16.815197,
10.450,3.2602832,
7.539,-179.69834,
4.629,-610.36313,
1.718,-1048.7899,
-1.192,-1308.1277,
-4.103,-1001.5628,
-7.013,-544.80853,
-9.924,-1.25,
