,PLDA33~1,
Wavenumbers [1/cm],Intensity,
3014.167,-1.125,
3011.256,1.5250322,
3008.346,60.110197,
3005.435,51.185958,
3002.525,63.704978,
2999.614,69.538645,
2996.704,65.334797,
2993.793,62.370392,
2990.882,70.958942,
2987.972,84.774101,
2985.061,71.525255,
2982.151,73.710289,
2979.240,65.256165,
2976.329,85.891381,
2973.419,82.475258,
2970.508,87.291584,
2967.598,79.731626,
2964.687,83.083559,
2961.777,77.19111,
2958.866,99.209323,
2955.955,98.633849,
2953.045,104.05845,
2950.134,103.05575,
2947.224,101.01734,
2944.313,104.07728,
2941.403,112.30383,
2938.492,117.31132,
2935.581,120.875,
2932.671,122.79777,
2929.760,125.64806,
2926.850,137.67312,
2923.939,128.39839,
2921.028,131.51632,
2918.118,144.19238,
2915.207,125.81807,
2912.297,149.78191,
2909.386,134.8823,
2906.476,123.36378,
2903.565,135.22907,
2900.654,147.26327,
2897.744,141.78699,
2894.833,135.69973,
2891.923,128.766,
2889.012,128.07731,
2886.102,144.85473,
2883.191,130.88633,
2880.280,165.39176,
2877.370,147.06117,
2874.459,71.334274,
2871.549,75.374734,
2868.638,109.47083,
2865.727,114.03651,
2862.817,138.98996,
2859.906,138.48185,
2856.996,139.78443,
2854.085,161.63551,
2851.175,142.51659,
2848.264,139.728,
2845.353,130.15537,
2842.443,141.67709,
2839.532,127.45717,
2836.622,123.875,
2833.711,132.81536,
2830.801,140.875,
2827.890,133.2299,
2824.979,149.07292,
2822.069,141.02284,
2819.158,155.39522,
2816.248,145.92132,
2813.337,165.4933,
2810.427,147.83092,
2807.516,135.4075,
2804.605,145.53126,
2801.695,151.34867,
2798.784,154.35754,
2795.874,150.02012,
2792.963,132.44606,
2790.052,169.86513,
2787.142,144.112,
2784.231,152.35948,
2781.321,138.93786,
2778.410,142.36484,
2775.500,148.17259,
2772.589,157.64411,
2769.678,158.19581,
2766.768,154.38179,
2763.857,149.50699,
2760.947,152.875,
2758.036,164.73494,
2755.126,171.59295,
2752.215,165.59777,
2749.304,164.51349,
2746.394,149.47375,
2743.483,165.07499,
2740.573,164.21348,
2737.662,159.53477,
2734.751,162.13217,
2731.841,175.01053,
2728.930,169.81556,
2726.020,175.19618,
2723.109,164.10183,
2720.199,176.56261,
2717.288,167.40055,
2714.377,165.03762,
2711.467,181.49807,
2708.556,170.14111,
2705.646,169.10036,
2702.735,178.55542,
2699.825,185.0277,
2696.914,195.68502,
2694.003,187.38882,
2691.093,181.05311,
2688.182,184.14908,
2685.272,199.80388,
2682.361,180.21015,
2679.450,191.1219,
2676.540,178.91565,
2673.629,178.22031,
2670.719,182.50994,
2667.808,176.45863,
2664.898,196.61527,
2661.987,177.17463,
2659.076,189.06033,
2656.166,187.16506,
2653.255,180.98724,
2650.345,174.73888,
2647.434,180.01847,
2644.524,197.08361,
2641.613,197.47525,
2638.702,186.1275,
2635.792,199.8431,
2632.881,196.7918,
2629.971,200.47237,
2627.060,198.875,
2624.149,200.7125,
2621.239,219.40761,
2618.328,192.59558,
2615.418,204.22954,
2612.507,203.56271,
2609.597,200.70135,
2606.686,211.7967,
2603.775,209.95039,
2600.865,215.5167,
2597.954,209.11457,
2595.044,211.23195,
2592.133,205.875,
2589.223,219.2487,
2586.312,221.75438,
2583.401,225.48812,
2580.491,223.23076,
2577.580,209.87005,
2574.670,208.25869,
2571.759,211.875,
2568.848,218.46067,
2565.938,226.73222,
2563.027,212.94775,
2560.117,212.32361,
2557.206,213.06688,
2554.296,224.73312,
2551.385,230.18901,
2548.474,254.39396,
2545.564,238.69804,
2542.653,235.64346,
2539.743,228.94894,
2536.832,216.07874,
2533.922,238.68577,
2531.011,229.34979,
2528.100,238.54051,
2525.190,243.24672,
2522.279,259.03084,
2519.369,235.23389,
2516.458,218.20715,
2513.548,233.86567,
2510.637,248.19869,
2507.726,239.43634,
2504.816,243.43757,
2501.905,231.70122,
2498.995,227.54713,
2496.084,251.72865,
2493.173,238.58526,
2490.263,258.20047,
2487.352,245.58447,
2484.442,261.02061,
2481.531,257.29523,
2478.621,248.19725,
2475.710,279.81366,
2472.799,259.78993,
2469.889,233.53984,
2466.978,253.53471,
2464.068,267.40943,
2461.157,264.45249,
2458.247,261.75729,
2455.336,256.85348,
2452.425,256.09198,
2449.515,255.4696,
2446.604,264.40728,
2443.694,266.27058,
2440.783,276.54279,
2437.872,262.51035,
2434.962,251.03629,
2432.051,260.99256,
2429.141,271.89271,
2426.230,272.67943,
2423.320,277.38896,
2420.409,282.93284,
2417.498,286.02951,
2414.588,273.98537,
2411.677,270.3053,
2408.767,282.63386,
2405.856,287.22023,
2402.946,283.0296,
2400.035,275.37969,
2397.124,309.50604,
2394.214,290.66059,
2391.303,292.40549,
2388.393,286.59362,
2385.482,289.83094,
2382.571,261.67204,
2379.661,266.57284,
2376.750,264.18773,
2373.840,289.56243,
2370.929,304.75587,
2368.019,307.21307,
2365.108,289.89856,
2362.197,294.04215,
2359.287,297.27834,
2356.376,302.86443,
2353.466,308.08734,
2350.555,304.08497,
2347.645,306.42731,
2344.734,314.39114,
2341.823,307.02425,
2338.913,325.52719,
2336.002,302.81984,
2333.092,320.86366,
2330.181,314.62947,
2327.270,313.93001,
2324.360,331.42922,
2321.449,340.11988,
2318.539,325.91782,
2315.628,332.05965,
2312.718,320.62609,
2309.807,337.42151,
2306.896,337.3163,
2303.986,320.09583,
2301.075,326.875,
2298.165,342.83684,
2295.254,327.30586,
2292.344,337.03267,
2289.433,329.14136,
2286.522,324.70972,
2283.612,343.77552,
2280.701,367.64626,
2277.791,354.7147,
2274.880,342.10117,
2271.969,321.47994,
2269.059,337.64066,
2266.148,335.875,
2263.238,343.07191,
2260.327,350.80603,
2257.417,348.45167,
2254.506,345.49324,
2251.595,338.74051,
2248.685,348.81532,
2245.774,384.61075,
2242.864,359.03212,
2239.953,352.56455,
2237.043,363.69251,
2234.132,344.26724,
2231.221,365.16712,
2228.311,385.44329,
2225.400,368.52234,
2222.490,385.49052,
2219.579,364.61023,
2216.669,381.32015,
2213.758,378.52466,
2210.847,372.48709,
2207.937,388.22351,
2205.026,390.87412,
2202.116,413.03955,
2199.205,414.06206,
2196.294,403.76706,
2193.384,393.13801,
2190.473,412.03463,
2187.563,419.99584,
2184.652,441.86276,
2181.742,423.10205,
2178.831,426.34974,
2175.920,421.88592,
2173.010,443.05244,
2170.099,439.27678,
2167.189,449.02569,
2164.278,469.875,
2161.368,460.16189,
2158.457,454.51459,
2155.546,478.75384,
2152.636,476.48139,
2149.725,510.82799,
2146.815,508.20869,
2143.904,497.6891,
2140.993,533.03901,
2138.083,529.5802,
2135.172,527.28683,
2132.262,531.6162,
2129.351,543.73371,
2126.441,530.32155,
2123.530,537.74031,
2120.619,524.63652,
2117.709,506.06381,
2114.798,480.14812,
2111.888,479.18784,
2108.977,462.33857,
2106.067,453.84149,
2103.156,468.71203,
2100.245,456.88629,
2097.335,473.30956,
2094.424,456.36996,
2091.514,441.37771,
2088.603,439.22987,
2085.692,449.01616,
2082.782,475.71828,
2079.871,491.73264,
2076.961,477.0374,
2074.050,479.14773,
2071.140,465.19681,
2068.229,462.24871,
2065.318,454.46801,
2062.408,458.92039,
2059.497,466.09525,
2056.587,484.93294,
2053.676,468.64296,
2050.766,479.56633,
2047.855,433.30219,
2044.944,447.20994,
2042.034,451.16991,
2039.123,476.8548,
2036.213,466.47274,
2033.302,476.52686,
2030.391,477.77374,
2027.481,483.75291,
2024.570,499.83185,
2021.660,464.24017,
2018.749,500.00122,
2015.839,477.875,
2012.928,480.86326,
2010.017,493.47218,
2007.107,487.989,
2004.196,479.01788,
2001.286,491.52163,
1998.375,502.1378,
1995.465,474.19732,
1992.554,487.78658,
1989.643,467.70453,
1986.733,482.39342,
1983.822,475.99095,
1980.912,484.54792,
1978.001,474.57816,
1975.090,482.48416,
1972.180,481.28856,
1969.269,474.8175,
1966.359,458.7938,
1963.448,487.47871,
1960.538,498.25198,
1957.627,463.10098,
1954.716,455.96118,
1951.806,493.13627,
1948.895,459.23736,
1945.985,458.55147,
1943.074,474.27719,
1940.164,468.98057,
1937.253,451.58372,
1934.342,439.78944,
1931.432,472.01696,
1928.521,469.10643,
1925.611,476.10201,
1922.700,504.86947,
1919.790,482.31462,
1916.879,442.52548,
1913.968,477.82828,
1911.058,501.63775,
1908.147,463.18163,
1905.237,503.72789,
1902.326,476.19352,
1899.415,467.08108,
1896.505,447.92328,
1893.594,464.32624,
1890.684,437.82947,
1887.773,453.6583,
1884.863,499.99345,
1881.952,500.59756,
1879.041,495.60553,
1876.131,486.73121,
1873.220,492.72016,
1870.310,503.15749,
1867.399,496.00295,
1864.489,496.01824,
1861.578,475.0618,
1858.667,476.72829,
1855.757,483.64707,
1852.846,512.11091,
1849.936,501.45658,
1847.025,483.17429,
1844.114,469.93386,
1841.204,508.32954,
1838.293,527.88997,
1835.383,503.57301,
1832.472,501.54978,
1829.562,512.06901,
1826.651,513.875,
1823.740,509.50718,
1820.830,507.875,
1817.919,536.37818,
1815.009,509.48188,
1812.098,522.72538,
1809.188,545.51061,
1806.277,497.98159,
1803.366,532.89164,
1800.456,533.21551,
1797.545,525.47056,
1794.635,560.35899,
1791.724,563.6419,
1788.813,592.06754,
1785.903,564.4196,
1782.992,555.5084,
1780.082,558.22198,
1777.171,482.51683,
1774.261,417.25055,
1771.350,488.62001,
1768.439,532.11005,
1765.529,563.69729,
1762.618,594.70626,
1759.708,581.48351,
1756.797,596.68561,
1753.887,609.64322,
1750.976,587.85079,
1748.065,599.30818,
1745.155,605.76536,
1742.244,612.14491,
1739.334,590.85618,
1736.423,627.62633,
1733.512,623.86274,
1730.602,636.56749,
1727.691,633.12775,
1724.781,627.51527,
1721.870,651.82276,
1718.960,656.23054,
1716.049,639.93448,
1713.138,670.21984,
1710.228,648.89579,
1707.317,642.22129,
1704.407,698.47402,
1701.496,682.08631,
1698.586,693.73477,
1695.675,718.26772,
1692.764,678.21924,
1689.854,633.78049,
1686.943,694.68283,
1684.033,726.12991,
1681.122,748.50117,
1678.211,718.17004,
1675.301,745.78866,
1672.390,726.86603,
1669.480,724.13973,
1666.569,758.1065,
1663.659,853.2707,
1660.748,816.43152,
1657.837,794.61857,
1654.927,827.68757,
1652.016,820.11799,
1649.106,830.70735,
1646.195,864.45043,
1643.285,888.5586,
1640.374,917.10149,
1637.463,881.59558,
1634.553,922.02767,
1631.642,999.0813,
1628.732,1017.9165,
1625.821,1024.9254,
1622.911,1101.4411,
1620.000,1157.1695,
1617.089,1228.4422,
1614.179,1237.6494,
1611.268,1275.4251,
1608.358,1364.5673,
1605.447,1432.9898,
1602.536,1415.4416,
1599.626,1474.5906,
1596.715,1512.5486,
1593.805,1478.3131,
1590.894,1508.2211,
1587.984,1522.402,
1585.073,1427.7327,
1582.162,1414.2145,
1579.252,1406.692,
1576.341,1345.5963,
1573.431,1344.9721,
1570.520,1310.6561,
1567.610,1299.6201,
1564.699,1316.5507,
1561.788,1291.1852,
1558.878,1291.5303,
1555.967,1250.9678,
1553.057,1219.8578,
1550.146,1226.9368,
1547.235,1217.3459,
1544.325,1221.1444,
1541.414,1231.2548,
1538.504,1227.8198,
1535.593,1206.8853,
1532.683,1207.0883,
1529.772,1220.9564,
1526.861,1205.8634,
1523.951,1220.3929,
1521.040,1262.8927,
1518.130,1294.1067,
1515.219,1319.0742,
1512.309,1324.0911,
1509.398,1250.3712,
1506.487,1248.6779,
1503.577,1264.8463,
1500.666,1259.3227,
1497.756,1264.1718,
1494.845,1278.3141,
1491.934,1240.6986,
1489.024,1186.799,
1486.113,1208.0554,
1483.203,1166.3548,
1480.292,1193.9669,
1477.382,1175.6276,
1474.471,1128.4365,
1471.560,1137.645,
1468.650,1124.6935,
1465.739,1097.5818,
1462.829,1128.4586,
1459.918,1163.0574,
1457.008,1166.8442,
1454.097,1145.0022,
1451.186,1158.0549,
1448.276,1167.5504,
1445.365,1078.2289,
1442.455,1044.888,
1439.544,1055.2664,
1436.633,1034.8263,
1433.723,1031.4951,
1430.812,1042.0623,
1427.902,1032.9348,
1424.991,1077.4797,
1422.081,1087.1323,
1419.170,1099.9718,
1416.259,1094.5844,
1413.349,1080.0359,
1410.438,1073.0759,
1407.528,1066.0813,
1404.617,1077.5532,
1401.707,1043.8899,
1398.796,985.5219,
1395.885,978.75701,
1392.975,998.81246,
1390.064,995.10914,
1387.154,981.76223,
1384.243,949.28831,
1381.332,940.85895,
1378.422,969.92839,
1375.511,912.78475,
1372.601,973.62021,
1369.690,988.30445,
1366.780,997.79535,
1363.869,1053.6343,
1360.958,1071.2341,
1358.048,1068.0951,
1355.137,1119.9691,
1352.227,1153.6919,
1349.316,1153.9835,
1346.406,1197.7985,
1343.495,1209.7094,
1340.584,1153.3024,
1337.674,1228.9822,
1334.763,1231.2158,
1331.853,1266.4506,
1328.942,1233.1859,
1326.032,1254.9749,
1323.121,1257.9111,
1320.210,1311.4805,
1317.300,1337.6945,
1314.389,1342.5279,
1311.479,1322.9723,
1308.568,1310.9897,
1305.657,1345.7512,
1302.747,1355.2086,
1299.836,1405.4721,
1296.926,1419.3106,
1294.015,1471.712,
1291.105,1425.4452,
1288.194,1511.5292,
1285.283,1486.9028,
1282.373,1478.6328,
1279.462,1517.8155,
1276.552,1539.3002,
1273.641,1530.977,
1270.731,1522.8765,
1267.820,1516.2762,
1264.909,1532.6438,
1261.999,1501.9749,
1259.088,1504.7112,
1256.178,1492.8846,
1253.267,1454.0496,
1250.356,1454.3883,
1247.446,1472.1963,
1244.535,1444.2055,
1241.625,1401.2232,
1238.714,1398.7909,
1235.804,1411.875,
1232.893,1414.1215,
1229.982,1429.4764,
1227.072,1417.7073,
1224.161,1444.6116,
1221.251,1402.9709,
1218.340,1363.5538,
1215.430,1359.133,
1212.519,1355.0088,
1209.608,1336.9137,
1206.698,1327.109,
1203.787,1317.2418,
1200.877,1279.664,
1197.966,1340.8069,
1195.055,1329.3698,
1192.145,1402.0093,
1189.234,1456.0707,
1186.324,1498.0593,
1183.413,1524.2912,
1180.503,1568.6594,
1177.592,1624.1978,
1174.681,1551.8202,
1171.771,1524.2871,
1168.860,1542.1489,
1165.950,1515.6549,
1163.039,1490.0181,
1160.129,1484.2344,
1157.218,1489.2402,
1154.307,1505.1188,
1151.397,1528.4818,
1148.486,1541.5696,
1145.576,1572.1018,
1142.665,1531.2578,
1139.754,1531.9431,
1136.844,1532.1747,
1133.933,1533.048,
1131.023,1499.412,
1128.112,1469.0881,
1125.202,1486.7735,
1122.291,1491.9895,
1119.380,1464.9183,
1116.470,1469.3309,
1113.559,1461.3693,
1110.649,1448.3975,
1107.738,1460.0212,
1104.828,1461.9759,
1101.917,1425.8269,
1099.006,1385.8543,
1096.096,1398.9612,
1093.185,1384.0351,
1090.275,1433.859,
1087.364,1428.0358,
1084.453,1446.8733,
1081.543,1467.875,
1078.632,1474.7697,
1075.722,1493.6362,
1072.811,1508.0134,
1069.901,1481.8156,
1066.990,1469.3667,
1064.079,1455.3063,
1061.169,1438.829,
1058.258,1435.8038,
1055.348,1439.1717,
1052.437,1425.9071,
1049.527,1415.9757,
1046.616,1418.5822,
1043.705,1426.5827,
1040.795,1433.983,
1037.884,1431.3119,
1034.974,1425.5026,
1032.063,1426.3057,
1029.153,1429.6287,
1026.242,1419.2492,
1023.331,1403.0427,
1020.421,1418.6967,
1017.510,1454.8888,
1014.600,1464.1871,
1011.689,1464.5494,
1008.778,1507.1157,
1005.868,1496.9445,
1002.957,1504.6877,
1000.047,1537.907,
997.136,1559.8595,
994.226,1566.4289,
991.315,1551.8701,
988.404,1519.0643,
985.494,1514.4914,
982.583,1497.3603,
979.673,1504.3864,
976.762,1500.8298,
973.852,1491.0129,
970.941,1485.1714,
968.030,1487.3779,
965.120,1495.8141,
962.209,1481.3209,
959.299,1490.207,
956.388,1502.1545,
953.477,1514.0404,
950.567,1524.705,
947.656,1534.22,
944.746,1567.3527,
941.835,1558.3474,
938.925,1572.9843,
936.014,1573.7818,
933.103,1575.4085,
930.193,1590.2782,
927.282,1576.5295,
924.372,1514.8002,
921.461,1522.3394,
918.551,1509.8661,
915.640,1493.4755,
912.729,1493.7054,
909.819,1506.0966,
906.908,1500.1996,
903.998,1480.7863,
901.087,1498.7892,
898.176,1500.8995,
895.266,1497.7622,
892.355,1516.5609,
889.445,1514.8823,
886.534,1561.6278,
883.624,1562.1282,
880.713,1569.6132,
877.802,1565.2424,
874.892,1529.0727,
871.981,1495.028,
869.071,1332.1225,
866.160,1316.9842,
863.250,1399.9328,
860.339,1490.9955,
857.428,1530.4055,
854.518,1535.9362,
851.607,1503.4855,
848.697,1479.3039,
845.786,1447.0026,
842.875,1461.5776,
839.965,1537.9578,
837.054,1575.489,
834.144,1630.1867,
831.233,1634.2088,
828.323,1634.337,
825.412,1645.2801,
822.501,1655.811,
819.591,1627.7135,
816.680,1651.7148,
813.770,1658.5015,
810.859,1626.8369,
807.949,1592.5604,
805.038,1600.9922,
802.127,1568.8903,
799.217,1567.3658,
796.306,1539.4964,
793.396,1521.3789,
790.485,1537.404,
787.574,1578.3696,
784.664,1617.735,
781.753,1627.5589,
778.843,1647.9882,
775.932,1658.9245,
773.022,1635.7051,
770.111,1615.2656,
767.200,1624.5334,
764.290,1615.1617,
761.379,1580.6675,
758.469,1564.2665,
755.558,1647.7809,
752.648,1611.1238,
749.737,1619.5419,
746.826,1606.895,
743.916,1589.8556,
741.005,1606.7745,
738.095,1597.032,
735.184,1570.8479,
732.274,1523.5363,
729.363,1506.3503,
726.452,1544.8683,
723.542,1578.0534,
720.631,1582.9332,
717.721,1599.3418,
714.810,1626.1022,
711.899,1653.6968,
708.989,1665.8007,
706.078,1665.875,
703.168,1652.5161,
700.257,1657.0773,
697.347,1666.5282,
694.436,1633.6606,
691.525,1662.5976,
688.615,1641.2029,
685.704,1613.2193,
682.794,1607.9387,
679.883,1642.2086,
676.973,1671.8593,
674.062,1672.7703,
671.151,1650.5885,
668.241,1630.8782,
665.330,1646.5347,
662.420,1639.3461,
659.509,1662.6373,
656.598,1691.1557,
653.688,1721.8372,
650.777,1761.74,
647.867,1757.7583,
644.956,1747.5877,
642.046,1701.659,
639.135,1649.0672,
636.224,1665.058,
633.314,1701.5792,
630.403,1695.5035,
627.493,1679.882,
624.582,1666.2247,
621.672,1640.8809,
618.761,1674.0723,
615.850,1713.5264,
612.940,1734.8258,
610.029,1724.4304,
607.119,1685.7385,
604.208,1729.4459,
601.297,1744.8869,
598.387,1740.5884,
595.476,1737.9437,
592.566,1717.48,
589.655,1741.7343,
586.745,1756.0071,
583.834,1747.6287,
580.923,1721.8039,
578.013,1710.0329,
575.102,1713.1845,
572.192,1745.0286,
569.281,1789.5164,
566.371,1765.2551,
563.460,1784.7445,
560.549,1807.0315,
557.639,1810.6696,
554.728,1785.2893,
551.818,1823.5248,
548.907,1811.155,
545.996,1800.2077,
543.086,1804.5461,
540.175,1807.6606,
537.265,1800.6322,
534.354,1794.3632,
531.444,1795.0549,
528.533,1805.4887,
525.622,1800.0571,
522.712,1784.3129,
519.801,1762.273,
516.891,1747.5092,
513.980,1775.3838,
511.070,1787.7359,
508.159,1785.1891,
505.248,1791.8953,
502.338,1832.045,
499.427,1769.5267,
496.517,1777.7639,
493.606,1798.221,
490.695,1797.8794,
487.785,1776.3253,
484.874,1771.5826,
481.964,1760.9083,
479.053,1747.6104,
476.143,1750.6823,
473.232,1740.8033,
470.321,1755.3649,
467.411,1762.7185,
464.500,1727.4568,
461.590,1750.429,
458.679,1761.2774,
455.769,1763.2997,
452.858,1764.0108,
449.947,1803.7352,
447.037,1788.2113,
444.126,1789.5114,
441.216,1814.7001,
438.305,1796.4137,
435.395,1784.0405,
432.484,1778.875,
429.573,1772.8399,
426.663,1746.9951,
423.752,1670.9486,
420.842,1569.002,
417.931,1449.8917,
415.020,1323.2459,
412.110,1471.7821,
409.199,1668.2171,
406.289,1811.4313,
403.378,1800.7418,
400.468,1761.4301,
397.557,1736.5354,
394.646,1742.9212,
391.736,1791.8026,
388.825,1789.5399,
385.915,1804.8408,
383.004,1812.8786,
380.094,1797.5679,
377.183,1791.5481,
374.272,1796.9311,
371.362,1805.5239,
368.451,1810.872,
365.541,1794.3602,
362.630,1819.9182,
359.719,1845.4669,
356.809,1845.1533,
353.898,1816.6989,
350.988,1814.8424,
348.077,1819.5846,
345.167,1818.9128,
342.256,1819.6599,
339.345,1831.0351,
336.435,1823.1091,
333.524,1778.1668,
330.614,1819.1504,
327.703,1820.5801,
324.793,1832.5606,
321.882,1897.8678,
318.971,1894.894,
316.061,1897.7815,
313.150,1906.494,
310.240,1921.3364,
307.329,1966.1825,
304.418,2003.025,
301.508,2012.2873,
298.597,1961.1985,
295.687,1974.4833,
292.776,2005.3751,
289.866,2045.2823,
286.955,2085.1735,
284.044,2141.4749,
281.134,2190.5003,
278.223,2228.5096,
275.313,2260.1944,
272.402,2301.1483,
269.492,2331.8952,
266.581,2336.8873,
263.670,2225.1399,
260.760,2271.7549,
257.849,2354.3967,
254.939,2384.4859,
252.028,2408.038,
249.117,2393.12,
246.207,2367.3373,
243.296,2376.8538,
240.386,2378.528,
237.475,2383.8694,
234.565,2385.088,
231.654,2341.9954,
228.743,2325.9706,
225.833,2291.3001,
222.922,2223.875,
220.012,2223.875,
217.101,2244.4851,
214.191,2244.8932,
211.280,2175.0568,
208.369,2191.405,
205.459,2165.9425,
202.548,2117.641,
199.638,2151.0209,
196.727,2125.0307,
193.816,2114.421,
190.906,2142.6245,
187.995,2049.9493,
185.085,2048.6106,
182.174,2076.9985,
179.264,2055.3155,
176.353,2026.6031,
173.442,2017.3134,
170.532,2021.1625,
167.621,1972.1362,
164.711,1921.5597,
161.800,1843.6374,
158.890,1714.0864,
155.979,1591.474,
153.068,1441.413,
150.158,1271.8804,
147.247,1113.213,
144.337,916.71724,
141.426,722.63436,
138.516,549.86358,
135.605,400.62298,
132.694,279.26943,
129.784,182.93803,
126.873,111.42504,
123.963,77.526615,
121.052,54.659613,
118.141,33.956455,
115.231,31.032719,
112.320,22.673189,
109.410,13.284066,
106.499,15.420531,
103.589,14.194237,
100.678,11.516891,
97.767,7.9622036,
94.857,9.2609781,
91.946,11.890554,
89.036,14.197613,
86.125,9.9423809,
83.215,5.6894779,
80.304,1.1989712,
77.393,-3.7582184,
74.483,5.0468894,
71.572,7.7008873,
68.662,3.9442675,
65.751,4.6507186,
62.840,3.429894,
59.930,2.9987172,
57.019,7.2292091,
54.109,0.70906982,
51.198,-2.9185629,
48.288,-0.13066244,
45.377,-0.83404051,
42.466,-0.30056132,
39.556,0.75988142,
36.645,0.057691207,
33.735,1.4327454,
30.824,1.7705651,
27.914,-1.7353111,
25.003,-5.2381874,
22.092,-7.7708091,
19.182,-9.2165315,
16.271,-12.014492,
13.361,-48.52747,
10.450,-155.05646,
7.539,-491.64447,
4.629,-1023.1645,
1.718,-1492.3654,
-1.192,-1665.9544,
-4.103,-1212.9275,
-7.013,-630.68073,
-9.924,-0.125,
