,PL36EA~1,
Wavenumbers [1/cm],Intensity,
3014.167,0.5,
3011.256,-1.6000215,
3008.346,12.086459,
3005.435,-1.0759705,
3002.525,6.6700224,
2999.614,5.6389726,
2996.704,19.995874,
2993.793,10.366936,
2990.882,10.851175,
2987.972,16.348651,
2985.061,-5.5196942,
2982.151,8.022692,
2979.240,8.4496173,
2976.329,-3.7759364,
2973.419,16.607573,
2970.508,20.266673,
2967.598,11.069879,
2964.687,6.3206519,
2961.777,1.4400788,
2958.866,13.173101,
2955.955,13.606183,
2953.045,6.9027062,
2950.134,14.978109,
2947.224,15.756219,
2944.313,20.005698,
2941.403,23.190692,
2938.492,21.638209,
2935.581,20.908586,
2932.671,19.221039,
2929.760,17.015373,
2926.850,25.663909,
2923.939,10.18226,
2921.028,16.370728,
2918.118,17.419394,
2915.207,6.0252362,
2912.297,16.43653,
2909.386,18.295622,
2906.476,6.8258553,
2903.565,10.774819,
2900.654,9.675921,
2897.744,13.38685,
2894.833,-5.3967239,
2891.923,-13.823698,
2889.012,-12.83526,
2886.102,-24.621603,
2883.191,-38.498112,
2880.280,-87.064618,
2877.370,-259.1566,
2874.459,-379.8204,
2871.549,-242.98588,
2868.638,-84.217609,
2865.727,-56.815388,
2862.817,-33.64173,
2859.906,-22.195167,
2856.996,5.4909426,
2854.085,21.584059,
2851.175,4.0452203,
2848.264,8.1963267,
2845.353,5.8666395,
2842.443,20.503482,
2839.532,5.082165,
2836.622,2.5618481,
2833.711,12.181324,
2830.801,8.3058801,
2827.890,17.958039,
2824.979,21.635965,
2822.069,24.511372,
2819.158,23.599729,
2816.248,19.00579,
2813.337,31.664646,
2810.427,9.022039,
2807.516,10.183437,
2804.605,30.725965,
2801.695,23.618397,
2798.784,8.9435384,
2795.874,10.209756,
2792.963,11.285638,
2790.052,13.499142,
2787.142,16.737001,
2784.231,15.759339,
2781.321,16.808537,
2778.410,8.5748693,
2775.500,15.329309,
2772.589,6.4625313,
2769.678,23.820808,
2766.768,29.746606,
2763.857,15.657996,
2760.947,15.493696,
2758.036,17.041417,
2755.126,18.309829,
2752.215,20.159124,
2749.304,24.244602,
2746.394,5.3688964,
2743.483,25.699991,
2740.573,20.402624,
2737.662,22.383138,
2734.751,15.150536,
2731.841,15.175825,
2728.930,13.377146,
2726.020,15.061343,
2723.109,15.067084,
2720.199,18.068761,
2717.288,20.850368,
2714.377,31.466561,
2711.467,25.975817,
2708.556,11.670105,
2705.646,20.570436,
2702.735,26.494842,
2699.825,23.945464,
2696.914,28.119093,
2694.003,25.885365,
2691.093,25.821303,
2688.182,14.862962,
2685.272,22.942391,
2682.361,14.923581,
2679.450,25.240692,
2676.540,19.378056,
2673.629,14.49551,
2670.719,11.361364,
2667.808,22.770466,
2664.898,26.980545,
2661.987,28.900066,
2659.076,30.627156,
2656.166,25.192685,
2653.255,17.869049,
2650.345,37.180583,
2647.434,11.786083,
2644.524,17.392049,
2641.613,18.214647,
2638.702,22.531562,
2635.792,20.5,
2632.881,21.654742,
2629.971,25.989954,
2627.060,16.831254,
2624.149,32.581251,
2621.239,31.5,
2618.328,19.5,
2615.418,20.163637,
2612.507,23.361653,
2609.597,8.152694,
2606.686,15.811258,
2603.775,27.099205,
2600.865,22.970985,
2597.954,34.595828,
2595.044,29.892378,
2592.133,19.557356,
2589.223,29.524218,
2586.312,37.645738,
2583.401,30.80656,
2580.491,24.596162,
2577.580,15.486797,
2574.670,8.3302117,
2571.759,27.0154,
2568.848,24.035827,
2565.938,33.214306,
2563.027,23.547771,
2560.117,13.406546,
2557.206,17.212177,
2554.296,23.044623,
2551.385,31.376009,
2548.474,47.981788,
2545.564,43.848211,
2542.653,39.510063,
2539.743,39.129388,
2536.832,26.234578,
2533.922,42.168846,
2531.011,27.274511,
2528.100,30.771741,
2525.190,37.102047,
2522.279,42.608938,
2519.369,24.801869,
2516.458,14.936971,
2513.548,25.10883,
2510.637,44.299275,
2507.726,48.068752,
2504.816,18.248586,
2501.905,13.557927,
2498.995,26.813817,
2496.084,42.594047,
2493.173,26.526158,
2490.263,25.690966,
2487.352,42.7488,
2484.442,27.49357,
2481.531,36.712724,
2478.621,39.732225,
2475.710,49.377316,
2472.799,30.787026,
2469.889,29.771482,
2466.978,31.726859,
2464.068,18.965572,
2461.157,29.039962,
2458.247,34.220573,
2455.336,35.137968,
2452.425,21.344323,
2449.515,37.990647,
2446.604,35.154423,
2443.694,23.5,
2440.783,36.454956,
2437.872,41.5,
2434.962,34.670517,
2432.051,25.253267,
2429.141,39.770534,
2426.230,21.869014,
2423.320,44.814245,
2420.409,41.583428,
2417.498,43.671361,
2414.588,39.055183,
2411.677,28.822725,
2408.767,40.029526,
2405.856,56.411858,
2402.946,49.386508,
2400.035,33.408444,
2397.124,20.644367,
2394.214,50.041595,
2391.303,43.422767,
2388.393,34.725594,
2385.482,2.0862253,
2382.571,11.576855,
2379.661,-6.9653244,
2376.750,23.497469,
2373.840,38.559343,
2370.929,55.337554,
2368.019,41.463665,
2365.108,45.5,
2362.197,51.472629,
2359.287,53.105013,
2356.376,40.521133,
2353.466,55.561704,
2350.555,37.524929,
2347.645,33.907948,
2344.734,44.532284,
2341.823,36.682416,
2338.913,49.013417,
2336.002,43.432962,
2333.092,43.925456,
2330.181,47.062631,
2327.270,35.380085,
2324.360,38.457512,
2321.449,52.653047,
2318.539,49.649863,
2315.628,48.828135,
2312.718,48.149781,
2309.807,45.481089,
2306.896,64.941304,
2303.986,50.33124,
2301.075,55.563847,
2298.165,60.480919,
2295.254,33.146291,
2292.344,46.707428,
2289.433,51.781815,
2286.522,48.254385,
2283.612,55.429844,
2280.701,58.827346,
2277.791,51.019102,
2274.880,40.141988,
2271.969,45.20782,
2269.059,55.644422,
2266.148,45.179467,
2263.238,51.194972,
2260.327,65.189479,
2257.417,50.583887,
2254.506,61.71368,
2251.595,44.660112,
2248.685,48.17686,
2245.774,47.291333,
2242.864,64.213206,
2239.953,71.541434,
2237.043,54.486438,
2234.132,47.354527,
2231.221,54.052989,
2228.311,71.157197,
2225.400,72.640727,
2222.490,75.271938,
2219.579,65.841904,
2216.669,61.523848,
2213.758,52.58627,
2210.847,64.202752,
2207.937,75.174257,
2205.026,53.165592,
2202.116,78.30468,
2199.205,66.912471,
2196.294,64.690008,
2193.384,67.473508,
2190.473,66.068074,
2187.563,104.384,
2184.652,79.295104,
2181.742,70.136071,
2178.831,71.97474,
2175.920,76.836974,
2173.010,81.475623,
2170.099,85.366568,
2167.189,99.535878,
2164.278,102.7392,
2161.368,96.785196,
2158.457,104.11098,
2155.546,96.69711,
2152.636,83.351095,
2149.725,97.640924,
2146.815,98.600107,
2143.904,100.49629,
2140.993,91.267199,
2138.083,101.07745,
2135.172,119.5,
2132.262,103.85299,
2129.351,122.44154,
2126.441,125.31552,
2123.530,115.74693,
2120.619,132.13325,
2117.709,98.236312,
2114.798,100.60773,
2111.888,95.762928,
2108.977,102.39405,
2106.067,94.057312,
2103.156,104.33703,
2100.245,65.506273,
2097.335,78.028791,
2094.424,91.95236,
2091.514,77.85753,
2088.603,92.739572,
2085.692,100.81603,
2082.782,101.86141,
2079.871,83.963251,
2076.961,88.854221,
2074.050,112.99697,
2071.140,86.879042,
2068.229,99.057303,
2065.318,94.068761,
2062.408,104.57565,
2059.497,113.92859,
2056.587,107.8956,
2053.676,100.68338,
2050.766,127.26756,
2047.855,87.727833,
2044.944,97.628199,
2042.034,112.21099,
2039.123,111.43939,
2036.213,96.655518,
2033.302,108.32574,
2030.391,107.53444,
2027.481,99.475582,
2024.570,103.87134,
2021.660,112.96784,
2018.749,150.52449,
2015.839,100.09646,
2012.928,100.94799,
2010.017,113.79859,
2007.107,107.28877,
2004.196,102.1786,
2001.286,123.3975,
1998.375,129.71653,
1995.465,105.68839,
1992.554,96.870611,
1989.643,128.3594,
1986.733,97.981579,
1983.822,112.2836,
1980.912,139.98454,
1978.001,115.75418,
1975.090,118.5,
1972.180,116.56915,
1969.269,104.31031,
1966.359,84.175517,
1963.448,117.67835,
1960.538,125.19641,
1957.627,125.28328,
1954.716,120.64363,
1951.806,135.10258,
1948.895,124.69437,
1945.985,106.11275,
1943.074,109.62175,
1940.164,124.24065,
1937.253,132.1568,
1934.342,104.91872,
1931.432,110.50947,
1928.521,138.38429,
1925.611,133.08456,
1922.700,141.74585,
1919.790,113.63331,
1916.879,99.197495,
1913.968,113.48156,
1911.058,151.78227,
1908.147,127.10146,
1905.237,127.87502,
1902.326,135.17112,
1899.415,94.53655,
1896.505,48.674713,
1893.594,66.399449,
1890.684,93.245046,
1887.773,107.43086,
1884.863,117.60251,
1881.952,123.98747,
1879.041,146.68173,
1876.131,151.05686,
1873.220,140.91147,
1870.310,169.20398,
1867.399,141.97981,
1864.489,134.46106,
1861.578,133.5934,
1858.667,132.59283,
1855.757,125.88425,
1852.846,142.24359,
1849.936,133.05857,
1847.025,122.61679,
1844.114,142.99653,
1841.204,156.67483,
1838.293,140.50499,
1835.383,123.83751,
1832.472,127.91913,
1829.562,145.52682,
1826.651,147.44867,
1823.740,143.58812,
1820.830,147.12996,
1817.919,148.5,
1815.009,119.38805,
1812.098,148.61021,
1809.188,185.32938,
1806.277,136.65086,
1803.366,133.25046,
1800.456,119.54419,
1797.545,139.25168,
1794.635,154.30697,
1791.724,142.14074,
1788.813,158.90437,
1785.903,161.00977,
1782.992,121.08569,
1780.082,81.662391,
1777.171,-40.524656,
1774.261,-97.824301,
1771.350,-1.0909845,
1768.439,99.612695,
1765.529,167.7741,
1762.618,164.42185,
1759.708,145.3695,
1756.797,164.7803,
1753.887,200.03936,
1750.976,205.78272,
1748.065,173.62136,
1745.155,173.38375,
1742.244,178.20291,
1739.334,171.39177,
1736.423,196.34856,
1733.512,203.13413,
1730.602,213.46827,
1727.691,212.89404,
1724.781,231.16441,
1721.870,217.1856,
1718.960,242.92259,
1716.049,205.03434,
1713.138,203.33997,
1710.228,205.3703,
1707.317,233.80628,
1704.407,233.00801,
1701.496,234.3231,
1698.586,237.27195,
1695.675,274.92834,
1692.764,233.00407,
1689.854,221.88976,
1686.943,250.48823,
1684.033,259.30131,
1681.122,270.31308,
1678.211,261.58566,
1675.301,258.50925,
1672.390,274.42224,
1669.480,248.5,
1666.569,249.05862,
1663.659,292.01003,
1660.748,262.69282,
1657.837,272.78431,
1654.927,285.92172,
1652.016,302.86822,
1649.106,278.18547,
1646.195,306.21929,
1643.285,335.77344,
1640.374,345.93206,
1637.463,273.81506,
1634.553,345.899,
1631.642,372.40228,
1628.732,363.55333,
1625.821,372.51047,
1622.911,388.40984,
1620.000,427.00865,
1617.089,419.6592,
1614.179,409.78201,
1611.268,460.52957,
1608.358,454.87458,
1605.447,512.95762,
1602.536,485.74773,
1599.626,516.61758,
1596.715,541.28243,
1593.805,521.1417,
1590.894,517.61933,
1587.984,541.75058,
1585.073,484.24119,
1582.162,554.48394,
1579.252,518.12873,
1576.341,499.29043,
1573.431,511.59713,
1570.520,459.70048,
1567.610,490.93212,
1564.699,481.39893,
1561.788,456.71141,
1558.878,452.54829,
1555.967,429.05541,
1553.057,427.34472,
1550.146,424.28184,
1547.235,426.76457,
1544.325,461.34212,
1541.414,469.45851,
1538.504,447.73775,
1535.593,420.97108,
1532.683,426.8479,
1529.772,451.61881,
1526.861,430.00453,
1523.951,424.50875,
1521.040,454.78715,
1518.130,470.19521,
1515.219,513.17987,
1512.309,506.84681,
1509.398,467.41076,
1506.487,441.13781,
1503.577,445.67203,
1500.666,475.67991,
1497.756,430.64421,
1494.845,444.58004,
1491.934,446.39921,
1489.024,415.59944,
1486.113,470.13293,
1483.203,462.95382,
1480.292,462.34851,
1477.382,484.3227,
1474.471,435.01609,
1471.560,421.40266,
1468.650,400.63524,
1465.739,418.68157,
1462.829,440.46817,
1459.918,448.36744,
1457.008,446.93071,
1454.097,445.73511,
1451.186,450.33172,
1448.276,436.74123,
1445.365,403.46288,
1442.455,394.15295,
1439.544,414.72434,
1436.633,410.25671,
1433.723,393.7251,
1430.812,450.39176,
1427.902,436.5,
1424.991,436.5,
1422.081,398.88344,
1419.170,421.42181,
1416.259,400.38805,
1413.349,408.09434,
1410.438,413.89956,
1407.528,437.03096,
1404.617,443.62872,
1401.707,422.5419,
1398.796,391.92312,
1395.885,385.24812,
1392.975,404.75018,
1390.064,405.43658,
1387.154,392.70589,
1384.243,402.18886,
1381.332,374.86008,
1378.422,321.98305,
1375.511,331.35086,
1372.601,379.42166,
1369.690,388.64333,
1366.780,387.12389,
1363.869,408.29431,
1360.958,403.29567,
1358.048,408.36624,
1355.137,447.51536,
1352.227,471.38233,
1349.316,464.16703,
1346.406,463.0545,
1343.495,468.00174,
1340.584,458.28629,
1337.674,428.64727,
1334.763,495.61787,
1331.853,472.43709,
1328.942,459.93697,
1326.032,455.23752,
1323.121,461.16868,
1320.210,460.83632,
1317.300,443.56373,
1314.389,443.29188,
1311.479,447.38354,
1308.568,445.96544,
1305.657,442.60925,
1302.747,415.62046,
1299.836,459.13145,
1296.926,457.22639,
1294.015,472.85489,
1291.105,435.6367,
1288.194,507.17933,
1285.283,494.27986,
1282.373,485.29686,
1279.462,495.73514,
1276.552,504.82284,
1273.641,486.24204,
1270.731,447.97164,
1267.820,432.64461,
1264.909,406.25822,
1261.999,404.20041,
1259.088,395.99132,
1256.178,476.86336,
1253.267,454.44181,
1250.356,451.62705,
1247.446,454.32655,
1244.535,448.04912,
1241.625,420.29636,
1238.714,396.84086,
1235.804,422.96113,
1232.893,440.50308,
1229.982,426.53066,
1227.072,427.43598,
1224.161,430.86202,
1221.251,425.54393,
1218.340,387.22253,
1215.430,378.51071,
1212.519,399.72451,
1209.608,405.99498,
1206.698,388.96805,
1203.787,383.7211,
1200.877,379.7786,
1197.966,384.2744,
1195.055,390.47274,
1192.145,411.78627,
1189.234,434.07102,
1186.324,454.50115,
1183.413,450.80963,
1180.503,444.96669,
1177.592,457.04523,
1174.681,430.35615,
1171.771,483.88184,
1168.860,457.08915,
1165.950,453.69371,
1163.039,433.94472,
1160.129,416.06232,
1157.218,420.55693,
1154.307,440.29153,
1151.397,446.46167,
1148.486,428.74785,
1145.576,441.69274,
1142.665,446.1323,
1139.754,461.95895,
1136.844,478.10545,
1133.933,468.83735,
1131.023,428.75796,
1128.112,410.85492,
1125.202,442.60627,
1122.291,455.37466,
1119.380,454.30079,
1116.470,434.00264,
1113.559,422.22101,
1110.649,422.11938,
1107.738,412.24782,
1104.828,406.661,
1101.917,411.61239,
1099.006,411.95355,
1096.096,421.77989,
1093.185,393.68381,
1090.275,417.39665,
1087.364,411.14979,
1084.453,422.93639,
1081.543,435.18534,
1078.632,439.76789,
1075.722,452.5597,
1072.811,447.13485,
1069.901,427.92311,
1066.990,411.1417,
1064.079,424.51285,
1061.169,418.14017,
1058.258,414.12274,
1055.348,418.91479,
1052.437,405.5,
1049.527,405.1979,
1046.616,397.37844,
1043.705,407.29071,
1040.795,411.1385,
1037.884,416.55738,
1034.974,409.21006,
1032.063,391.59989,
1029.153,400.6691,
1026.242,393.74945,
1023.331,381.0008,
1020.421,423.8116,
1017.510,443.5,
1014.600,435.46433,
1011.689,421.07916,
1008.778,405.16944,
1005.868,362.46911,
1002.957,359.02769,
1000.047,375.24401,
997.136,421.43815,
994.226,456.63835,
991.315,458.19308,
988.404,438.58165,
985.494,423.73016,
982.583,434.00883,
979.673,428.18353,
976.762,434.30653,
973.852,440.94201,
970.941,429.64477,
968.030,401.04913,
965.120,398.7327,
962.209,454.14793,
959.299,438.71128,
956.388,439.69928,
953.477,437.81329,
950.567,440.27681,
947.656,488.04897,
944.746,469.35874,
941.835,462.83131,
938.925,455.57755,
936.014,464.63983,
933.103,473.32215,
930.193,463.70462,
927.282,447.5376,
924.372,429.77986,
921.461,451.80121,
918.551,455.85253,
915.640,444.00113,
912.729,434.64685,
909.819,444.61458,
906.908,475.7843,
903.998,463.18344,
901.087,458.22699,
898.176,441.75256,
895.266,432.11758,
892.355,446.45822,
889.445,435.54775,
886.534,453.86718,
883.624,452.11734,
880.713,456.13463,
877.802,448.60433,
874.892,403.1961,
871.981,312.70609,
869.071,109.70076,
866.160,108.99798,
863.250,247.68766,
860.339,387.42199,
857.428,445.72628,
854.518,477.29845,
851.607,366.63324,
848.697,334.43147,
845.786,262.07233,
842.875,248.38814,
839.965,356.53937,
837.054,443.7791,
834.144,468.64168,
831.233,510.16401,
828.323,499.32026,
825.412,475.6173,
822.501,492.22349,
819.591,512.88348,
816.680,492.66663,
813.770,497.52404,
810.859,491.76774,
807.949,479.9805,
805.038,483.41371,
802.127,457.89676,
799.217,468.17165,
796.306,477.04057,
793.396,481.66795,
790.485,481.3942,
787.574,474.06048,
784.664,488.8225,
781.753,496.19689,
778.843,513.69255,
775.932,531.66046,
773.022,530.79411,
770.111,494.00309,
767.200,513.57806,
764.290,508.94244,
761.379,493.41038,
758.469,486.8946,
755.558,503.64588,
752.648,508.5335,
749.737,489.91632,
746.826,484.16221,
743.916,492.8507,
741.005,503.4258,
738.095,520.47522,
735.184,455.28439,
732.274,392.21308,
729.363,371.26807,
726.452,396.54649,
723.542,407.87799,
720.631,466.60496,
717.721,479.91724,
714.810,499.72144,
711.899,534.49009,
708.989,521.57929,
706.078,551.14821,
703.168,546.35558,
700.257,538.91257,
697.347,536.02211,
694.436,523.08538,
691.525,507.81308,
688.615,505.12891,
685.704,507.65847,
682.794,515.1808,
679.883,530.78835,
676.973,537.19931,
674.062,543.60466,
671.151,551.32163,
668.241,551.5438,
665.330,531.66805,
662.420,514.09595,
659.509,511.13493,
656.598,525.78075,
653.688,549.56094,
650.777,566.41899,
647.867,564.03001,
644.956,526.351,
642.046,466.18617,
639.135,417.06335,
636.224,430.74668,
633.314,479.97087,
630.403,512.00995,
627.493,533.56556,
624.582,539.61372,
621.672,508.72594,
618.761,504.46024,
615.850,525.53951,
612.940,564.33361,
610.029,600.15976,
607.119,574.10195,
604.208,560.13979,
601.297,560.48518,
598.387,562.06041,
595.476,552.90577,
592.566,546.60922,
589.655,600.57066,
586.745,603.15998,
583.834,576.28336,
580.923,607.45735,
578.013,600.39474,
575.102,569.82058,
572.192,552.07284,
569.281,563.70219,
566.371,592.65927,
563.460,583.50704,
560.549,587.75829,
557.639,598.57425,
554.728,602.97814,
551.818,626.38762,
548.907,605.90465,
545.996,592.22153,
543.086,595.49342,
540.175,590.82155,
537.265,594.84568,
534.354,601.51691,
531.444,605.66403,
528.533,605.87283,
525.622,639.23857,
522.712,628.2974,
519.801,601.98855,
516.891,586.16874,
513.980,624.10925,
511.070,616.23044,
508.159,602.9038,
505.248,606.01812,
502.338,643.11594,
499.427,629.99479,
496.517,602.74245,
493.606,594.59476,
490.695,615.78381,
487.785,625.0213,
484.874,606.46706,
481.964,593.42361,
479.053,589.39685,
476.143,584.78908,
473.232,613.27615,
470.321,599.19803,
467.411,585.16301,
464.500,621.80184,
461.590,594.23519,
458.679,605.21002,
455.769,611.04807,
452.858,594.47674,
449.947,632.67331,
447.037,615.62282,
444.126,617.24545,
441.216,644.19279,
438.305,625.1445,
435.395,634.30146,
432.484,625.49692,
429.573,592.25236,
426.663,539.80265,
423.752,372.30395,
420.842,173.62792,
417.931,-19.223601,
415.020,-162.55328,
412.110,122.2188,
409.199,377.64409,
406.289,511.60783,
403.378,444.40779,
400.468,417.19199,
397.557,449.63197,
394.646,504.12205,
391.736,547.36922,
388.825,574.52154,
385.915,587.28974,
383.004,586.93131,
380.094,576.11423,
377.183,588.15385,
374.272,600.72727,
371.362,619.09579,
368.451,643.36022,
365.541,624.59682,
362.630,624.96241,
359.719,628.31613,
356.809,626.36087,
353.898,640.58804,
350.988,639.61762,
348.077,631.43428,
345.167,621.46216,
342.256,620.71509,
339.345,616.77997,
336.435,619.32944,
333.524,634.6879,
330.614,640.64915,
327.703,667.14345,
324.793,678.38381,
321.882,643.50901,
318.971,647.22623,
316.061,655.3364,
313.150,657.18811,
310.240,640.11944,
307.329,675.23185,
304.418,693.14763,
301.508,692.57691,
298.597,674.06649,
295.687,665.05036,
292.776,652.33328,
289.866,644.17072,
286.955,666.33248,
284.044,684.04749,
281.134,719.53101,
278.223,764.9611,
275.313,761.27682,
272.402,768.05174,
269.492,760.82589,
266.581,726.93117,
263.670,635.03364,
260.760,644.02206,
257.849,704.21574,
254.939,783.47506,
252.028,795.35767,
249.117,757.01504,
246.207,722.59992,
243.296,784.82305,
240.386,799.98889,
237.475,825.63028,
234.565,861.45558,
231.654,873.8721,
228.743,877.07537,
225.833,868.35311,
222.922,846.03913,
220.012,814.71125,
217.101,845.22941,
214.191,877.22766,
211.280,843.03691,
208.369,847.90095,
205.459,811.17572,
202.548,766.16859,
199.638,856.87473,
196.727,846.11299,
193.816,844.06647,
190.906,886.0209,
187.995,786.82954,
185.085,771.41423,
182.174,799.94357,
179.264,827.40868,
176.353,837.54857,
173.442,838.9621,
170.532,829.96362,
167.621,791.03093,
164.711,736.87788,
161.800,670.71166,
158.890,592.26135,
155.979,509.75814,
153.068,476.72885,
150.158,467.69734,
147.247,386.56873,
144.337,342.84859,
141.426,283.74511,
138.516,182.66344,
135.605,144.68699,
132.694,105.34253,
129.784,68.179538,
126.873,46.010513,
123.963,27.842317,
121.052,11.550926,
118.141,-3.4410156,
115.231,5.7374146,
112.320,9.5,
109.410,9.9090658,
106.499,12.045531,
103.589,9.1384731,
100.678,6.5,
97.767,6.5,
94.857,4.4210329,
91.946,5.9186652,
89.036,8.8226126,
86.125,4.5673809,
83.215,4.0309204,
80.304,2.5845385,
77.393,-3.080821,
74.483,1.0859447,
71.572,3.8623521,
68.662,4.1536625,
65.751,0.62140711,
62.840,0.94510595,
59.930,2.8745724,
57.019,4.2847364,
54.109,2.7085175,
51.198,1.1983907,
48.288,0.53397465,
45.377,4.7542431,
42.466,4.8511226,
39.556,2.9604743,
36.645,5.7692352,
33.735,5.4615031,
30.824,2.9537912,
27.914,-1.9544355,
25.003,1.2358249,
22.092,3.1770954,
19.182,3.6899089,
16.271,40.063396,
13.361,212.54674,
10.450,535.1468,
7.539,1148.966,
4.629,1484.5668,
1.718,1469.0384,
-1.192,880.64841,
-4.103,357.03992,
-7.013,46.218434,
-9.924,-2.5,
