,Pliquid_AuCOFNPs-citrate13new_1E-1mgmL_100uL_mix_1E-2mgL_16h_785nm_133mW_3s_1acc_0_RamanShift__1__31,
Raman shift [1/cm],Intensity,
3014.167,0.125,
3011.256,-0.57515031,
3008.346,263.34935,
3005.435,315.81758,
3002.525,336.14513,
2999.614,339.88734,
2996.704,338.44356,
2993.793,351.98272,
2990.882,367.94941,
2987.972,383.15022,
2985.061,392.11515,
2982.151,407.69308,
2979.240,421.27615,
2976.329,429.40094,
2973.419,446.75581,
2970.508,469.79153,
2967.598,467.60653,
2964.687,501.42323,
2961.777,484.38119,
2958.866,504.11609,
2955.955,516.125,
2953.045,522.34426,
2950.134,536.27368,
2947.224,577.49509,
2944.313,585.6307,
2941.403,595.76825,
2938.492,604.125,
2935.581,619.61945,
2932.671,597.68725,
2929.760,627.83657,
2926.850,656.44568,
2923.939,653.63897,
2921.028,644.07176,
2918.118,666.92601,
2915.207,675.71361,
2912.297,666.16731,
2909.386,684.73813,
2906.476,671.58289,
2903.565,665.02871,
2900.654,660.79537,
2897.744,666.11243,
2894.833,660.589,
2891.923,665.4776,
2889.012,666.04407,
2886.102,655.70879,
2883.191,640.13822,
2880.280,632.5939,
2877.370,618.49131,
2874.459,611.47101,
2871.549,656.54642,
2868.638,668.62398,
2865.727,684.73649,
2862.817,683.99534,
2859.906,691.4042,
2856.996,700.16576,
2854.085,685.84348,
2851.175,687.08274,
2848.264,698.42867,
2845.353,686.62896,
2842.443,672.11107,
2839.532,681.02054,
2836.622,656.18685,
2833.711,657.39187,
2830.801,674.70736,
2827.890,663.4799,
2824.979,673.54496,
2822.069,696.19323,
2819.158,693.76381,
2816.248,675.64237,
2813.337,693.35183,
2810.427,691.77927,
2807.516,683.91641,
2804.605,687.85576,
2801.695,690.96714,
2798.784,684.60346,
2795.874,682.54451,
2792.963,689.83926,
2790.052,674.12822,
2787.142,677.125,
2784.231,679.96351,
2781.321,686.62212,
2778.410,678.29505,
2775.500,674.82741,
2772.589,702.12348,
2769.678,691.1932,
2766.768,685.64536,
2763.857,705.38897,
2760.947,717.15652,
2758.036,707.72364,
2755.126,727.21688,
2752.215,730.80675,
2749.304,724.3804,
2746.394,710.39515,
2743.483,717.87499,
2740.573,733.43258,
2737.662,701.46523,
2734.751,730.68774,
2731.841,708.20374,
2728.930,724.22672,
2726.020,720.01273,
2723.109,740.403,
2720.199,745.63434,
2717.288,744.59945,
2714.377,735.64172,
2711.467,756.89533,
2708.556,770.38016,
2705.646,754.99818,
2702.735,740.46521,
2699.825,763.26506,
2696.914,787.41092,
2694.003,779.63882,
2691.093,783.57145,
2688.182,803.21759,
2685.272,780.04534,
2682.361,776.36627,
2679.450,779.91098,
2676.540,784.0437,
2673.629,784.43888,
2670.719,799.54829,
2667.808,779.34089,
2664.898,766.50146,
2661.987,782.92513,
2659.076,782.01509,
2656.166,790.89986,
2653.255,820.78317,
2650.345,813.54786,
2647.434,828.83892,
2644.524,824.39123,
2641.613,833.63914,
2638.702,811.44062,
2635.792,819.0612,
2632.881,833.74397,
2629.971,821.42021,
2627.060,838.12562,
2624.149,839.09687,
2621.239,837.10721,
2618.328,863.15009,
2615.418,848.09319,
2612.507,836.68241,
2609.597,843.82959,
2606.686,879.48846,
2603.775,887.04564,
2600.865,885.30246,
2597.954,878.31046,
2595.044,870.38453,
2592.133,891.4053,
2589.223,907.4987,
2586.312,890.56716,
2583.401,913.47172,
2580.491,904.23561,
2577.580,892.16626,
2574.670,920.16911,
2571.759,908.85703,
2568.848,907.11955,
2565.938,919.50593,
2563.027,917.6364,
2560.117,925.91943,
2557.206,903.57888,
2554.296,953.83438,
2551.385,931.81099,
2548.474,925.90269,
2545.564,913.47321,
2542.653,939.28272,
2539.743,948.06339,
2536.832,948.59416,
2533.922,933.66115,
2531.011,961.62547,
2528.100,952.45603,
2525.190,965.82131,
2522.279,976.70292,
2519.369,970.84182,
2516.458,993.80347,
2513.548,983.66169,
2510.637,963.00203,
2507.726,965.80903,
2504.816,977.25014,
2501.905,981.37134,
2498.995,975.96107,
2496.084,989.73824,
2493.173,1002.178,
2490.263,1000.7544,
2487.352,1004.6242,
2484.442,994.83377,
2481.531,1002.2845,
2478.621,1015.1061,
2475.710,1016.125,
2472.799,1017.3582,
2469.889,1031.7898,
2466.978,1020.7541,
2464.068,1038.9399,
2461.157,1036.97,
2458.247,1043.2134,
2455.336,1054.8275,
2452.425,1048.6674,
2449.515,1064.3038,
2446.604,1045.1826,
2443.694,1057.5905,
2440.783,1076.4606,
2437.872,1075.3803,
2434.962,1089.2172,
2432.051,1102.7854,
2429.141,1089.7192,
2426.230,1092.7339,
2423.320,1098.5391,
2420.409,1095.9137,
2417.498,1095.2795,
2414.588,1094.6802,
2411.677,1130.9816,
2408.767,1127.6309,
2405.856,1129.594,
2402.946,1140.3931,
2400.035,1127.1438,
2397.124,1134.7988,
2394.214,1141.0982,
2391.303,1151.6995,
2388.393,1155.3924,
2385.482,1148.3894,
2382.571,1150.9092,
2379.661,1164.5437,
2376.750,1170.1742,
2373.840,1188.1843,
2370.929,1180.2333,
2368.019,1201.7869,
2365.108,1201.7088,
2362.197,1188.8757,
2359.287,1200.915,
2356.376,1190.1461,
2353.466,1181.6386,
2350.555,1199.7798,
2347.645,1200.2296,
2344.734,1225.6135,
2341.823,1222.2742,
2338.913,1240.3951,
2336.002,1226.8331,
2333.092,1222.9872,
2330.181,1238.5137,
2327.270,1248.015,
2324.360,1267.8396,
2321.449,1259.9107,
2318.539,1279.7427,
2315.628,1266.9915,
2312.718,1255.592,
2309.807,1304.5102,
2306.896,1297.3848,
2303.986,1293.2938,
2301.075,1283.742,
2298.165,1260.1822,
2295.254,1283.4787,
2292.344,1270.7515,
2289.433,1295.4995,
2286.522,1316.9062,
2283.612,1307.1135,
2280.701,1324.0891,
2277.791,1313.9666,
2274.880,1332.199,
2271.969,1323.9645,
2269.059,1348.3784,
2266.148,1364.0182,
2263.238,1363.9242,
2260.327,1404.9868,
2257.417,1381.5811,
2254.506,1393.0566,
2251.595,1377.2741,
2248.685,1393.4845,
2245.774,1391.2131,
2242.864,1385.8108,
2239.953,1407.1664,
2237.043,1407.2557,
2234.132,1430.2834,
2231.221,1440.3886,
2228.311,1434.2964,
2225.400,1432.6035,
2222.490,1453.5811,
2219.579,1488.1688,
2216.669,1504.6846,
2213.758,1522.1303,
2210.847,1539.7371,
2207.937,1527.6543,
2205.026,1536.2358,
2202.116,1558.2354,
2199.205,1588.113,
2196.294,1589.927,
2193.384,1619.019,
2190.473,1628.841,
2187.563,1672.3618,
2184.652,1722.7817,
2181.742,1752.5139,
2178.831,1836.3002,
2175.920,1914.9319,
2173.010,1988.4289,
2170.099,2092.9152,
2167.189,2197.2372,
2164.278,2364.1843,
2161.368,2475.835,
2158.457,2603.6751,
2155.546,2715.5463,
2152.636,2851.3162,
2149.725,2949.2122,
2146.815,3041.3554,
2143.904,3088.835,
2140.993,3126.1619,
2138.083,3182.6204,
2135.172,3200.6712,
2132.262,3170.7157,
2129.351,3103.2626,
2126.441,3055.2026,
2123.530,2922.7893,
2120.619,2782.2819,
2117.709,2599.3082,
2114.798,2448.8899,
2111.888,2339.4646,
2108.977,2193.0388,
2106.067,2100.998,
2103.156,2023.2575,
2100.245,1936.093,
2097.335,1878.6224,
2094.424,1833.2791,
2091.514,1806.5172,
2088.603,1746.125,
2085.692,1749.0804,
2082.782,1709.4224,
2079.871,1737.3058,
2076.961,1699.4185,
2074.050,1686.3189,
2071.140,1687.3896,
2068.229,1670.9479,
2065.318,1674.311,
2062.408,1680.7536,
2059.497,1688.3572,
2056.587,1656.5675,
2053.676,1653.0075,
2050.766,1683.8156,
2047.855,1646.1852,
2044.944,1614.258,
2042.034,1620.5759,
2039.123,1642.5459,
2036.213,1640.5116,
2033.302,1645.0595,
2030.391,1627.9225,
2027.481,1660.7099,
2024.570,1675.5965,
2021.660,1633.7267,
2018.749,1639.125,
2015.839,1645.0436,
2012.928,1679.677,
2010.017,1661.9567,
2007.107,1652.4745,
2004.196,1656.1012,
2001.286,1657.542,
1998.375,1656.3415,
1995.465,1635.4598,
1992.554,1620.4839,
1989.643,1629.7448,
1986.733,1639.6803,
1983.822,1615.6767,
1980.912,1619.2037,
1978.001,1606.023,
1975.090,1614.3509,
1972.180,1596.8843,
1969.269,1608.9383,
1966.359,1624.7737,
1963.448,1628.7776,
1960.538,1617.9524,
1957.627,1617.7999,
1954.716,1622.0101,
1951.806,1612.3237,
1948.895,1612.4267,
1945.985,1593.2525,
1943.074,1620.7707,
1940.164,1619.4517,
1937.253,1595.3903,
1934.342,1595.6806,
1931.432,1607.8979,
1928.521,1566.6673,
1925.611,1576.0013,
1922.700,1563.0076,
1919.790,1631.0548,
1916.879,1568.705,
1913.968,1572.1139,
1911.058,1608.143,
1908.147,1577.6009,
1905.237,1567.2795,
1902.326,1577.6213,
1899.415,1541.7177,
1896.505,1551.125,
1893.594,1565.2074,
1890.684,1577.478,
1887.773,1582.3661,
1884.863,1591.6763,
1881.952,1614.0498,
1879.041,1625.3945,
1876.131,1586.2204,
1873.220,1568.4082,
1870.310,1567.125,
1867.399,1578.9331,
1864.489,1608.9178,
1861.578,1577.5372,
1858.667,1563.4454,
1855.757,1575.7085,
1852.846,1598.8993,
1849.936,1604.9628,
1847.025,1607.2929,
1844.114,1650.5509,
1841.204,1655.3208,
1838.293,1632.6591,
1835.383,1615.9505,
1832.472,1629.2067,
1829.562,1674.4531,
1826.651,1689.971,
1823.740,1692.2208,
1820.830,1657.0853,
1817.919,1664.0413,
1815.009,1702.3744,
1812.098,1666.8337,
1809.188,1667.7529,
1806.277,1636.8332,
1803.366,1721.1601,
1800.456,1666.9828,
1797.545,1715.0187,
1794.635,1702.577,
1791.724,1702.0278,
1788.813,1751.1237,
1785.903,1755.5668,
1782.992,1786.3441,
1780.082,1774.9404,
1777.171,1721.7883,
1774.261,1713.8701,
1771.350,1757.7425,
1768.439,1786.5895,
1765.529,1777.1297,
1762.618,1791.1818,
1759.708,1782.299,
1756.797,1796.5795,
1753.887,1807.2023,
1750.976,1814.663,
1748.065,1846.0036,
1745.155,1876.2604,
1742.244,1861.9366,
1739.334,1860.7109,
1736.423,1877.8427,
1733.512,1891.1291,
1730.602,1891.8809,
1727.691,1893.428,
1724.781,1919.2955,
1721.870,1934.1727,
1718.960,1900.769,
1716.049,1940.9466,
1713.138,1992.8748,
1710.228,1987.9408,
1707.317,1965.7799,
1704.407,2032.3016,
1701.496,2055.6213,
1698.586,2050.6571,
1695.675,2047.3179,
1692.764,2100.1414,
1689.854,2076.3376,
1686.943,2123.4387,
1684.033,2142.6779,
1681.122,2166.7172,
1678.211,2181.9822,
1675.301,2301.755,
1672.390,2291.2207,
1669.480,2323.9031,
1666.569,2420.9756,
1663.659,2487.664,
1660.748,2521.8796,
1657.837,2613.0714,
1654.927,2700.453,
1652.016,2716.3605,
1649.106,2807.5449,
1646.195,2864.5086,
1643.285,2883.543,
1640.374,3030.355,
1637.463,3042.0618,
1634.553,3094.1151,
1631.642,3161.7754,
1628.732,3313.0079,
1625.821,3461.197,
1622.911,3570.5051,
1620.000,3783.4163,
1617.089,3964.5031,
1614.179,4169.2874,
1611.268,4327.2509,
1608.358,4573.3256,
1605.447,4699.2116,
1602.536,4725.6946,
1599.626,4805.3193,
1596.715,4803.049,
1593.805,4756.5141,
1590.894,4721.1822,
1587.984,4715.3928,
1585.073,4698.1087,
1582.162,4698.4645,
1579.252,4612.3851,
1576.341,4597.1303,
1573.431,4598.125,
1570.520,4553.0268,
1567.610,4501.8695,
1564.699,4480.4246,
1561.788,4401.0694,
1558.878,4302.2142,
1555.967,4176.6499,
1553.057,4116.6424,
1550.146,4076.3251,
1547.235,4011.4408,
1544.325,3965.2901,
1541.414,3908.8403,
1538.504,3834.1312,
1535.593,3777.7008,
1532.683,3712.4013,
1529.772,3650.9127,
1526.861,3607.5597,
1523.951,3543.5072,
1521.040,3500.2736,
1518.130,3471.8572,
1515.219,3431.9655,
1512.309,3403.9853,
1509.398,3359.6061,
1506.487,3339.912,
1503.577,3364.2505,
1500.666,3302.8039,
1497.756,3314.0654,
1494.845,3287.364,
1491.934,3244.7281,
1489.024,3123.454,
1486.113,3189.5934,
1483.203,3140.9468,
1480.292,3083.2143,
1477.382,3073.3168,
1474.471,3074.6598,
1471.560,3030.8594,
1468.650,2992.2602,
1465.739,2995.5753,
1462.829,2960.751,
1459.918,2938.7549,
1457.008,2971.5407,
1454.097,2969.9334,
1451.186,2958.3339,
1448.276,2972.9973,
1445.365,2961.9133,
1442.455,2993.125,
1439.544,2969.569,
1436.633,2899.3107,
1433.723,2942.6537,
1430.812,2875.0168,
1427.902,2860.4034,
1424.991,2830.075,
1422.081,2782.3337,
1419.170,2814.4155,
1416.259,2803.9237,
1413.349,2814.4746,
1410.438,2777.1382,
1407.528,2800.3245,
1404.617,2800.8141,
1401.707,2786.1849,
1398.796,2766.3558,
1395.885,2790.2514,
1392.975,2857.4792,
1390.064,2864.8941,
1387.154,2851.4501,
1384.243,2752.0557,
1381.332,2751.6422,
1378.422,2833.7284,
1375.511,2942.395,
1372.601,3036.282,
1369.690,3140.1339,
1366.780,3119.6914,
1363.869,3221.276,
1360.958,3324.5251,
1358.048,3372.7377,
1355.137,3441.9502,
1352.227,3557.2626,
1349.316,3664.3978,
1346.406,3736.8382,
1343.495,3808.7854,
1340.584,3886.6607,
1337.674,3889.4466,
1334.763,3894.9125,
1331.853,3968.1638,
1328.942,3967.5671,
1326.032,4101.7024,
1323.121,4115.0828,
1320.210,4168.3919,
1317.300,4206.9785,
1314.389,4257.8342,
1311.479,4323.7171,
1308.568,4393.636,
1305.657,4482.9492,
1302.747,4567.5192,
1299.836,4717.1447,
1296.926,4765.0816,
1294.015,4871.7231,
1291.105,5044.3085,
1288.194,5165.3704,
1285.283,5301.8215,
1282.373,5429.6559,
1279.462,5484.7131,
1276.552,5511.0306,
1273.641,5551.4481,
1270.731,5589.2981,
1267.820,5610.7238,
1264.909,5584.2013,
1261.999,5541.0251,
1259.088,5538.2888,
1256.178,5434.4938,
1253.267,5374.1621,
1250.356,5256.8279,
1247.446,5113.8354,
1244.535,4959.9199,
1241.625,4809.5696,
1238.714,4683.0729,
1235.804,4576.4407,
1232.893,4475.5195,
1229.982,4383.752,
1227.072,4284.1676,
1224.161,4225.8543,
1221.251,4167.7319,
1218.340,4056.5445,
1215.430,4005.125,
1212.519,3974.3374,
1209.608,3934.29,
1206.698,3918.6567,
1203.787,3903.8587,
1200.877,3991.8553,
1197.966,4035.9141,
1195.055,4114.9174,
1192.145,4224.297,
1189.234,4314.5163,
1186.324,4379.9464,
1183.413,4392.6681,
1180.503,4388.976,
1177.592,4395.4982,
1174.681,4308.0428,
1171.771,4264.7856,
1168.860,4206.7348,
1165.950,4164.842,
1163.039,4117.7128,
1160.129,4086.3786,
1157.218,4020.8404,
1154.307,4000.0827,
1151.397,4030.412,
1148.486,3928.6754,
1145.576,3925.6624,
1142.665,3915.0075,
1139.754,3899.4797,
1136.844,3826.0947,
1133.933,3765.6267,
1131.023,3758.2879,
1128.112,3751.9854,
1125.202,3720.3375,
1122.291,3751.0132,
1119.380,3785.203,
1116.470,3793.1457,
1113.559,3786.3925,
1110.649,3833.2384,
1107.738,3842.5146,
1104.828,3812.3132,
1101.917,3803.4392,
1099.006,3832.1457,
1096.096,3815.9211,
1093.185,3779.923,
1090.275,3719.6668,
1087.364,3747.2924,
1084.453,3756.0006,
1081.543,3739.3606,
1078.632,3724.6777,
1075.722,3715.0563,
1072.811,3712.2061,
1069.901,3797.7857,
1066.990,3825.1416,
1064.079,3831.486,
1061.169,3863.0539,
1058.258,3905.9114,
1055.348,3934.5344,
1052.437,3956.2762,
1049.527,4013.3935,
1046.616,4020.3442,
1043.705,3999.5436,
1040.795,4043.5669,
1037.884,4090.3316,
1034.974,4109.9871,
1032.063,4114.5557,
1029.153,4118.7096,
1026.242,4115.2497,
1023.331,4119.2914,
1020.421,4141.7351,
1017.510,4193.706,
1014.600,4265.1887,
1011.689,4318.2653,
1008.778,4341.0641,
1005.868,4458.5999,
1002.957,4622.9276,
1000.047,4794.4531,
997.136,4893.1744,
994.226,4962.4936,
991.315,4999.7735,
988.404,4964.4516,
985.494,4901.6508,
982.583,4791.155,
979.673,4752.444,
976.762,4738.254,
973.852,4721.7487,
970.941,4711.4599,
968.030,4724.7262,
965.120,4728.4114,
962.209,4796.6148,
959.299,4769.1713,
956.388,4764.8842,
953.477,4777.8242,
950.567,4763.5182,
947.656,4707.4565,
944.746,4702.3592,
941.835,4768.5297,
938.925,4806.4987,
936.014,4768.554,
933.103,4728.2462,
930.193,4729.142,
927.282,4670.5586,
924.372,4623.2046,
921.461,4574.4138,
918.551,4501.0317,
915.640,4442.1273,
912.729,4396.8514,
909.819,4340.1284,
906.908,4370.4557,
903.998,4341.1058,
901.087,4392.3201,
898.176,4460.0058,
895.266,4505.3774,
892.355,4530.3498,
889.445,4568.956,
886.534,4640.0891,
883.624,4659.5077,
880.713,4696.8292,
877.802,4717.9663,
874.892,4692.3673,
871.981,4680.2631,
869.071,4686.111,
866.160,4699.5443,
863.250,4674.7212,
860.339,4651.0627,
857.428,4658.125,
854.518,4656.3437,
851.607,4594.7706,
848.697,4562.1149,
845.786,4538.6319,
842.875,4531.3682,
839.965,4545.2562,
837.054,4564.0134,
834.144,4554.0683,
831.233,4562.1243,
828.323,4543.3856,
825.412,4497.8754,
822.501,4453.7208,
819.591,4457.0264,
816.680,4389.8172,
813.770,4364.9805,
810.859,4331.2456,
807.949,4284.8249,
805.038,4255.6228,
802.127,4259.7384,
799.217,4263.852,
796.306,4226.5301,
793.396,4195.957,
790.485,4190.5451,
787.574,4177.4364,
784.664,4185.6375,
781.753,4182.4281,
778.843,4185.5159,
775.932,4184.6436,
773.022,4171.1394,
770.111,4177.68,
767.200,4227.6103,
764.290,4225.7887,
761.379,4191.8562,
758.469,4157.0323,
755.558,4148.4442,
752.648,4125.6353,
749.737,4132.8752,
746.826,4098.5638,
743.916,4015.5465,
741.005,3900.3997,
738.095,3716.9155,
735.184,3590.7263,
732.274,3557.0135,
729.363,3656.9246,
726.452,3864.6828,
723.542,4000.6609,
720.631,4049.4101,
717.721,4068.4263,
714.810,4073.5057,
711.899,4087.6696,
708.989,4145.7682,
706.078,4102.0533,
703.168,4069.265,
700.257,4062.1387,
697.347,4059.0829,
694.436,4011.9722,
691.525,4006.3456,
688.615,4009.5274,
685.704,3996.1523,
682.794,3977.9335,
679.883,3985.9356,
676.973,3959.4903,
674.062,3967.5247,
671.151,4003.6165,
668.241,4036.7895,
665.330,4026.2006,
662.420,4027.7981,
659.509,4025.5853,
656.598,4031.049,
653.688,4041.5053,
650.777,4044.3158,
647.867,3990.9619,
644.956,3975.4101,
642.046,3977.6856,
639.135,3984.125,
636.224,3984.1807,
633.314,3995.2958,
630.403,4016.4525,
627.493,4046.7924,
624.582,4073.1827,
621.672,4064.4708,
618.761,4087.6831,
615.850,4114.9606,
612.940,4147.1771,
610.029,4192.724,
607.119,4280.373,
604.208,4223.0938,
601.297,4189.1458,
598.387,4181.8384,
595.476,4181.3478,
592.566,4183.709,
589.655,4175.7024,
586.745,4155.0682,
583.834,4118.3149,
580.923,4062.215,
578.013,4077.125,
575.102,4125.8649,
572.192,4140.5462,
569.281,4116.5452,
566.371,4168.981,
563.460,4215.7476,
560.549,4237.5105,
557.639,4251.5247,
554.728,4278.948,
551.818,4307.8197,
548.907,4276.3414,
545.996,4282.0618,
543.086,4328.2862,
540.175,4324.393,
537.265,4366.8575,
534.354,4406.2028,
531.444,4426.0598,
528.533,4422.7603,
525.622,4487.9399,
522.712,4500.3047,
519.801,4537.313,
516.891,4606.6372,
513.980,4643.8034,
511.070,4741.5075,
508.159,4826.0162,
505.248,4886.892,
502.338,4924.8812,
499.427,5019.0447,
496.517,5069.0139,
493.606,5083.0776,
490.695,5083.0746,
487.785,5154.6651,
484.874,5183.573,
481.964,5171.1153,
479.053,5148.2148,
476.143,5182.0051,
473.232,5146.716,
470.321,5094.6586,
467.411,5065.2554,
464.500,5095.125,
461.590,5095.125,
458.679,5128.1427,
455.769,5161.7413,
452.858,5177.0794,
449.947,5186.2466,
447.037,5183.2709,
444.126,5170.8826,
441.216,5151.8178,
438.305,5132.7695,
435.395,5168.1519,
432.484,5212.7134,
429.573,5243.7525,
426.663,5229.3098,
423.752,5228.8224,
420.842,5215.8811,
417.931,5205.9427,
415.020,5226.4183,
412.110,5298.8231,
409.199,5389.1836,
406.289,5470.8838,
403.378,5515.8586,
400.468,5437.2352,
397.557,5434.2334,
394.646,5439.7723,
391.736,5397.1351,
388.825,5366.2116,
385.915,5362.9791,
383.004,5393.5384,
380.094,5458.5454,
377.183,5486.387,
374.272,5589.1116,
371.362,5687.079,
368.451,5732.359,
365.541,5769.1352,
362.630,5776.3938,
359.719,5800.7621,
356.809,5863.7172,
353.898,5856.978,
350.988,5870.3146,
348.077,5876.4456,
345.167,5860.0872,
342.256,5859.3401,
339.345,5888.3538,
336.435,5910.5163,
333.524,5902.135,
330.614,5934.1767,
327.703,5950.7993,
324.793,5960.2185,
321.882,5969.2638,
318.971,6026.5089,
316.061,6076.8888,
313.150,6131.5273,
310.240,6203.5126,
307.329,6280.4472,
304.418,6301.9178,
301.508,6283.6573,
298.597,6251.8194,
295.687,6299.918,
292.776,6357.4585,
289.866,6472.9402,
286.955,6799.4569,
284.044,7007.4123,
281.134,7195.1781,
278.223,7379.1601,
275.313,7543.4789,
272.402,7682.6876,
269.492,7843.3584,
266.581,8036.0586,
263.670,8161.0393,
260.760,8294.8107,
257.849,8406.7082,
254.939,8471.2899,
252.028,8527.1372,
249.117,8582.8439,
246.207,8645.9072,
243.296,8730.0915,
240.386,8654.8891,
237.475,8534.8244,
234.565,8400.666,
231.654,8315.2111,
228.743,8290.2206,
225.833,8232.3779,
222.922,8108.3539,
220.012,8027.4843,
217.101,7924.5733,
214.191,7837.4754,
211.280,7812.0142,
208.369,7794.6503,
205.459,7762.3715,
202.548,7733.2727,
199.638,7780.4399,
196.727,7709.4548,
193.816,7673.3037,
190.906,7724.2808,
187.995,7643.19,
185.085,7705.9133,
182.174,7807.5168,
179.264,7808.9623,
176.353,7756.5811,
173.442,7803.6247,
170.532,7926.28,
167.621,7824.6224,
164.711,7693.0626,
161.800,7499.8361,
158.890,7209.0662,
155.979,6729.5209,
153.068,6193.854,
150.158,5591.8474,
147.247,4843.7411,
144.337,4053.6843,
141.426,3226.2727,
138.516,2358.1174,
135.605,1693.9862,
132.694,1172.8026,
129.784,777.60702,
126.873,502.99716,
123.963,346.96866,
121.052,244.21252,
118.141,176.39183,
115.231,132.78021,
112.320,100.72138,
109.410,78.397895,
106.499,64.15479,
103.589,68.408308,
100.678,68.149323,
97.767,52.508696,
94.857,56.975923,
91.946,53.884559,
89.036,45.56051,
86.125,42.014484,
83.215,39.532239,
80.304,34.294077,
77.393,22.963358,
74.483,34.572564,
71.572,35.327366,
68.662,24.84793,
65.751,22.022126,
62.840,23.53351,
59.930,26.499572,
57.019,27.909736,
54.109,27.527839,
51.198,23.807298,
48.288,16.141987,
45.377,18.252122,
42.466,20.773877,
39.556,22.664526,
36.645,19.855765,
33.735,17.048006,
30.824,16.229435,
27.914,19.735311,
25.003,23.860825,
22.092,27.416618,
19.182,30.60554,
16.271,45.294833,
13.361,123.19431,
10.450,285.34481,
7.539,652.6587,
4.629,791.4963,
1.718,698.27552,
-1.192,261.86304,
-4.103,118.62059,
-7.013,43.275613,
-9.924,0.125,
