,PLDD2F~1,
Wavenumbers [1/cm],Intensity,
3014.167,-5.125,
3011.256,1.7749785,
3008.346,19.956623,
3005.435,-11.584361,
3002.525,10.762584,
2999.614,3.8256545,
2996.704,5.5121139,
2993.793,2.1319121,
2990.882,6.4780024,
2987.972,16.789236,
2985.061,2.0917516,
2982.151,6.636346,
2979.240,3.9900083,
2976.329,7.6154445,
2973.419,13.875,
2970.508,21.891624,
2967.598,-5.6948794,
2964.687,16.724863,
2961.777,-4.3646847,
2958.866,17.55107,
2955.955,0.32190847,
2953.045,0.54392183,
2950.134,18.087831,
2947.224,6.2450946,
2944.313,14.380698,
2941.403,10.613138,
2938.492,11.725946,
2935.581,15.213637,
2932.671,16.836386,
2929.760,27.617313,
2926.850,6.2336486,
2923.939,3.875,
2921.028,17.745728,
2918.118,19.254092,
2915.207,-2.8403724,
2912.297,15.752292,
2909.386,25.473541,
2906.476,15.200855,
2903.565,13.569078,
2900.654,5.4867281,
2897.744,7.9755777,
2894.833,4.7411856,
2891.923,-5.4486976,
2889.012,-9.9226864,
2886.102,-5.2263357,
2883.191,-55.087239,
2880.280,-39.311619,
2877.370,-186.71766,
2874.459,-290.32592,
2871.549,-172.32159,
2868.638,-63.028144,
2865.727,-36.151918,
2862.817,-20.638384,
2859.906,-24.073724,
2856.996,-4.1431148,
2854.085,18.360327,
2851.175,10.516587,
2848.264,3.2328336,
2845.353,12.918134,
2842.443,13.277785,
2839.532,10.098885,
2836.622,22.206382,
2833.711,13.926807,
2830.801,13.07647,
2827.890,13.771862,
2824.979,22.084978,
2822.069,17.000093,
2819.158,23.694403,
2816.248,22.104736,
2813.337,33.493303,
2810.427,22.044415,
2807.516,11.35719,
2804.605,23.24038,
2801.695,12.914466,
2798.784,9.875,
2795.874,4.5794724,
2792.963,8.73202,
2790.052,16.872641,
2787.142,24.625116,
2784.231,23.392098,
2781.321,10.560699,
2778.410,8.3648432,
2775.500,14.172585,
2772.589,14.02943,
2769.678,22.410838,
2766.768,17.00509,
2763.857,22.453034,
2760.947,11.856087,
2758.036,18.193528,
2755.126,23.16346,
2752.215,21.193247,
2749.304,13.662784,
2746.394,15.028235,
2743.483,21.224961,
2740.573,31.536516,
2737.662,-0.55104127,
2734.751,13.549732,
2731.841,23.794417,
2728.930,20.671566,
2726.020,22.425926,
2723.109,17.101834,
2720.199,25.287565,
2717.288,17.506388,
2714.377,25.841561,
2711.467,23.104667,
2708.556,15.875,
2705.646,18.410218,
2702.735,25.702315,
2699.825,22.809557,
2696.914,30.732279,
2694.003,34.517275,
2691.093,36.196303,
2688.182,26.001666,
2685.272,36.564905,
2682.361,11.057315,
2679.450,23.492243,
2676.540,11.118889,
2673.629,21.215816,
2670.719,17.232671,
2667.808,14.972271,
2664.898,35.212547,
2661.987,29.40809,
2659.076,25.112065,
2656.166,26.277628,
2653.255,19.837585,
2650.345,19.306942,
2647.434,19.217955,
2644.524,22.875,
2641.613,32.475253,
2638.702,24.080154,
2635.792,22.622766,
2632.881,33.523917,
2629.971,14.915184,
2627.060,15.704694,
2624.149,39.362508,
2621.239,20.851284,
2618.328,21.790226,
2615.418,21.202274,
2612.507,18.290041,
2609.597,20.324102,
2606.686,28.342861,
2603.775,18.835318,
2600.865,28.284583,
2597.954,20.018742,
2595.044,21.883857,
2592.133,11.925875,
2589.223,26.489755,
2586.312,32.508181,
2583.401,23.630467,
2580.491,33.942271,
2577.580,27.851895,
2574.670,12.214577,
2571.759,26.041941,
2568.848,25.234035,
2565.938,26.684537,
2563.027,23.045466,
2560.117,6.529177,
2557.206,30.517062,
2554.296,28.046625,
2551.385,31.941031,
2548.474,49.949352,
2545.564,47.1599,
2542.653,51.95889,
2539.743,42.084485,
2536.832,21.854438,
2533.922,44.67,
2531.011,38.199465,
2528.100,38.348817,
2525.190,37.314752,
2522.279,37.968796,
2519.369,31.72455,
2516.458,11.763102,
2513.548,32.720148,
2510.637,38.289102,
2507.726,49.882409,
2504.816,25.624717,
2501.905,36.048781,
2498.995,32.890222,
2496.084,45.80878,
2493.173,30.585264,
2490.263,49.402724,
2487.352,42.791533,
2484.442,38.88143,
2481.531,31.242048,
2478.621,39.623854,
2475.710,44.921007,
2472.799,43.475979,
2469.889,20.875,
2466.978,28.813069,
2464.068,29.001974,
2461.157,36.720029,
2458.247,33.580902,
2455.336,39.831952,
2452.425,37.417448,
2449.515,33.856293,
2446.604,35.939551,
2443.694,35.014823,
2440.783,26.300675,
2437.872,41.80207,
2434.962,37.248276,
2432.051,36.214624,
2429.141,47.857289,
2426.230,34.918059,
2423.320,49.618018,
2420.409,41.362209,
2417.498,50.841307,
2414.588,44.977722,
2411.677,31.807316,
2408.767,51.815947,
2405.856,49.539219,
2402.946,48.815127,
2400.035,40.076877,
2397.124,30.661092,
2394.214,40.118996,
2391.303,40.980015,
2388.393,30.649406,
2385.482,11.668113,
2382.571,12.191254,
2379.661,12.921619,
2376.750,20.818239,
2373.840,40.934343,
2370.929,44.853341,
2368.019,49.525869,
2365.108,49.409032,
2362.197,43.54069,
2359.287,53.034893,
2356.376,51.885566,
2353.466,68.376811,
2350.555,41.875,
2347.645,42.467052,
2344.734,42.08698,
2341.823,51.709168,
2338.913,60.743643,
2336.002,51.98743,
2333.092,51.622166,
2330.181,43.839211,
2327.270,47.544968,
2324.360,47.143865,
2321.449,48.55187,
2318.539,45.321478,
2315.628,49.849422,
2312.718,51.108479,
2309.807,61.806687,
2306.896,55.583913,
2303.986,43.79062,
2301.075,49.492019,
2298.165,62.64447,
2295.254,46.305861,
2292.344,61.609408,
2289.433,61.80545,
2286.522,51.062442,
2283.612,57.184948,
2280.701,61.202346,
2277.791,64.035299,
2274.880,63.595081,
2271.969,45.16718,
2269.059,59.866851,
2266.148,52.258975,
2263.238,52.871132,
2260.327,58.081924,
2257.417,62.535554,
2254.506,70.706921,
2251.595,65.169603,
2248.685,46.826963,
2245.774,55.490167,
2242.864,64.096957,
2239.953,55.833566,
2237.043,59.640723,
2234.132,58.685349,
2231.221,71.559783,
2228.311,64.306713,
2225.400,77.734273,
2222.490,71.946641,
2219.579,69.58452,
2216.669,70.884539,
2213.758,64.308982,
2210.847,72.353575,
2207.937,89.264232,
2205.026,70.65255,
2202.116,76.875,
2199.205,71.51288,
2196.294,64.436998,
2193.384,65.585501,
2190.473,55.579223,
2187.563,100.8605,
2184.652,96.067656,
2181.742,79.965176,
2178.831,72.030668,
2175.920,82.789391,
2173.010,94.300736,
2170.099,89.209322,
2167.189,81.953931,
2164.278,94.04887,
2161.368,104.01748,
2158.457,104.24971,
2155.546,91.07211,
2152.636,79.119708,
2149.725,111.49242,
2146.815,109.20869,
2143.904,109.07203,
2140.993,103.03901,
2138.083,110.88714,
2135.172,128.28683,
2132.262,126.98327,
2129.351,123.65088,
2126.441,123.108,
2123.530,128.95357,
2120.619,132.29717,
2117.709,109.08394,
2114.798,110.37119,
2111.888,105.62545,
2108.977,92.69619,
2106.067,88.599867,
2103.156,87.875,
2100.245,92.873745,
2097.335,91.115837,
2094.424,90.960204,
2091.514,87.73524,
2088.603,88.128476,
2085.692,78.737478,
2082.782,92.838751,
2079.871,108.0897,
2076.961,105.19789,
2074.050,93.632576,
2071.140,87.426839,
2068.229,85.045562,
2065.318,102.31975,
2062.408,103.93552,
2059.497,104.68453,
2056.587,98.654219,
2053.676,100.59132,
2050.766,106.4901,
2047.855,73.530019,
2044.944,96.9391,
2042.034,100.55704,
2039.123,94.635942,
2036.213,97.241638,
2033.302,117.67891,
2030.391,94.859329,
2027.481,101.6064,
2024.570,101.91815,
2021.660,94.229776,
2018.749,127.60907,
2015.839,117.78117,
2012.928,100.40353,
2010.017,111.14753,
2007.107,105.40769,
2004.196,92.922626,
2001.286,105.75131,
1998.375,112.875,
1995.465,101.07589,
1992.554,109.26902,
1989.643,98.324328,
1986.733,101.68114,
1983.822,69.646048,
1980.912,99.260197,
1978.001,66.772967,
1975.090,87.852105,
1972.180,92.530592,
1969.269,90.705469,
1966.359,84.442459,
1963.448,94.485309,
1960.538,108.80161,
1957.627,82.34247,
1954.716,88.587732,
1951.806,87.682725,
1948.895,67.29804,
1945.985,87.75572,
1943.074,94.742287,
1940.164,77.432772,
1937.253,80.431595,
1934.342,74.362166,
1931.432,90.193614,
1928.521,91.185879,
1925.611,95.686576,
1922.700,99.083564,
1919.790,114.37771,
1916.879,71.292724,
1913.968,74.866393,
1911.058,126.38249,
1908.147,65.266261,
1905.237,75.51467,
1902.326,55.720922,
1899.415,48.409127,
1896.505,20.917145,
1893.594,38.317149,
1890.684,70.10371,
1887.773,60.702994,
1884.863,79.490033,
1881.952,84.320125,
1879.041,82.657452,
1876.131,76.545591,
1873.220,65.286465,
1870.310,92.650733,
1867.399,94.875,
1864.489,60.264435,
1861.578,71.742988,
1858.667,86.354065,
1855.757,68.465692,
1852.846,76.362187,
1849.936,65.549679,
1847.025,50.819049,
1844.114,66.442156,
1841.204,119.24912,
1838.293,102.92323,
1835.383,85.351489,
1832.472,104.3637,
1829.562,108.31979,
1826.651,98.669671,
1823.740,100.69877,
1820.830,105.96164,
1817.919,79.186199,
1815.009,62.600193,
1812.098,67.158461,
1809.188,129.78183,
1806.277,112.3619,
1803.366,86.592184,
1800.456,71.688587,
1797.545,102.04525,
1794.635,95.81003,
1791.724,108.21481,
1788.813,101.27037,
1785.903,83.826571,
1782.992,68.241599,
1780.082,32.389152,
1777.171,-56.814,
1774.261,-106.90933,
1771.350,-17.860737,
1768.439,58.389628,
1765.529,109.15004,
1762.618,120.97624,
1759.708,101.52701,
1756.797,113.30682,
1753.887,141.95226,
1750.976,152.95091,
1748.065,144.35734,
1745.155,146.09428,
1742.244,143.26722,
1739.334,120.38795,
1736.423,140.13664,
1733.512,136.59447,
1730.602,146.58336,
1727.691,148.0367,
1724.781,149.23473,
1721.870,136.19397,
1718.960,181.3867,
1716.049,163.34986,
1713.138,164.71497,
1710.228,170.22648,
1707.317,146.99157,
1704.407,191.49005,
1701.496,181.37869,
1698.586,188.19086,
1695.675,154.25378,
1692.764,160.3955,
1689.854,158.00492,
1686.943,201.35735,
1684.033,182.39656,
1681.122,202.51816,
1678.211,198.91307,
1675.301,206.85033,
1672.390,170.80322,
1669.480,147.10764,
1666.569,176.58597,
1663.659,231.17271,
1660.748,188.85572,
1657.837,188.72792,
1654.927,227.08586,
1652.016,234.97593,
1649.106,199.21773,
1646.195,213.73815,
1643.285,249.46745,
1640.374,274.5196,
1637.463,258.23529,
1634.553,277.90456,
1631.642,280.01615,
1628.732,292.86907,
1625.821,291.86584,
1622.911,277.95389,
1620.000,336.13168,
1617.089,319.23321,
1614.179,363.57775,
1611.268,351.39549,
1608.358,409.01879,
1605.447,415.64646,
1602.536,422.39821,
1599.626,465.19191,
1596.715,470.6902,
1593.805,423.47541,
1590.894,439.01108,
1587.984,448.80374,
1585.073,409.88661,
1582.162,448.79373,
1579.252,416.95994,
1576.341,411.07925,
1573.431,411.875,
1570.520,385.1218,
1567.610,387.30653,
1564.699,381.44961,
1561.788,376.46656,
1558.878,395.67513,
1555.967,368.53844,
1553.057,349.23708,
1550.146,343.3441,
1547.235,338.10402,
1544.325,364.58606,
1541.414,354.55168,
1538.504,344.83048,
1535.593,340.42459,
1532.683,329.90046,
1529.772,339.8563,
1526.861,347.1402,
1523.951,357.91147,
1521.040,360.89269,
1518.130,380.88961,
1515.219,377.43443,
1512.309,383.00108,
1509.398,343.02325,
1506.487,347.25315,
1503.577,335.2836,
1500.666,361.7704,
1497.756,368.64616,
1494.845,365.07456,
1491.934,345.69232,
1489.024,289.86773,
1486.113,349.99844,
1483.203,327.3418,
1480.292,337.45118,
1477.382,335.02551,
1474.471,312.38839,
1471.560,279.75102,
1468.650,289.00666,
1465.739,274.81736,
1462.829,263.06863,
1459.918,304.75933,
1457.008,329.24412,
1454.097,314.40479,
1451.186,317.27152,
1448.276,312.31963,
1445.365,265.69412,
1442.455,237.60168,
1439.544,240.24014,
1436.633,257.64262,
1433.723,283.87802,
1430.812,276.21006,
1427.902,269.04759,
1424.991,318.33123,
1422.081,281.34096,
1419.170,243.31259,
1416.259,279.18822,
1413.349,273.77018,
1410.438,270.27456,
1407.528,268.94377,
1404.617,263.17797,
1401.707,237.08756,
1398.796,207.90649,
1395.885,213.58379,
1392.975,233.39573,
1390.064,242.11892,
1387.154,272.23937,
1384.243,258.5976,
1381.332,213.78439,
1378.422,172.97161,
1375.511,174.84517,
1372.601,235.69864,
1369.690,253.73334,
1366.780,232.90598,
1363.869,247.94283,
1360.958,245.97176,
1358.048,243.24825,
1355.137,283.24994,
1352.227,314.21485,
1349.316,304.82022,
1346.406,304.21918,
1343.495,314.39415,
1340.584,303.76744,
1337.674,330.6606,
1334.763,329.36899,
1331.853,342.35023,
1328.942,319.74893,
1326.032,364.181,
1323.121,345.97739,
1320.210,361.17999,
1317.300,369.74338,
1314.389,375.09738,
1311.479,388.11768,
1308.568,407.80588,
1305.657,414.01755,
1302.747,385.02831,
1299.836,440.75215,
1296.926,438.89223,
1294.015,417.74779,
1291.105,407.18904,
1288.194,425.84358,
1285.283,429.44299,
1282.373,428.875,
1279.462,438.20815,
1276.552,469.56801,
1273.641,470.68216,
1270.731,432.87351,
1267.820,444.66726,
1264.909,443.02876,
1261.999,435.5102,
1259.088,398.11324,
1256.178,460.96569,
1253.267,438.8856,
1250.356,428.19775,
1247.446,439.60954,
1244.535,440.44198,
1241.625,427.62687,
1238.714,418.00683,
1235.804,412.56433,
1232.893,412.9921,
1229.982,447.92442,
1227.072,419.85975,
1224.161,404.42694,
1221.251,418.99871,
1218.340,386.65409,
1215.430,398.35658,
1212.519,400.87875,
1209.608,367.97687,
1206.698,364.70488,
1203.787,376.80968,
1200.877,382.59937,
1197.966,394.28844,
1195.055,386.34251,
1192.145,425.44754,
1189.234,475.85616,
1186.324,473.50922,
1183.413,453.55013,
1180.503,468.40052,
1177.592,492.74351,
1174.681,463.97432,
1171.771,450.95742,
1168.860,454.52978,
1165.950,446.81211,
1163.039,453.25583,
1160.129,406.73732,
1157.218,432.92847,
1154.307,479.58169,
1151.397,447.39636,
1148.486,452.47156,
1145.576,471.83422,
1142.665,447.86057,
1139.754,486.55644,
1136.844,502.87803,
1133.933,494.14488,
1131.023,473.60051,
1128.112,462.01755,
1125.202,475.05371,
1122.291,501.49359,
1119.380,484.84902,
1116.470,482.20143,
1113.559,449.39854,
1110.649,447.73315,
1107.738,457.769,
1104.828,464.5394,
1101.917,456.22366,
1099.006,433.85431,
1096.096,446.90744,
1093.185,431.10339,
1090.275,470.33851,
1087.364,446.9411,
1084.453,425.68789,
1081.543,438.84206,
1078.632,468.76968,
1075.722,482.9347,
1072.811,478.06832,
1069.901,466.71593,
1066.990,450.5167,
1064.079,475.45658,
1061.169,481.14278,
1058.258,468.52272,
1055.348,462.81458,
1052.437,462.98749,
1049.527,428.1771,
1046.616,435.99656,
1043.705,446.12418,
1040.795,457.81406,
1037.884,456.30041,
1034.974,457.69587,
1032.063,469.20583,
1029.153,465.12135,
1026.242,475.50082,
1023.331,471.7086,
1020.421,469.4808,
1017.510,475.59831,
1014.600,482.56672,
1011.689,479.45867,
1008.778,463.38261,
1005.868,448.72828,
1002.957,432.38155,
1000.047,469.18702,
997.136,496.20884,
994.226,511.5672,
991.315,520.17946,
988.404,516.65961,
985.494,495.1627,
982.583,508.01104,
979.673,492.31548,
976.762,476.48137,
973.852,479.15722,
970.941,484.05824,
968.030,472.98491,
965.120,501.90722,
962.209,509.5801,
959.299,508.75025,
956.388,502.27536,
953.477,480.61185,
950.567,475.7432,
947.656,534.10321,
944.746,551.09433,
941.835,521.91191,
938.925,533.95846,
936.014,539.82839,
933.103,539.40594,
930.193,545.67524,
927.282,543.82094,
924.372,524.37199,
921.461,538.81221,
918.551,527.447,
915.640,505.10129,
912.729,495.63199,
909.819,509.09994,
906.908,533.53027,
903.998,522.14917,
901.087,509.96391,
898.176,511.07854,
895.266,520.09679,
892.355,521.26262,
889.445,501.95948,
886.534,530.26064,
883.624,529.14668,
880.713,528.93714,
877.802,519.71629,
874.892,472.4234,
871.981,360.34368,
869.071,210.80478,
866.160,212.47339,
863.250,348.06266,
860.339,471.68815,
857.428,498.23165,
854.518,519.26219,
851.607,463.51355,
848.697,407.10344,
845.786,346.95254,
842.875,355.96675,
839.965,451.19085,
837.054,503.52624,
834.144,561.53891,
831.233,596.87326,
828.323,569.80383,
825.412,543.39744,
822.501,574.1091,
819.591,586.50509,
816.680,575.65703,
813.770,575.38101,
810.859,558.37413,
807.949,539.73355,
805.038,550.17367,
802.127,552.64306,
799.217,548.40265,
796.306,537.79385,
793.396,542.55451,
790.485,560.03268,
787.574,557.8714,
784.664,584.11499,
781.753,574.11335,
778.843,585.00804,
775.932,599.86272,
773.022,588.59264,
770.111,573.87624,
767.200,577.44287,
764.290,582.92015,
761.379,574.05897,
758.469,560.68814,
755.558,579.36126,
752.648,595.65333,
749.737,580.5969,
746.826,581.13186,
743.916,594.55035,
741.005,598.69159,
738.095,597.06784,
735.184,566.84249,
732.274,519.11398,
729.363,488.21992,
726.452,494.09091,
723.542,511.89756,
720.631,567.92181,
717.721,583.72931,
714.810,598.10217,
711.899,622.49876,
708.989,620.88491,
706.078,627.28542,
703.168,593.04897,
700.257,570.70014,
697.347,571.22289,
694.436,569.22415,
691.525,582.08503,
688.615,580.47262,
685.704,571.3996,
682.794,575.7472,
679.883,618.45169,
676.973,631.27363,
674.062,623.0276,
671.151,596.71182,
668.241,583.7404,
665.330,623.96741,
662.420,604.79785,
659.509,612.93869,
656.598,617.71125,
653.688,620.16598,
650.777,637.57797,
647.867,628.81837,
644.956,611.39625,
642.046,569.12175,
639.135,515.32907,
636.224,487.17739,
633.314,547.51671,
630.403,587.11464,
627.493,598.49796,
624.582,589.69843,
621.672,588.90643,
618.761,590.39488,
615.850,608.50661,
612.940,633.80411,
610.029,654.875,
607.119,654.875,
604.208,658.42507,
601.297,669.34684,
598.387,665.97655,
595.476,632.83509,
592.566,621.81614,
589.655,663.93153,
586.745,670.08229,
583.834,651.70585,
580.923,668.83709,
578.013,662.55922,
575.102,614.41435,
572.192,603.81306,
569.281,652.35839,
566.371,682.88072,
563.460,685.16953,
560.549,696.56969,
557.639,712.09776,
554.728,718.55924,
551.818,681.88439,
548.907,653.15495,
545.996,651.1499,
543.086,669.04276,
540.175,669.82141,
537.265,664.80504,
534.354,675.91896,
531.444,687.76037,
528.533,685.15091,
525.622,689.03065,
522.712,674.09941,
519.801,651.27295,
516.891,639.48277,
513.980,682.06905,
511.070,677.42283,
508.159,684.85903,
505.248,694.62174,
502.338,687.44575,
499.427,672.78094,
496.517,693.76386,
493.606,709.84657,
490.695,703.55405,
487.785,701.24467,
484.874,691.18164,
481.964,673.83193,
479.053,658.16201,
476.143,663.53774,
473.232,658.83917,
470.321,671.95887,
467.411,685.59566,
464.500,678.15745,
461.590,649.82506,
458.679,660.58502,
455.769,684.38173,
452.858,702.71593,
449.947,701.18807,
447.037,690.56007,
444.126,687.94167,
441.216,694.875,
438.305,694.875,
435.395,699.46446,
432.484,683.12115,
429.573,654.38997,
426.663,643.748,
423.752,485.95572,
420.842,284.97938,
417.931,91.753588,
415.020,-31.858785,
412.110,256.52026,
409.199,486.12425,
406.289,594.44262,
403.378,534.8084,
400.468,515.15255,
397.557,534.58248,
394.646,586.07891,
391.736,660.74422,
388.825,687.89654,
385.915,680.44138,
383.004,665.44728,
380.094,662.18211,
377.183,668.20192,
374.272,666.07554,
371.362,678.18002,
368.451,713.14253,
365.541,684.62217,
362.630,691.62349,
359.719,697.65968,
356.809,682.92031,
353.898,683.66911,
350.988,708.82939,
348.077,718.83947,
345.167,691.72363,
342.256,688.73536,
339.345,702.22368,
336.435,711.82148,
333.524,703.42873,
330.614,689.27077,
327.703,706.43802,
324.793,724.55488,
321.882,717.8732,
318.971,717.12975,
316.061,729.08285,
313.150,745.10833,
310.240,755.49795,
307.329,766.59455,
304.418,768.13928,
301.508,767.63193,
298.597,777.99777,
295.687,770.07087,
292.776,753.7916,
289.866,736.71931,
286.955,735.98058,
284.044,756.11498,
281.134,807.4958,
278.223,869.70152,
275.313,834.33246,
272.402,855.33926,
269.492,863.51774,
266.581,829.04495,
263.670,719.5031,
260.760,753.17291,
257.849,822.88346,
254.939,851.50488,
252.028,834.50272,
249.117,805.03363,
246.207,802.4984,
243.296,897.66319,
240.386,950.31946,
237.475,961.34939,
234.565,937.69846,
231.654,904.8312,
228.743,920.31435,
225.833,934.74073,
222.922,928.61797,
220.012,901.66143,
217.101,905.63361,
214.191,919.53068,
211.280,921.71307,
208.369,929.27595,
205.459,904.52823,
202.548,865.51011,
199.638,886.55394,
196.727,874.74095,
193.816,880.03329,
190.906,916.97998,
187.995,834.44119,
185.085,836.61062,
182.174,865.78203,
179.264,846.99011,
176.353,855.12746,
173.442,853.62384,
170.532,836.50663,
167.621,799.0159,
164.711,779.94035,
161.800,730.09502,
158.890,607.74133,
155.979,553.26046,
153.068,515.53794,
150.158,480.53811,
147.247,408.02493,
144.337,370.12707,
141.426,309.72239,
138.516,197.17046,
135.605,137.82372,
132.694,100.31291,
129.784,76.30021,
126.873,47.695017,
123.963,35.615229,
121.052,24.076059,
118.141,6.9424107,
115.231,9.7172814,
112.320,10.451364,
109.410,10.011355,
106.499,10.72351,
103.589,5.2724552,
100.678,0.875,
97.767,0.875,
94.857,2.9539671,
91.946,8.7123305,
89.036,14.633123,
86.125,6.831865,
83.215,6.4677611,
80.304,3.325779,
77.393,-10.12945,
74.483,3.2879691,
71.572,7.2514789,
68.662,0.6671975,
65.751,-1.4521557,
62.840,-0.19819207,
59.930,0.56399662,
57.019,-4.3715773,
54.109,-3.9306783,
51.198,-3.125,
48.288,-3.1193376,
45.377,-2.4159595,
42.466,-1.3005613,
39.556,-0.0098814219,
36.645,0.69230879,
33.735,0.875,
30.824,-1.9965307,
27.914,-11.111809,
25.003,-13.370275,
22.092,-14.125,
19.182,-13.621577,
16.271,1.7672059,
13.361,24.311861,
10.450,21.394771,
7.539,-126.64809,
4.629,-517.77496,
1.718,-902.0069,
-1.192,-1077.6873,
-4.103,-878.32564,
-7.013,-511.66856,
-9.924,-0.125,
