,PLB08E~1,
Wavenumbers [1/cm],Intensity,
3014.167,2,
3011.256,-0.10002147,
3008.346,68.427459,
3005.435,52.925798,
3002.525,75.510067,
2999.614,80.762336,
2996.704,77.955671,
2993.793,75.610024,
2990.882,87.564882,
2987.972,90.984865,
2985.061,90.660102,
2982.151,84.312597,
2979.240,85.48193,
2976.329,101.26502,
2973.419,108.83132,
2970.508,101.41658,
2967.598,107.66546,
2964.687,105.77581,
2961.777,106.47004,
2958.866,124.67162,
2955.955,111.17036,
2953.045,119.55034,
2950.134,125.03208,
2947.224,115.56938,
2944.313,136.79772,
2941.403,136.39279,
2938.492,141.82925,
2935.581,146.60733,
2932.671,135.84121,
2929.760,141.46538,
2926.850,152.37293,
2923.939,142.84113,
2921.028,162.88848,
2918.118,145.1801,
2915.207,144.23416,
2912.297,168.88999,
2909.386,158.43065,
2906.476,150.03935,
2903.565,165.95185,
2900.654,163.83518,
2897.744,166.02514,
2894.833,158.10328,
2891.923,166.70521,
2889.012,171.45087,
2886.102,206.87296,
2883.191,201.01227,
2880.280,312.24883,
2877.370,363.84881,
2874.459,360.91155,
2871.549,233.32819,
2868.638,188.86392,
2865.727,169.46927,
2862.817,173.94383,
2859.906,161.50711,
2856.996,184.98189,
2854.085,190.76051,
2851.175,179.73795,
2848.264,171.93617,
2845.353,162.32351,
2842.443,171.80905,
2839.532,164,
2836.622,173.84831,
2833.711,176.15542,
2830.801,170.00735,
2827.890,173.16784,
2824.979,179.642,
2822.069,168.2047,
2819.158,183.71967,
2816.248,163.56369,
2813.337,203.23661,
2810.427,173.64738,
2807.516,176.94969,
2804.605,190.52643,
2801.695,177,
2798.784,161.25669,
2795.874,169.41951,
2792.963,170.28553,
2790.052,172.9985,
2787.142,173.30281,
2784.231,167.16307,
2781.321,182.11996,
2778.410,171.90482,
2775.500,182.89276,
2772.589,167.77063,
2769.678,184.82255,
2766.768,179.18835,
2763.857,203.5761,
2760.947,184.02522,
2758.036,193.92997,
2755.126,189.04914,
2752.215,193.5092,
2749.304,191.40469,
2746.394,201.69353,
2743.483,208,
2740.573,201.7898,
2737.662,202.22337,
2734.751,195.74283,
2731.841,205.16301,
2728.930,199.94056,
2726.020,209.77025,
2723.109,199.56708,
2720.199,215.82513,
2717.288,200.80657,
2714.377,217.0623,
2711.467,218.03296,
2708.556,203.22358,
2705.646,203.76058,
2702.735,227.50258,
2699.825,217.28359,
2696.914,228.2864,
2694.003,224.12845,
2691.093,226.7858,
2688.182,222.89037,
2685.272,230.0441,
2682.361,216.24127,
2679.450,219.78598,
2676.540,218.02032,
2673.629,216.67714,
2670.719,219.70795,
2667.808,239.22183,
2664.898,225.37646,
2661.987,234.43332,
2659.076,238.36422,
2656.166,249.91783,
2653.255,229.55612,
2650.345,239.76044,
2647.434,221.31495,
2644.524,241.36689,
2641.613,247.02891,
2638.702,248.07891,
2635.792,240.21735,
2632.881,240.02995,
2629.971,248.57728,
2627.060,243.49906,
2624.149,246.86563,
2621.239,250.2663,
2618.328,227.80536,
2615.418,245.33636,
2612.507,257.03157,
2609.597,255.00998,
2606.686,240.25906,
2603.775,258.63889,
2600.865,258.05803,
2597.954,256.43123,
2595.044,260.37466,
2592.133,244.27382,
2589.223,267.63897,
2586.312,273,
2583.401,270.30656,
2580.491,281.51919,
2577.580,264.02145,
2574.670,275.61631,
2571.759,279.15667,
2568.848,265.24299,
2565.938,272.42861,
2563.027,268.09772,
2560.117,257.28969,
2557.206,273.50553,
2554.296,290.34325,
2551.385,292.87601,
2548.474,300.33346,
2545.564,274.91801,
2542.653,306.6745,
2539.743,289.49384,
2536.832,296.79626,
2533.922,299.81077,
2531.011,294.32446,
2528.100,305.13587,
2525.190,302.37172,
2522.279,300.0469,
2519.369,292.84955,
2516.458,286.23088,
2513.548,288.71828,
2510.637,299.87703,
2507.726,298,
2504.816,295.74972,
2501.905,294,
2498.995,310.23888,
2496.084,312.16027,
2493.173,294.73642,
2490.263,311.12321,
2487.352,319.08347,
2484.442,317.86725,
2481.531,308.94682,
2478.621,318.74885,
2475.710,337.86198,
2472.799,317.28703,
2469.889,318.21054,
2466.978,322.9485,
2464.068,318.12697,
2461.157,324.26754,
2458.247,331.07369,
2455.336,332.85321,
2452.425,332.02359,
2449.515,336.85863,
2446.604,336.65442,
2443.694,333.13982,
2440.783,331.71284,
2437.872,331.6199,
2434.962,346.68664,
2432.051,337.6357,
2429.141,344.8116,
2426.230,343.45634,
2423.320,343.82821,
2420.409,349.92325,
2417.498,352.35114,
2414.588,341.92785,
2411.677,331.82474,
2408.767,355.26476,
2405.856,358.06191,
2402.946,343.99375,
2400.035,341.59625,
2397.124,372.74333,
2394.214,348.622,
2391.303,356.28726,
2388.393,358.50697,
2385.482,359.91188,
2382.571,360.94876,
2379.661,364.25612,
2376.750,351.04917,
2373.840,378.4718,
2370.929,365.19493,
2368.019,386.18168,
2365.108,369.95288,
2362.197,373.01369,
2359.287,383.77326,
2356.376,390.99296,
2353.466,412.00362,
2350.555,358.60499,
2347.645,371.02515,
2344.734,380.78802,
2341.823,394.76783,
2338.913,393.5791,
2336.002,392.93296,
2333.092,391.73583,
2330.181,365.64711,
2327.270,391.18482,
2324.360,406.32784,
2321.449,404.58504,
2318.539,407.44648,
2315.628,400.1179,
2312.718,409.48238,
2309.807,406.54651,
2306.896,413.74804,
2303.986,412.56493,
2301.075,411.38298,
2298.165,417.38473,
2295.254,405.3016,
2292.344,422.16188,
2289.433,410.695,
2286.522,429.80794,
2283.612,427.19896,
2280.701,430.52016,
2277.791,424.12022,
2274.880,426.14402,
2271.969,435.76544,
2269.059,445.94549,
2266.148,429.24541,
2263.238,435.89575,
2260.327,441.13795,
2257.417,445.37222,
2254.506,453.40456,
2251.595,448.29094,
2248.685,466.83261,
2245.774,448.86858,
2242.864,452.88027,
2239.953,476.58627,
2237.043,461.88286,
2234.132,455.34806,
2231.221,471.05435,
2228.311,465.82218,
2225.400,490.85927,
2222.490,486,
2219.579,479.84573,
2216.669,467.00477,
2213.758,469.26144,
2210.847,484.70275,
2207.937,505.26708,
2205.026,494.33236,
2202.116,517.06689,
2199.205,510.94965,
2196.294,507.32203,
2193.384,509.65752,
2190.473,512.28404,
2187.563,542.00483,
2184.652,543.15061,
2181.742,536.31723,
2178.831,532.0701,
2175.920,544.17122,
2173.010,552.32596,
2170.099,523.20386,
2167.189,551.30137,
2164.278,591.09246,
2161.368,584.2852,
2158.457,605.59068,
2155.546,618.87884,
2152.636,616.60639,
2149.725,620.99328,
2146.815,650.99893,
2143.904,650.60594,
2140.993,663.60319,
2138.083,667.75375,
2135.172,677.05038,
2132.262,668.49648,
2129.351,684.36907,
2126.441,686.46601,
2123.530,650.52753,
2120.619,687.91781,
2117.709,629.41787,
2114.798,630.43852,
2111.888,623.1132,
2108.977,599.73509,
2106.067,585.14109,
2103.156,606.63538,
2100.245,564.02258,
2097.335,597.47121,
2094.424,577.80325,
2091.514,572.21235,
2088.603,569,
2085.692,561.9071,
2082.782,583.15245,
2079.871,586.60677,
2076.961,593.4188,
2074.050,593.58182,
2071.140,600.81642,
2068.229,581.99348,
2065.318,586.938,
2062.408,582.49244,
2059.497,593.82144,
2056.587,592.48851,
2053.676,595.53293,
2050.766,603.46114,
2047.855,592.37346,
2044.944,574.05929,
2042.034,591.63003,
2039.123,585.70034,
2036.213,590.32667,
2033.302,606.67369,
2030.391,599.03444,
2027.481,609.57297,
2024.570,622.05701,
2021.660,604.18259,
2018.749,614,
2015.839,612.38583,
2012.928,604.52853,
2010.017,610.07817,
2007.107,601.90654,
2004.196,619.47626,
2001.286,634.16609,
1998.375,628.21653,
1995.465,592.38929,
1992.554,581.24707,
1989.643,600.30873,
1986.733,592.16053,
1983.822,595.14106,
1980.912,596.22774,
1978.001,601.38962,
1975.090,595.06105,
1972.180,574.8617,
1969.269,588.0575,
1966.359,589.16209,
1963.448,597.68825,
1960.538,603.62302,
1957.627,599.54179,
1954.716,568.89053,
1951.806,610.35418,
1948.895,597.61741,
1945.985,587.8513,
1943.074,561.68263,
1940.164,568.84622,
1937.253,567.11319,
1934.342,565.56417,
1931.432,590.8959,
1928.521,588.41451,
1925.611,581.44154,
1922.700,581.20856,
1919.790,574.97117,
1916.879,576.79075,
1913.968,572.00615,
1911.058,597.009,
1908.147,582.07006,
1905.237,576.59559,
1902.326,579.79111,
1899.415,577.40731,
1896.505,572.30728,
1893.594,585.81405,
1890.684,574.89555,
1887.773,574.32715,
1884.863,587,
1881.952,587,
1879.041,594.5649,
1876.131,616.54509,
1873.220,564.34048,
1870.310,581.99098,
1867.399,612.53619,
1864.489,588.81781,
1861.578,606.10462,
1858.667,576.09283,
1855.757,566.39499,
1852.846,578.28203,
1849.936,593.37238,
1847.025,586.41119,
1844.114,609.11772,
1841.204,643.51049,
1838.293,624.04158,
1835.383,602.8255,
1832.472,629.72174,
1829.562,640.25078,
1826.651,619.22179,
1823.740,606.63218,
1820.830,603.45668,
1817.919,625.80254,
1815.009,628.4313,
1812.098,644.15747,
1809.188,700.40297,
1806.277,637.50497,
1803.366,644.95009,
1800.456,641.39547,
1797.545,635.5175,
1794.635,676.64595,
1791.724,652.51458,
1788.813,653.61106,
1785.903,684.24809,
1782.992,693.46057,
1780.082,745.67349,
1777.171,699.98338,
1774.261,655.88536,
1771.350,682.251,
1768.439,684.36301,
1765.529,701.54631,
1762.618,709.89876,
1759.708,690.52151,
1756.797,700.73485,
1753.887,716.15306,
1750.976,718.79319,
1748.065,723.31336,
1745.155,715.89036,
1742.244,724.91846,
1739.334,724.83765,
1736.423,721.29346,
1733.512,748.65048,
1730.602,752.26785,
1727.691,740.02041,
1724.781,777.11541,
1721.870,783.97617,
1718.960,796.15571,
1716.049,769.63589,
1713.138,787.08489,
1710.228,794.48119,
1707.317,779.96229,
1704.407,801.35833,
1701.496,804,
1698.586,811.39188,
1695.675,845.68551,
1692.764,824.33195,
1689.854,770.38186,
1686.943,802.78588,
1684.033,825.4536,
1681.122,887.92948,
1678.211,823.62815,
1675.301,878.82733,
1672.390,840.02094,
1669.480,847.16846,
1666.569,869.10454,
1663.659,953.98739,
1660.748,894.29188,
1657.837,959.93439,
1654.927,957.32801,
1652.016,971.77757,
1649.106,1002.951,
1646.195,1001.7433,
1643.285,1032.6836,
1640.374,1061.331,
1637.463,1030.7926,
1634.553,1075.0936,
1631.642,1148.0977,
1628.732,1157.2785,
1625.821,1204.0105,
1622.911,1219.9098,
1620.000,1276.2819,
1617.089,1318.1642,
1614.179,1396.7439,
1611.268,1450.9924,
1608.358,1518.7692,
1605.447,1621.9437,
1602.536,1575.8143,
1599.626,1652.9541,
1596.715,1651.8316,
1593.805,1655.4717,
1590.894,1692.1075,
1587.984,1695.2678,
1585.073,1601.4102,
1582.162,1610.8815,
1579.252,1557.0823,
1576.341,1504.7479,
1573.431,1464.4562,
1570.520,1439.9481,
1567.610,1474.4908,
1564.699,1464.074,
1561.788,1448.662,
1558.878,1424.8343,
1555.967,1386.5914,
1553.057,1361.7932,
1550.146,1350.4691,
1547.235,1341.6871,
1544.325,1351.5728,
1541.414,1346.3383,
1538.504,1349.9555,
1535.593,1363.5654,
1532.683,1352.7309,
1529.772,1356.7998,
1526.861,1369.3674,
1523.951,1372.1816,
1521.040,1382.4357,
1518.130,1380.0214,
1515.219,1411.8399,
1512.309,1407.3108,
1509.398,1395.8078,
1506.487,1414.0559,
1503.577,1356.1434,
1500.666,1387.6789,
1497.756,1398.1013,
1494.845,1362.5598,
1491.934,1351.8331,
1489.024,1300.8209,
1486.113,1324.0348,
1483.203,1312.6775,
1480.292,1282.9991,
1477.382,1326.4949,
1474.471,1272.7728,
1471.560,1258.0797,
1468.650,1225.153,
1465.739,1203.8761,
1462.829,1243.374,
1459.918,1286.9173,
1457.008,1280.2151,
1454.097,1257.8406,
1451.186,1267.1393,
1448.276,1248.9962,
1445.365,1164.7109,
1442.455,1127.2798,
1439.544,1136.2243,
1436.633,1135.427,
1433.723,1133.8573,
1430.812,1169.8282,
1427.902,1105.7441,
1424.991,1137.0203,
1422.081,1154.5146,
1419.170,1111.9329,
1416.259,1137.4025,
1413.349,1175.2096,
1410.438,1181.5011,
1407.528,1154.8941,
1404.617,1135.1287,
1401.707,1080.6557,
1398.796,1039.3042,
1395.885,1068.6301,
1392.975,1098.2706,
1390.064,1077.465,
1387.154,1049.2892,
1384.243,1029.1734,
1381.332,1055.66,
1378.422,1068.1305,
1375.511,1051.2685,
1372.601,1042.7059,
1369.690,1082.2895,
1366.780,1083.4558,
1363.869,1145.93,
1360.958,1167.3591,
1358.048,1177.8662,
1355.137,1219.6438,
1352.227,1276.5361,
1349.316,1334.4404,
1346.406,1366.74,
1343.495,1340.2735,
1340.584,1334.9989,
1337.674,1405.2864,
1334.763,1417.235,
1331.853,1449.6881,
1328.942,1380.7323,
1326.032,1448.6683,
1323.121,1430.4337,
1320.210,1488.5876,
1317.300,1525.7707,
1314.389,1537.278,
1311.479,1538.6991,
1308.568,1563.5599,
1305.657,1623.3476,
1302.747,1625.1205,
1299.836,1676.6168,
1296.926,1731.5555,
1294.015,1743.5067,
1291.105,1742.2389,
1288.194,1757.1761,
1285.283,1776.7521,
1282.373,1805.1484,
1279.462,1828.4312,
1276.552,1846.7559,
1273.641,1868.2494,
1270.731,1895.8791,
1267.820,1924.0774,
1264.909,1926.5599,
1261.999,1885.1026,
1259.088,1833.1117,
1256.178,1830,
1253.267,1825.3968,
1250.356,1811.8094,
1247.446,1788.3982,
1244.535,1757.6652,
1241.625,1755.5518,
1238.714,1773.7728,
1235.804,1763.932,
1232.893,1775.5039,
1229.982,1757.8467,
1227.072,1753.3201,
1224.161,1774.0126,
1221.251,1710.9942,
1218.340,1697.7172,
1215.430,1712.9096,
1212.519,1689.7596,
1209.608,1653.7719,
1206.698,1666.447,
1203.787,1689.4824,
1200.877,1664.8886,
1197.966,1663.0902,
1195.055,1686.891,
1192.145,1732.3239,
1189.234,1798.5522,
1186.324,1854.8209,
1183.413,1880.2081,
1180.503,1903.5726,
1177.592,1927.2724,
1174.681,1876.6883,
1171.771,1908.3818,
1168.860,1881.5892,
1165.950,1891.9006,
1163.039,1882.4287,
1160.129,1848.687,
1157.218,1854.9597,
1154.307,1880.0318,
1151.397,1878.9102,
1148.486,1894.196,
1145.576,1917.0363,
1142.665,1894.8385,
1139.754,1919.8497,
1136.844,1880.4803,
1133.933,1885.0468,
1131.023,1880.2836,
1128.112,1862.0705,
1125.202,1869.1353,
1122.291,1857.2507,
1119.380,1858.8961,
1116.470,1848.3057,
1113.559,1822.256,
1110.649,1793.3901,
1107.738,1795.9313,
1104.828,1801.3424,
1101.917,1794.6628,
1099.006,1803.103,
1096.096,1812.785,
1093.185,1809.273,
1090.275,1814.6649,
1087.364,1824.2335,
1084.453,1863.9977,
1081.543,1882.7974,
1078.632,1874.1339,
1075.722,1887.206,
1072.811,1911.8902,
1069.901,1882.1994,
1066.990,1854.9417,
1064.079,1864.6518,
1061.169,1862.0586,
1058.258,1854.847,
1055.348,1861.5852,
1052.437,1872.3762,
1049.527,1858.228,
1046.616,1838.2449,
1043.705,1856.8107,
1040.795,1855.3379,
1037.884,1865.6664,
1034.974,1871.0619,
1032.063,1854.8077,
1029.153,1851.3116,
1026.242,1853.9065,
1023.331,1839.8342,
1020.421,1895.5565,
1017.510,1918.1986,
1014.600,1921.4981,
1011.689,1929.2851,
1008.778,1935.5712,
1005.868,1968.2008,
1002.957,1990.57,
1000.047,2020.208,
997.136,2048.2071,
994.226,2063.2307,
991.315,2046.8193,
988.404,1998.7846,
985.494,1976.3287,
982.583,1946.3492,
979.673,1945.6582,
976.762,1947,
973.852,1945.232,
970.941,1943.5928,
968.030,1943.7977,
965.120,1937.2291,
962.209,1991.7918,
959.299,2010.9155,
956.388,1998.761,
953.477,1984.3559,
950.567,1998.7311,
947.656,2045.5544,
944.746,2042.1561,
941.835,2025.8037,
938.925,2056.8767,
936.014,2063.366,
933.103,2057.2964,
930.193,2069.5968,
927.282,2077.8461,
924.372,2038.1025,
921.461,2052.8828,
918.551,2015.2681,
915.640,1987.2494,
912.729,1992.1949,
909.819,1990.556,
906.908,1994.7681,
903.998,1995,
901.087,1973.9953,
898.176,1982.5194,
895.266,2005.6348,
892.355,2009.0418,
889.445,2019.9523,
886.534,2057.5692,
883.624,2058.2717,
880.713,2084.6006,
877.802,2117.8635,
874.892,2128.8385,
871.981,2133.37,
869.071,1979.6541,
866.160,1974.3887,
863.250,1990.2904,
860.339,2001.0116,
857.428,2020.9046,
854.518,2066.8796,
851.607,2062.7193,
848.697,2052.3706,
845.786,2039.1776,
842.875,2042.5351,
839.965,2071.1847,
837.054,2104.5675,
834.144,2155.1214,
831.233,2159.0004,
828.323,2148.0869,
825.412,2158.0299,
822.501,2197.7873,
819.591,2207.7041,
816.680,2161.5256,
813.770,2145.6145,
810.859,2123.5966,
807.949,2100.8268,
805.038,2102.2035,
802.127,2095.6185,
799.217,2089.7823,
796.306,2056.7835,
793.396,2054.8018,
790.485,2084.3672,
787.574,2068.3078,
784.664,2102.7525,
781.753,2143.8912,
778.843,2162.9603,
775.932,2154.815,
773.022,2139.8615,
770.111,2190.5513,
767.200,2163.5475,
764.290,2145.9097,
761.379,2145.908,
758.469,2151.4425,
755.558,2139.3372,
752.648,2184.1404,
749.737,2161.0133,
746.826,2143.5338,
743.916,2148.3053,
741.005,2168.5111,
738.095,2226.1543,
735.184,2260.1723,
732.274,2223.6692,
729.363,2145.6958,
726.452,2080.093,
723.542,2102.756,
720.631,2133.0525,
717.721,2144.8642,
714.810,2155.3749,
711.899,2175.7723,
708.989,2204.8216,
706.078,2188.1726,
703.168,2162.14,
700.257,2173.1669,
697.347,2196.3926,
694.436,2151,
691.525,2151,
688.615,2143.4531,
685.704,2145.9071,
682.794,2169.0424,
679.883,2214.7117,
676.973,2208.3007,
674.062,2221.6759,
671.151,2216.8501,
668.241,2207.3857,
665.330,2230.9244,
662.420,2229.3269,
659.509,2185.1898,
656.598,2205.006,
653.688,2271.3614,
650.777,2296.9451,
647.867,2324.8166,
644.956,2304.9957,
642.046,2274.9037,
639.135,2258.773,
636.224,2273.0637,
633.314,2285.7667,
630.403,2270.0813,
627.493,2263.9133,
624.582,2276.9423,
621.672,2285.6542,
618.761,2263.2018,
615.850,2274.1826,
612.940,2314.9566,
610.029,2364.3424,
607.119,2360.3942,
604.208,2344.3797,
601.297,2333.0148,
598.387,2315.9614,
595.476,2287.1885,
592.566,2299.7816,
589.655,2352.5354,
586.745,2355.6978,
583.834,2330.1484,
580.923,2351.9242,
578.013,2339.3684,
575.102,2325.1018,
572.192,2338.4371,
569.281,2378.5466,
566.371,2387.1555,
563.460,2377.418,
560.549,2376.8982,
557.639,2392.0111,
554.728,2422.9854,
551.818,2438.5917,
548.907,2419.4517,
545.996,2411.2206,
543.086,2410.431,
540.175,2361.3763,
537.265,2382.6255,
534.354,2398.522,
531.444,2394.1323,
528.533,2366.3311,
525.622,2370.9868,
522.712,2362.2919,
519.801,2351.7993,
516.891,2342.3394,
513.980,2329.1764,
511.070,2360.4,
508.159,2364.4487,
505.248,2364.2649,
502.338,2395.1807,
499.427,2401.3554,
496.517,2384.899,
493.606,2395.5639,
490.695,2438.0089,
487.785,2394.9006,
484.874,2389.9387,
481.964,2363.1764,
479.053,2327.6772,
476.143,2343.0364,
473.232,2308.0298,
470.321,2309.5704,
467.411,2327.7728,
464.500,2333.3879,
461.590,2348.7027,
458.679,2370.0591,
455.769,2369.507,
452.858,2342.454,
449.947,2385.2341,
447.037,2381.8648,
444.126,2375.8485,
441.216,2381.9103,
438.305,2398.6728,
435.395,2376.0858,
432.484,2379.2533,
429.573,2400.225,
426.663,2392.6236,
423.752,2410.1329,
420.842,2391.5122,
417.931,2327.2487,
415.020,2211.9783,
412.110,2339.6904,
409.199,2452.5476,
406.289,2502.7814,
403.378,2450.0564,
400.468,2466.6882,
397.557,2438.0661,
394.646,2415.1578,
391.736,2440.4588,
388.825,2454.7891,
385.915,2459,
383.004,2459,
380.094,2458.3474,
377.183,2445.5553,
374.272,2443.6283,
371.362,2451.1809,
368.451,2465.4985,
365.541,2457.2426,
362.630,2435.3353,
359.719,2431.7266,
356.809,2459.8705,
353.898,2424.677,
350.988,2449.1767,
348.077,2468.7069,
345.167,2444.0322,
342.256,2405.1847,
339.345,2407.2858,
336.435,2421.4983,
333.524,2428.8925,
330.614,2457.2085,
327.703,2480.3753,
324.793,2491.6799,
321.882,2485.0559,
318.971,2508.1026,
316.061,2510.6285,
313.150,2520.9357,
310.240,2572.1417,
307.329,2577.5732,
304.418,2607.7251,
301.508,2648.3016,
298.597,2671.9949,
295.687,2702.4441,
292.776,2757.2502,
289.866,2811.1077,
286.955,2792.6396,
284.044,2870.3274,
281.134,2925.8869,
278.223,2937.4432,
275.313,2913.127,
272.402,2967.2521,
269.492,3015.0696,
266.581,3023.0572,
263.670,2981.8871,
260.760,3025.895,
257.849,3078.5398,
254.939,3082.9431,
252.028,3124.2592,
249.117,3102.997,
246.207,3059.1894,
243.296,3059.9214,
240.386,3062.612,
237.475,3054.0111,
234.565,3037.3098,
231.654,3032.9275,
228.743,3055.0147,
225.833,3040.2908,
222.922,2967.8301,
220.012,2964.1874,
217.101,2976.2493,
214.191,2981.2576,
211.280,2952.1591,
208.369,2890.7924,
205.459,2867.5895,
202.548,2876.8774,
199.638,2881.957,
196.727,2870.8995,
193.816,2877.0511,
190.906,2908.851,
187.995,2819.072,
185.085,2824.4099,
182.174,2852.4635,
179.264,2806.2064,
176.353,2800.3592,
173.442,2789.4858,
170.532,2761.9272,
167.621,2684.0619,
164.711,2629.8892,
161.800,2537.5758,
158.890,2354.765,
155.979,2212.4812,
153.068,2010.1412,
150.158,1761.5692,
147.247,1523.927,
144.337,1264.6735,
141.426,998.20333,
138.516,730.086,
135.605,525.23641,
132.694,368.25616,
129.784,250.85752,
126.873,162.89655,
123.963,111.42486,
121.052,74.101853,
118.141,44.117969,
115.231,41.868289,
112.320,35.069097,
109.410,27.409066,
106.499,29.545531,
103.589,26.078219,
100.678,20.555405,
97.767,14.156966,
94.857,11.921033,
91.946,17.046663,
89.036,24.306531,
86.125,13.668452,
83.215,13.123681,
80.304,13.323971,
77.393,8.3667816,
74.483,13.896215,
71.572,13.738831,
68.662,7.9307325,
65.751,7.2242814,
62.840,8.9268079,
59.930,10.063569,
57.019,6.5381591,
54.109,6,
51.198,6.3016093,
48.288,6.9943376,
45.377,6.2909595,
42.466,1.4655873,
39.556,-4.6546443,
36.645,-2.5480736,
33.735,4.2309816,
30.824,7.5702433,
27.914,-0.1426844,
25.003,-3.4905499,
22.092,-4.0312863,
19.182,-2,
16.271,-2,
13.361,-18.858319,
10.450,-79.739584,
7.539,-299.01061,
4.629,-762.34776,
1.718,-1198.1648,
-1.192,-1378.0281,
-4.103,-1020.5989,
-7.013,-539.68668,
-9.924,-1,
