,Pliquid_AuCOFNPs-citrate13new_1E-1mgmL_100uL_mix_1E-4mgL_16h_785nm_133mW_3s_1acc_3_RamanShift__2__46,
Raman shift [1/cm],Intensity,
3014.167,0.125,
3011.256,-1.9750215,
3008.346,75.542787,
3005.435,77.549029,
3002.525,91.635067,
2999.614,77.828927,
2996.704,89.310569,
2993.793,84.001152,
2990.882,85.949412,
2987.972,104.99888,
2985.061,91.208758,
2982.151,105.125,
2979.240,88.873086,
2976.329,105.13592,
2973.419,113.27904,
2970.508,107.59165,
2967.598,114.22058,
2964.687,120.90081,
2961.777,109.81714,
2958.866,113.79068,
2955.955,115.88385,
2953.045,147.43817,
2950.134,131.22123,
2947.224,123.12141,
2944.313,144.09152,
2941.403,148.11359,
2938.492,148.2849,
2935.581,143.44773,
2932.671,157.15928,
2929.760,137.74809,
2926.850,130.01335,
2923.939,145.84462,
2921.028,156.37215,
2918.118,159.5847,
2915.207,163.01115,
2912.297,157.16731,
2909.386,170.09581,
2906.476,160.54354,
2903.565,161.51316,
2900.654,153.30092,
2897.744,153.33873,
2894.833,164.35191,
2891.923,152.8814,
2889.012,170.5065,
2886.102,147.31284,
2883.191,142.12878,
2880.280,142.49341,
2877.370,111.07273,
2874.459,105.23206,
2871.549,138.74354,
2868.638,143.26108,
2865.727,161.78269,
2862.817,178.61162,
2859.906,151.74607,
2856.996,172.62274,
2854.085,182.80779,
2851.175,168.7184,
2848.264,160.40933,
2845.353,173.75836,
2842.443,164.71177,
2839.532,171.46831,
2836.622,171.51823,
2833.711,169.17681,
2830.801,169.22574,
2827.890,173.31206,
2824.979,185.2489,
2822.069,170.18186,
2819.158,177.78538,
2816.248,178.38947,
2813.337,180.89817,
2810.427,180.55888,
2807.516,179.59984,
2804.605,187.75962,
2801.695,186.76972,
2798.784,167.23385,
2795.874,169.39939,
2792.963,185.26798,
2790.052,181.1265,
2787.142,174.73015,
2784.231,170.22126,
2781.321,167.00504,
2778.410,176.39024,
2775.500,171.125,
2772.589,187.20146,
2769.678,183.83829,
2766.768,183.25509,
2763.857,181.02288,
2760.947,195.5525,
2758.036,179.88931,
2755.126,178.11219,
2752.215,197.23391,
2749.304,194.59261,
2746.394,196.51206,
2743.483,193.72506,
2740.573,197.0941,
2737.662,198.45488,
2734.751,193.89202,
2731.841,204.61218,
2728.930,194.43015,
2726.020,195.13542,
2723.109,189.82625,
2720.199,190.77186,
2717.288,201.28194,
2714.377,206.38336,
2711.467,202.89533,
2708.556,206.47616,
2705.646,200.58978,
2702.735,207.80026,
2699.825,207.32133,
2696.914,208.6491,
2694.003,220.99655,
2691.093,208.07086,
2688.182,194.65241,
2685.272,221.13354,
2682.361,206.0071,
2679.450,207.50776,
2676.540,214.90144,
2673.629,205.45235,
2670.719,211.97898,
2667.808,218.88182,
2664.898,220.268,
2661.987,222.3252,
2659.076,220.52371,
2656.166,221.35014,
2653.255,219.8631,
2650.345,236.53335,
2647.434,229.35335,
2644.524,218.80844,
2641.613,221.98232,
2638.702,211.34593,
2635.792,230.34533,
2632.881,222.1666,
2629.971,235.59486,
2627.060,239.79187,
2624.149,232.15313,
2621.239,233.3913,
2618.328,245.87068,
2615.418,242.11591,
2612.507,235.57563,
2609.597,239.11502,
2606.686,250.2033,
2603.775,248.20834,
2600.865,241.54133,
2597.954,238.75408,
2595.044,269.80348,
2592.133,262.8447,
2589.223,240.51025,
2586.312,255.09989,
2583.401,246.08484,
2580.491,239.67308,
2577.580,242.1382,
2574.670,249.57153,
2571.759,248.67551,
2568.848,245.00896,
2565.938,263.17269,
2563.027,252.29547,
2560.117,249.76052,
2557.206,278.15083,
2554.296,266.8115,
2551.385,265.30695,
2548.474,266.86589,
2545.564,262.37824,
2542.653,250.98741,
2539.743,263.17429,
2536.832,269.69697,
2533.922,281.95154,
2531.011,269.75012,
2528.100,263.99259,
2525.190,260.54385,
2522.279,294.24908,
2519.369,259.74742,
2516.458,276.46423,
2513.548,270.98881,
2510.637,256.78503,
2507.726,279.93912,
2504.816,273.99986,
2501.905,273.93659,
2498.995,262.00556,
2496.084,265.33757,
2493.173,276.0197,
2490.263,288.6866,
2487.352,279.83447,
2484.442,298.40337,
2481.531,298.3325,
2478.621,293.89278,
2475.710,295.14034,
2472.799,300.33124,
2469.889,308.6707,
2466.978,294.85707,
2464.068,277.67522,
2461.157,300.125,
2458.247,296.7132,
2455.336,305.97433,
2452.425,289.05422,
2449.515,305.07716,
2446.604,288.46362,
2443.694,306.47367,
2440.783,309.60248,
2437.872,305.16146,
2434.962,309.53974,
2432.051,324.4893,
2429.141,317.3134,
2426.230,318.66866,
2423.320,323.56844,
2420.409,310.47094,
2417.498,321.3469,
2414.588,330.83976,
2411.677,323.19672,
2408.767,329.67815,
2405.856,334.68219,
2402.946,327.86316,
2400.035,310.2447,
2397.124,323.02339,
2394.214,331.4226,
2391.303,333.05318,
2388.393,330.63197,
2385.482,323.43343,
2382.571,328.94766,
2379.661,334.61335,
2376.750,351.59535,
2373.840,345.6532,
2370.929,348.04919,
2368.019,347.125,
2365.108,348.70615,
2362.197,350.52774,
2359.287,350.125,
2356.376,327.1655,
2353.466,364.44532,
2350.555,342.60534,
2347.645,357.71705,
2344.734,365.21718,
2341.823,363.19133,
2338.913,346.5459,
2336.002,358.68715,
2333.092,362.49292,
2330.181,362.65184,
2327.270,357.51004,
2324.360,360.14149,
2321.449,377.00256,
2318.539,382.57148,
2315.628,368.26848,
2312.718,361.35848,
2309.807,381.89536,
2306.896,366.8887,
2303.986,371.25486,
2301.075,383.0824,
2298.165,391.92309,
2295.254,366.68512,
2292.344,382.59802,
2289.433,389.15591,
2286.522,397.63839,
2283.612,402.26531,
2280.701,406.72141,
2277.791,409.40365,
2274.880,391.05502,
2271.969,390.60648,
2269.059,396.125,
2266.148,412.17508,
2263.238,401.93196,
2260.327,401.02167,
2257.417,414.07389,
2254.506,417.93412,
2251.595,409.4196,
2248.685,408.01729,
2245.774,410.125,
2242.864,405.28212,
2239.953,398.35939,
2237.043,419.63178,
2234.132,412.46012,
2231.221,424.15353,
2228.311,410.50905,
2225.400,434.125,
2222.490,435.4247,
2219.579,431.89359,
2216.669,425.57015,
2213.758,456.69365,
2210.847,454.22829,
2207.937,462.63639,
2205.026,453.45794,
2202.116,463.60058,
2199.205,461.30006,
2196.294,466.86898,
2193.384,452.94147,
2190.473,482.0182,
2187.563,497.14917,
2184.652,501.82378,
2181.742,508.69424,
2178.831,534.84098,
2175.920,552.61681,
2173.010,565.2004,
2170.099,606.98712,
2167.189,611.26133,
2164.278,636.87475,
2161.368,678.69612,
2158.457,703.76459,
2155.546,745.94234,
2152.636,773.06113,
2149.725,791.60821,
2146.815,811.52436,
2143.904,885.90941,
2140.993,857.90266,
2138.083,891.21922,
2135.172,884.69637,
2132.262,899.28257,
2129.351,890.46969,
2126.441,862.80455,
2123.530,825.93419,
2120.619,803.75825,
2117.709,761.95069,
2114.798,719.70171,
2111.888,674.77563,
2108.977,649.04552,
2106.067,604.96449,
2103.156,590.48549,
2100.245,594.10493,
2097.335,560.92081,
2094.424,547.81671,
2091.514,531.26476,
2088.603,530.39687,
2085.692,526.84996,
2082.782,508.40219,
2079.871,518.73293,
2076.961,499.67487,
2074.050,501.65833,
2071.140,509.55049,
2068.229,501.02343,
2065.318,522.54551,
2062.408,520.36707,
2059.497,507.73215,
2056.587,497.35776,
2053.676,504.37425,
2050.766,490.51065,
2047.855,486.97937,
2044.944,516.52404,
2042.034,516.28103,
2039.123,506.1048,
2036.213,506.33612,
2033.302,514.5597,
2030.391,501.73564,
2027.481,498.07616,
2024.570,506.02484,
2021.660,487.36671,
2018.749,521.01103,
2015.839,518.125,
2012.928,517.20554,
2010.017,508.28135,
2007.107,499.05585,
2004.196,494.9345,
2001.286,487.125,
1998.375,482.9498,
1995.465,483.48482,
1992.554,507.7895,
1989.643,525.60654,
1986.733,487.44605,
1983.822,497.21584,
1980.912,520.30307,
1978.001,500.01552,
1975.090,472.31279,
1972.180,489.67551,
1969.269,493.5014,
1966.359,510.77397,
1963.448,519.01139,
1960.538,509.0099,
1957.627,545.46559,
1954.716,517.10171,
1951.806,483.91985,
1948.895,496.82949,
1945.985,489.90768,
1943.074,519.91842,
1940.164,500.58635,
1937.253,503.20288,
1934.342,521.07367,
1931.432,511.08399,
1928.521,494.48769,
1925.611,469.10571,
1922.700,491.40814,
1919.790,506.0151,
1916.879,482.00824,
1913.968,489.11393,
1911.058,498.93581,
1908.147,482.92209,
1905.237,486.53675,
1902.326,484.87166,
1899.415,495.82866,
1896.505,493.47443,
1893.594,491.21949,
1890.684,489.8047,
1887.773,473.75485,
1884.863,480.44846,
1881.952,495.91497,
1879.041,503.17692,
1876.131,517.34068,
1873.220,480.89918,
1870.310,506.68548,
1867.399,472.71676,
1864.489,521.19036,
1861.578,496.35041,
1858.667,484.2597,
1855.757,515.3207,
1852.846,523.89422,
1849.936,522.73062,
1847.025,495.53619,
1844.114,500.53913,
1841.204,517.20542,
1838.293,527.63415,
1835.383,521.5785,
1832.472,509.26413,
1829.562,520.28907,
1826.651,535.91144,
1823.740,519.92573,
1820.830,530.10153,
1817.919,525.35248,
1815.009,520.5563,
1812.098,549.74703,
1809.188,549.37307,
1806.277,560.85942,
1803.366,531.65736,
1800.456,560.98167,
1797.545,525.50791,
1794.635,537.18997,
1791.724,526.76574,
1788.813,551.53966,
1785.903,581.64836,
1782.992,541.31877,
1780.082,557.97829,
1777.171,531.45798,
1774.261,520.63481,
1771.350,529.84876,
1768.439,561.03876,
1765.529,556.48983,
1762.618,581.03441,
1759.708,597.59238,
1756.797,577.29924,
1753.887,567.89468,
1750.976,568.40772,
1748.065,574.95603,
1745.155,574.09924,
1742.244,568.80073,
1739.334,581.13441,
1736.423,573.70072,
1733.512,589.95433,
1730.602,620.56551,
1727.691,612.00413,
1724.781,578.80824,
1721.870,607.3395,
1718.960,626.81402,
1716.049,625.7691,
1713.138,619.99503,
1710.228,653.06658,
1707.317,647.51014,
1704.407,623.66507,
1701.496,612.00952,
1698.586,610.20102,
1695.675,602.63933,
1692.764,647.56765,
1689.854,672.12895,
1686.943,607.41834,
1684.033,665.58515,
1681.122,644.51583,
1678.211,679.78237,
1675.301,685.10958,
1672.390,695.20874,
1669.480,722.90038,
1666.569,695.22657,
1663.659,703.74563,
1660.748,741.08644,
1657.837,739.60613,
1654.927,761.59358,
1652.016,782.31565,
1649.106,830.02708,
1646.195,824.49461,
1643.285,759.56055,
1640.374,820.81141,
1637.463,807.38602,
1634.553,875.74078,
1631.642,850.55932,
1628.732,890.21388,
1625.821,905.15771,
1622.911,954.84324,
1620.000,1005.4825,
1617.089,1058.0703,
1614.179,1138.8125,
1611.268,1190.2289,
1608.358,1245.5029,
1605.447,1316.9541,
1602.536,1317.3975,
1599.626,1329.0841,
1596.715,1321.049,
1593.805,1291.5064,
1590.894,1312.7838,
1587.984,1290.1422,
1585.073,1275.9152,
1582.162,1279.9692,
1579.252,1254.9394,
1576.341,1260.3399,
1573.431,1287.4034,
1570.520,1252.0843,
1567.610,1224.9679,
1564.699,1217.9499,
1561.788,1189.6605,
1558.878,1166.518,
1555.967,1143.9477,
1553.057,1152.9869,
1550.146,1120.7215,
1547.235,1084.6798,
1544.325,1067.3799,
1541.414,1056.9648,
1538.504,1053.0698,
1535.593,1034.083,
1532.683,997.28984,
1529.772,969.51884,
1526.861,972.18321,
1523.951,995.69757,
1521.040,1004.6439,
1518.130,993.19024,
1515.219,972.08642,
1512.309,930.30971,
1509.398,958.56976,
1506.487,977.59768,
1503.577,952.56945,
1500.666,930.93777,
1497.756,967.75195,
1494.845,951.28509,
1491.934,955.02736,
1489.024,925.19008,
1486.113,921.34335,
1483.203,894.47997,
1480.292,847.85091,
1477.382,844.97449,
1474.471,864.5421,
1471.560,884.63832,
1468.650,900.37411,
1465.739,859.00971,
1462.829,796.71914,
1459.918,826.26911,
1457.008,858.44793,
1454.097,857.29248,
1451.186,863.30295,
1448.276,843.68695,
1445.365,820.91015,
1442.455,821.23131,
1439.544,843.71448,
1436.633,850.88171,
1433.723,822.88481,
1430.812,803.81913,
1427.902,849.49361,
1424.991,822.95626,
1422.081,821.20752,
1419.170,876.42486,
1416.259,781.43693,
1413.349,825.85194,
1410.438,825.03227,
1407.528,768.13186,
1404.617,777.93982,
1401.707,810.54417,
1398.796,806.74041,
1395.885,791.4045,
1392.975,780.4581,
1390.064,759.23556,
1387.154,734.99429,
1384.243,734.05472,
1381.332,699.23968,
1378.422,698.16313,
1375.511,815.26075,
1372.601,853.06624,
1369.690,923.84557,
1366.780,924.82854,
1363.869,956.26942,
1360.958,979.68846,
1358.048,954.27279,
1355.137,975.70541,
1352.227,1018.7002,
1349.316,1035.401,
1346.406,1051.5284,
1343.495,1067.8062,
1340.584,1130.5176,
1337.674,1149.0194,
1334.763,1171.9253,
1331.853,1140.3994,
1328.942,1164.9195,
1326.032,1186.8843,
1323.121,1216.3178,
1320.210,1199.1541,
1317.300,1237.4752,
1314.389,1264.9026,
1311.479,1251.8823,
1308.568,1253.3864,
1305.657,1278.8014,
1302.747,1300.6659,
1299.836,1289.3217,
1296.926,1363.4923,
1294.015,1392.9107,
1291.105,1459.2851,
1288.194,1493.6848,
1285.283,1514.4451,
1282.373,1539.1093,
1279.462,1579.7715,
1276.552,1616.2038,
1273.641,1646.0685,
1270.731,1653.8951,
1267.820,1619.681,
1264.909,1657.4548,
1261.999,1664.7283,
1259.088,1599.0556,
1256.178,1603.6896,
1253.267,1648.0879,
1250.356,1573.082,
1247.446,1495.3346,
1244.535,1470.6205,
1241.625,1457.8028,
1238.714,1439.9932,
1235.804,1427.0863,
1232.893,1365.6258,
1229.982,1361.1438,
1227.072,1332.1738,
1224.161,1316.6769,
1221.251,1295.5123,
1218.340,1276.8166,
1215.430,1268.4734,
1212.519,1277.9912,
1209.608,1265.9643,
1206.698,1240.2957,
1203.787,1295.0747,
1200.877,1274.128,
1197.966,1290.3128,
1195.055,1349.1459,
1192.145,1359.125,
1189.234,1377.94,
1186.324,1400.1262,
1183.413,1408.8001,
1180.503,1415.2191,
1177.592,1428.1047,
1174.681,1410.9024,
1171.771,1361.1868,
1168.860,1363.8661,
1165.950,1346.3866,
1163.039,1321.1729,
1160.129,1356.3641,
1157.218,1375.1066,
1154.307,1369.5455,
1151.397,1362.5741,
1148.486,1299.9319,
1145.576,1262.3244,
1142.665,1336.0212,
1139.754,1316.9025,
1136.844,1278.2108,
1133.933,1279.3742,
1131.023,1275.49,
1128.112,1252.3403,
1125.202,1240.8496,
1122.291,1247.8878,
1119.380,1281.5061,
1116.470,1320.3373,
1113.559,1284.916,
1110.649,1286.8768,
1107.738,1296.2683,
1104.828,1289.803,
1101.917,1287.8887,
1099.006,1306.9189,
1096.096,1288.4688,
1093.185,1310.4189,
1090.275,1320.2177,
1087.364,1301.5413,
1084.453,1311.2488,
1081.543,1320.8663,
1078.632,1310.3643,
1075.722,1300.8086,
1072.811,1295.9317,
1069.901,1307.2841,
1066.990,1346.1166,
1064.079,1334.7096,
1061.169,1347.7694,
1058.258,1362.3136,
1055.348,1367.1196,
1052.437,1392.6009,
1049.527,1399.9572,
1046.616,1395.613,
1043.705,1427.4971,
1040.795,1435.2095,
1037.884,1438.1709,
1034.974,1444.732,
1032.063,1442.9252,
1029.153,1421.1516,
1026.242,1404.7174,
1023.331,1457.4549,
1020.421,1443.0293,
1017.510,1448.9333,
1014.600,1472.2753,
1011.689,1482.9892,
1008.778,1477.0309,
1005.868,1488.9281,
1002.957,1578.4049,
1000.047,1639.445,
997.136,1668.2842,
994.226,1669.4328,
991.315,1665.3874,
988.404,1667.3427,
985.494,1627.3552,
982.583,1637.6338,
979.673,1628.1503,
976.762,1612.9701,
973.852,1599.8209,
970.941,1606.4621,
968.030,1635.57,
965.120,1621.0104,
962.209,1593.7291,
959.299,1628.0787,
956.388,1618.9266,
953.477,1611.4558,
950.567,1637.4906,
947.656,1659.1196,
944.746,1643.8276,
941.835,1622.8797,
938.925,1658.9241,
936.014,1651.7987,
933.103,1626.2436,
930.193,1627.5282,
927.282,1616.4834,
924.372,1604.6449,
921.461,1605.3342,
918.551,1581.7258,
915.640,1564.9749,
912.729,1565.5883,
909.819,1559.8992,
906.908,1527.8871,
903.998,1557.1442,
901.087,1574.0361,
898.176,1586.7601,
895.266,1596.3946,
892.355,1600.8527,
889.445,1610.0846,
886.534,1615.1342,
883.624,1646.4024,
880.713,1656.0214,
877.802,1651.4724,
874.892,1645.5065,
871.981,1615.6515,
869.071,1595.6016,
866.160,1621.1033,
863.250,1637.2702,
860.339,1640.8409,
857.428,1638.4901,
854.518,1623.1731,
851.607,1624.8373,
848.697,1620.3103,
845.786,1607.7457,
842.875,1603.3682,
839.965,1615.6396,
837.054,1627.4506,
834.144,1656.457,
831.233,1662.125,
828.323,1646.2987,
825.412,1636.8862,
822.501,1650.3803,
819.591,1646.2483,
816.680,1600.4518,
813.770,1594.137,
810.859,1576.3679,
807.949,1541.7542,
805.038,1517.6228,
802.127,1521.7384,
799.217,1531.8151,
796.306,1544.2061,
793.396,1538.2775,
790.485,1519.1779,
787.574,1523.6855,
784.664,1538.4475,
781.753,1537.0991,
778.843,1532.6746,
775.932,1543.705,
773.022,1576.027,
770.111,1588.2906,
767.200,1558.6725,
764.290,1548.5471,
761.379,1554.8207,
758.469,1570.5659,
755.558,1589.8364,
752.648,1546.6624,
749.737,1521.1525,
746.826,1495.341,
743.916,1469.4236,
741.005,1439.7448,
738.095,1330.1415,
735.184,1204.8606,
732.274,1173.2724,
729.363,1243.2929,
726.452,1374.4969,
723.542,1465.1489,
720.631,1525.1718,
717.721,1544.9892,
714.810,1530.3751,
711.899,1513.6597,
708.989,1558.8475,
706.078,1575.9524,
703.168,1557.0506,
700.257,1537.5867,
697.347,1530.2555,
694.436,1526.754,
691.525,1513.0893,
688.615,1543.4573,
685.704,1535.0649,
682.794,1504.6781,
679.883,1526.8459,
676.973,1542.8733,
674.062,1524.4302,
671.151,1510.3717,
668.241,1514.3195,
665.330,1533.5956,
662.420,1522.4133,
659.509,1549.3318,
656.598,1560.4993,
653.688,1545.5336,
650.777,1521.4481,
647.867,1560.4682,
644.956,1537.5483,
642.046,1523.5148,
639.135,1526.0944,
636.224,1507.3876,
633.314,1559.7875,
630.403,1563.0744,
627.493,1563.0383,
624.582,1574.8313,
621.672,1577.9993,
618.761,1598.6434,
615.850,1612.8388,
612.940,1604.0975,
610.029,1580.5174,
607.119,1612.8923,
604.208,1656.5958,
601.297,1654.1813,
598.387,1623.3731,
595.476,1595.5363,
592.566,1610.4906,
589.655,1610.5334,
586.745,1604.3513,
583.834,1602.2971,
580.923,1616.8975,
578.013,1579.2303,
575.102,1546.7551,
572.192,1551.2048,
569.281,1585.4694,
566.371,1565.1212,
563.460,1599.1039,
560.549,1624.3579,
557.639,1627.6052,
554.728,1609.2929,
551.818,1643.6268,
548.907,1662.7039,
545.996,1659.6277,
543.086,1649.8355,
540.175,1680.9813,
537.265,1658.4995,
534.354,1650.6301,
531.444,1651.289,
528.533,1650.5597,
525.622,1670.7344,
522.712,1703.6424,
519.801,1722.8888,
516.891,1724.751,
513.980,1727.8482,
511.070,1747.8467,
508.159,1764.7212,
505.248,1784.6402,
502.338,1816.6898,
499.427,1835.9856,
496.517,1861.4886,
493.606,1875.779,
490.695,1876.7625,
487.785,1902.9354,
484.874,1903.2477,
481.964,1903.6167,
479.053,1897.3805,
476.143,1856.6785,
473.232,1904.4833,
470.321,1892.9841,
467.411,1857.8457,
464.500,1851.1638,
461.590,1852.6953,
458.679,1865.2315,
455.769,1873.5497,
452.858,1869.4092,
449.947,1862.5338,
447.037,1902.9915,
444.126,1914.9674,
441.216,1890.4479,
438.305,1898.0672,
435.395,1908.9595,
432.484,1906.6235,
429.573,1895.06,
426.663,1890.4991,
423.752,1879.6637,
420.842,1877.4084,
417.931,1877.1084,
415.020,1866.4914,
412.110,1915.1431,
409.199,1958.5528,
406.289,1971.3502,
403.378,1929.2044,
400.468,1952.6402,
397.557,1963.724,
394.646,1949.6175,
391.736,1901.8836,
388.825,1894.3412,
385.915,1876.6914,
383.004,1862.8395,
380.094,1866.3862,
377.183,1949.9111,
374.272,1986.1517,
371.362,2000.3626,
368.451,2007.9882,
365.541,2005.7366,
362.630,1996.3852,
359.719,1997.7081,
356.809,2017.9891,
353.898,2015.7427,
350.988,2035.7395,
348.077,2047.6072,
345.167,2034.3142,
342.256,2038.0495,
339.345,2026.9021,
336.435,2013.3491,
333.524,2007.088,
330.614,2037.6394,
327.703,2031.7228,
324.793,2032.0769,
321.882,2075.098,
318.971,2063.9463,
316.061,2052.8003,
313.150,2050.6678,
310.240,2068.4786,
307.329,2094.8519,
304.418,2089.6226,
301.508,2066.7927,
298.597,2050.5035,
295.687,2020.0037,
292.776,2019.4584,
289.866,2049.4904,
286.955,2103.4174,
284.044,2174.3749,
281.134,2223.3445,
278.223,2245.4184,
275.313,2254.2606,
272.402,2285.7511,
269.492,2324.5519,
266.581,2359.6026,
263.670,2324.3139,
260.760,2337.1099,
257.849,2373.266,
254.939,2416.5651,
252.028,2413.5058,
249.117,2409.384,
246.207,2408.5873,
243.296,2418.1038,
240.386,2412.5951,
237.475,2401.0571,
234.565,2386.2845,
231.654,2374.5983,
228.743,2349.6856,
225.833,2335.2593,
222.922,2340.159,
220.012,2340.8875,
217.101,2344.56,
214.191,2339.6011,
211.280,2311.2301,
208.369,2329.3094,
205.459,2329.543,
202.548,2318.7601,
199.638,2339.8039,
196.727,2390.2223,
193.816,2405.7626,
190.906,2364.9026,
187.995,2415.5844,
185.085,2428.8693,
182.174,2434.8986,
179.264,2474.6507,
176.353,2447.7268,
173.442,2425.4117,
170.532,2412.7566,
167.621,2375.2659,
164.711,2322.554,
161.800,2243.5738,
158.890,2124.8188,
155.979,1988.345,
153.068,1831.2594,
150.158,1653.0687,
147.247,1447.0164,
144.337,1189.7797,
141.426,930.32263,
138.516,690.88095,
135.605,491.31701,
132.694,340.19549,
129.784,228.67937,
126.873,144.29405,
123.963,93.549862,
121.052,60.75948,
118.141,42.198028,
115.231,43.546141,
112.320,38.194097,
109.410,30.806776,
106.499,34.367552,
103.589,29.522455,
100.678,22.137161,
97.767,14.316848,
94.857,12.739022,
91.946,12.931222,
89.036,14.237898,
86.125,14.947103,
83.215,16.717761,
80.304,17.646135,
77.393,16.229795,
74.483,7.6082455,
71.572,4.9367606,
68.662,7.5015925,
65.751,1.1435328,
62.840,6.3505298,
59.930,13.937714,
57.019,13.232632,
54.109,7.7505524,
51.198,4.125,
48.288,4.1646371,
45.377,9.0882836,
42.466,7.4150259,
39.556,2.4703557,
36.645,4.5769264,
33.735,3.0480061,
30.824,0.2414521,
27.914,-2.5632489,
25.003,5.2192872,
22.092,11.416618,
19.182,14.079234,
16.271,12.680254,
13.361,50.056218,
10.450,106.21145,
7.539,129.95417,
4.629,149.03312,
1.718,77.094894,
-1.192,-196.88291,
-4.103,-177.18475,
-7.013,-98.399801,
-9.924,1.125,
