,PL8595~1,
Raman shift [1/cm],Intensity,
3014.167,-0.75,
3011.256,1.0499571,
3008.346,236.09949,
3005.435,296.63516,
3002.525,306.38255,
2999.614,304.96299,
2996.704,323.60463,
2993.793,333.48848,
2990.882,338.29582,
2987.972,322.50225,
2985.061,362.93964,
2982.151,364.4601,
2979.240,365.26424,
2976.329,385.76365,
2973.419,409.48107,
2970.508,396.01667,
2967.598,421.62871,
2964.687,416.8913,
2961.777,431.59194,
2958.866,435.91716,
2955.955,438.28539,
2953.045,468.13142,
2950.134,477.9002,
2947.224,479.22153,
2944.313,490.83405,
2941.403,493.21396,
2938.492,493.27169,
2935.581,502.54571,
2932.671,513.37017,
2929.760,514.25,
2926.850,517.09323,
2923.939,536.32944,
2921.028,524.37927,
2918.118,546.95151,
2915.207,552.77524,
2912.297,546.25846,
2909.386,542.84854,
2906.476,543.86236,
2903.565,546.87889,
2900.654,546.19136,
2897.744,543.19971,
2894.833,536.36346,
2891.923,530.6282,
2889.012,535.70665,
2886.102,530.98109,
2883.191,534.24056,
2880.280,524.80979,
2877.370,513.51739,
2874.459,460.99865,
2871.549,515.92128,
2868.638,554.11596,
2865.727,546.83457,
2862.817,579.09357,
2859.906,565.13604,
2856.996,572.71151,
2854.085,558.3634,
2851.175,582.3675,
2848.264,585.809,
2845.353,567.27157,
2842.443,571.84373,
2839.532,568.71274,
2836.622,573.16016,
2833.711,585.61265,
2830.801,566.17132,
2827.890,589.85667,
2824.979,597.11404,
2822.069,591.3296,
2819.158,597.10984,
2816.248,591.51447,
2813.337,596.33291,
2810.427,619.6467,
2807.516,609.40828,
2804.605,617.34614,
2801.695,592.0263,
2798.784,592.80646,
2795.874,604.10488,
2792.963,599.82128,
2790.052,600.24914,
2787.142,590.51323,
2784.231,598.25,
2781.321,586.12428,
2778.410,586.73984,
2775.500,593.31345,
2772.589,624.36544,
2769.678,630.81994,
2766.768,631.56844,
2763.857,626.61994,
2760.947,631.19957,
2758.036,624.94428,
2755.126,653.68589,
2752.215,651.26839,
2749.304,651.42088,
2746.394,651.09676,
2743.483,654.25,
2740.573,648.92697,
2737.662,665.20859,
2734.751,643.39068,
2731.841,650.03388,
2728.930,656.92371,
2726.020,654.80093,
2723.109,671.64141,
2720.199,658.1719,
2717.288,663.49453,
2714.377,666.02508,
2711.467,682.79067,
2708.556,694.12242,
2705.646,688.71478,
2702.735,711.38142,
2699.825,688.98823,
2696.914,706.91683,
2694.003,700.79146,
2691.093,709.01775,
2688.182,713.88704,
2685.272,712.05512,
2682.361,699.82642,
2679.450,710.03598,
2676.540,704.43292,
2673.629,717.56388,
2670.719,714.04574,
2667.808,709.15273,
2664.898,715.54864,
2661.987,727.75017,
2659.076,734.25,
2656.166,755.54006,
2653.255,755.61905,
2650.345,740.4333,
2647.434,747.53608,
2644.524,765.49702,
2641.613,757.84962,
2638.702,753.21844,
2635.792,755.37463,
2632.881,767.48794,
2629.971,755.92774,
2627.060,775.74719,
2624.149,790.90001,
2621.239,777.74111,
2618.328,766.35207,
2615.418,788.92727,
2612.507,791.07606,
2609.597,794.34182,
2606.686,808.57528,
2603.775,793.09127,
2600.865,804.13057,
2597.954,804.20209,
2595.044,802.58924,
2592.133,809.8106,
2589.223,829.51528,
2586.312,826.5917,
2583.401,832.73907,
2580.491,819.37505,
2577.580,834.25825,
2574.670,836.48263,
2571.759,825.94692,
2568.848,824.07321,
2565.938,840.82153,
2563.027,828.34772,
2560.117,846.7734,
2557.206,857.15406,
2554.296,853.90675,
2551.385,863.63811,
2548.474,857.84219,
2545.564,838.59821,
2542.653,856.66945,
2539.743,881.37323,
2536.832,880.31169,
2533.922,863.865,
2531.011,893.45074,
2528.100,887.30929,
2525.190,889.60082,
2522.279,888.01551,
2519.369,889.89111,
2516.458,902.47026,
2513.548,889.73197,
2510.637,897.69666,
2507.726,887.68866,
2504.816,886.50028,
2501.905,891.49634,
2498.995,938.92096,
2496.084,906.54271,
2493.173,922.88179,
2490.263,914.6884,
2487.352,907.79253,
2484.442,927.65469,
2481.531,943.61705,
2478.621,936.64335,
2475.710,975.01997,
2472.799,947.46971,
2469.889,955.7043,
2466.978,962.3015,
2464.068,958.50395,
2461.157,951.94493,
2458.247,971.35303,
2455.336,969.06016,
2452.425,969.38208,
2449.515,984.28741,
2446.604,978.00571,
2443.694,992.83142,
2440.783,990.01126,
2437.872,993.65111,
2434.962,1001.3606,
2432.051,994.71299,
2429.141,986.28542,
2426.230,1023.3816,
2423.320,1004.4923,
2420.409,1025.7372,
2417.498,1020.2584,
2414.588,1031.3298,
2411.677,1026.4611,
2408.767,1016.127,
2405.856,1048.25,
2402.946,1052.3572,
2400.035,1038.0669,
2397.124,1054.9559,
2394.214,1071.274,
2391.303,1044.25,
2388.393,1067.3919,
2385.482,1066.6466,
2382.571,1053.8953,
2379.661,1064.8546,
2376.750,1090.0873,
2373.840,1102.8969,
2370.929,1102.25,
2368.019,1103.9372,
2365.108,1107.2945,
2362.197,1124.8609,
2359.287,1128.04,
2356.376,1136.2377,
2353.466,1117.4932,
2350.555,1119.6805,
2347.645,1120.1202,
2344.734,1137.7708,
2341.823,1123.6314,
2338.913,1121.3814,
2336.002,1139.037,
2333.092,1149.434,
2330.181,1148.7589,
2327.270,1186.1048,
2324.360,1179.6203,
2321.449,1153.0187,
2318.539,1150.3356,
2315.628,1174.4758,
2312.718,1172.6509,
2309.807,1203.952,
2306.896,1190.0293,
2303.986,1200.3799,
2301.075,1204.1862,
2298.165,1184.1053,
2295.254,1229.1298,
2292.344,1196.2458,
2289.433,1213.2577,
2286.522,1203.9554,
2283.612,1207.7411,
2280.701,1226.3666,
2277.791,1227.853,
2274.880,1268.818,
2271.969,1271.6739,
2269.059,1278.0075,
2266.148,1299.275,
2263.238,1276.1612,
2260.327,1259.5608,
2257.417,1303.3011,
2254.506,1290.9451,
2251.595,1285.8136,
2248.685,1295.9327,
2245.774,1326.0847,
2242.864,1295.6764,
2239.953,1318.2982,
2237.043,1320.9639,
2234.132,1321.9591,
2231.221,1341.0408,
2228.311,1369.7358,
2225.400,1362.0248,
2222.490,1361.4912,
2219.579,1391.1986,
2216.669,1407.1546,
2213.758,1429.2069,
2210.847,1433.4742,
2207.937,1485.092,
2205.026,1488.6949,
2202.116,1486.7383,
2199.205,1531.5114,
2196.294,1563.366,
2193.384,1559.882,
2190.473,1593.0012,
2187.563,1645.598,
2184.652,1723.2745,
2181.742,1760.2049,
2178.831,1779.1216,
2175.920,1822.2282,
2173.010,1862.5516,
2170.099,1914.445,
2167.189,1917.8025,
2164.278,2004.6681,
2161.368,2073.5347,
2158.457,2124.3275,
2155.546,2193.8395,
2152.636,2260.8456,
2149.725,2342.6661,
2146.815,2387.1488,
2143.904,2421.763,
2140.993,2454.1812,
2138.083,2456.5205,
2135.172,2464.6702,
2132.262,2452.3442,
2129.351,2399.9808,
2126.441,2377.5315,
2123.530,2255.7449,
2120.619,2201.4798,
2117.709,2122.8466,
2114.798,2022.584,
2111.888,1909.4764,
2108.977,1848.7334,
2106.067,1790.2976,
2103.156,1719.1809,
2100.245,1686.2368,
2097.335,1664.2867,
2094.424,1654.6172,
2091.514,1632.3063,
2088.603,1606.3007,
2085.692,1592.2464,
2082.782,1589.6114,
2079.871,1589.7856,
2076.961,1607.9584,
2074.050,1585.5227,
2071.140,1573.9854,
2068.229,1588.25,
2065.318,1575.6192,
2062.408,1572.9777,
2059.497,1567.8035,
2056.587,1557.215,
2053.676,1591.0981,
2050.766,1563.1753,
2047.855,1562.5917,
2044.944,1568.1314,
2042.034,1540.3369,
2039.123,1585.0311,
2036.213,1571.9277,
2033.302,1553.2063,
2030.391,1576.7751,
2027.481,1579.7866,
2024.570,1611.9634,
2021.660,1608.8413,
2018.749,1570.8958,
2015.839,1590.0748,
2012.928,1614.2265,
2010.017,1632.3021,
2007.107,1615.2705,
2004.196,1620.7977,
2001.286,1624.5186,
1998.375,1599.0285,
1995.465,1594.0366,
1992.554,1588.9912,
1989.643,1591.1463,
1986.733,1613.8219,
1983.822,1598.6326,
1980.912,1561.5874,
1978.001,1601.4021,
1975.090,1613.6714,
1972.180,1618.2832,
1969.269,1611.3045,
1966.359,1617.953,
1963.448,1618.5618,
1960.538,1593.1507,
1957.627,1595.3831,
1954.716,1638.0147,
1951.806,1628.71,
1948.895,1598.8674,
1945.985,1601.969,
1943.074,1613.8738,
1940.164,1605.7504,
1937.253,1625.4764,
1934.342,1607.7543,
1931.432,1601.8998,
1928.521,1594.003,
1925.611,1598.7369,
1922.700,1591.7528,
1919.790,1606.4752,
1916.879,1651.1113,
1913.968,1635.2734,
1911.058,1635.0518,
1908.147,1632.1172,
1905.237,1632.0441,
1902.326,1636.5685,
1899.415,1614.6622,
1896.505,1605.3228,
1893.594,1656.3506,
1890.684,1648.0931,
1887.773,1643.2331,
1884.863,1643.7306,
1881.952,1642.5776,
1879.041,1650.5974,
1876.131,1643.6631,
1873.220,1606.3826,
1870.310,1624.4562,
1867.399,1631.17,
1864.489,1629.7048,
1861.578,1621.9474,
1858.667,1670.9417,
1855.757,1637.2393,
1852.846,1657.0397,
1849.936,1689.6214,
1847.025,1705.2524,
1844.114,1690.6288,
1841.204,1715.0192,
1838.293,1732.7808,
1835.383,1711.5175,
1832.472,1707.4709,
1829.562,1696.668,
1826.651,1713.8147,
1823.740,1716.9703,
1820.830,1731.9982,
1817.919,1732.3637,
1815.009,1738.9561,
1812.098,1759.1004,
1809.188,1764.0639,
1806.277,1802.3869,
1803.366,1739.1317,
1800.456,1789.5463,
1797.545,1759.9734,
1794.635,1762.6681,
1791.724,1806.512,
1788.813,1836.8418,
1785.903,1802.5737,
1782.992,1784.1755,
1780.082,1810.6475,
1777.171,1795.9095,
1774.261,1773.9951,
1771.350,1801.246,
1768.439,1848.976,
1765.529,1851.0638,
1762.618,1820.8344,
1759.708,1844.8155,
1756.797,1870.25,
1753.887,1870.8141,
1750.976,1887.1708,
1748.065,1896.4067,
1745.155,1905.4693,
1742.244,1913.2364,
1739.334,1910.1418,
1736.423,1939.3378,
1733.512,1948.6118,
1730.602,1965.9504,
1727.691,1972.25,
1724.781,2002.1399,
1721.870,2047.2693,
1718.960,2069.4057,
1716.049,2072.25,
1713.138,2072.25,
1710.228,2046.1411,
1707.317,2065.2489,
1704.407,2079.0308,
1701.496,2150.4392,
1698.586,2121.2146,
1695.675,2114.5072,
1692.764,2165.373,
1689.854,2198.8642,
1686.943,2178.992,
1684.033,2230.9088,
1681.122,2246.9951,
1678.211,2338.3744,
1675.301,2340.2469,
1672.390,2379.3965,
1669.480,2429.0763,
1666.569,2531.5293,
1663.659,2554.8669,
1660.748,2653.002,
1657.837,2691.9936,
1654.927,2727.4289,
1652.016,2818.1528,
1649.106,2816.135,
1646.195,2894.1991,
1643.285,3016.0957,
1640.374,3097.5915,
1637.463,3209.718,
1634.553,3345.7278,
1631.642,3446.4107,
1628.732,3644.6129,
1625.821,3873.3867,
1622.911,4081.0723,
1620.000,4324.1633,
1617.089,4549.7326,
1614.179,4811.7767,
1611.268,5103.2825,
1608.358,5316.3235,
1605.447,5425.2508,
1602.536,5605.5129,
1599.626,5580.5328,
1596.715,5588.1412,
1593.805,5531.1184,
1590.894,5516.324,
1587.984,5453.7575,
1585.073,5354.0634,
1582.162,5281.4777,
1579.252,5199.0578,
1576.341,5131.9819,
1573.431,5057.3792,
1570.520,5019.6118,
1567.610,4922.3466,
1564.699,4812.9468,
1561.788,4726.9125,
1558.878,4706.6638,
1555.967,4611.1323,
1553.057,4524.2504,
1550.146,4439.952,
1547.235,4356.5658,
1544.325,4278.7453,
1541.414,4249.2707,
1538.504,4225.4495,
1535.593,4187.5117,
1532.683,4192.41,
1529.772,4212.4062,
1526.861,4214.4453,
1523.951,4221.8226,
1521.040,4223.9175,
1518.130,4200.5616,
1515.219,4204.8897,
1512.309,4217.7185,
1509.398,4214.9308,
1506.487,4158.1008,
1503.577,4130.5081,
1500.666,4178.6538,
1497.756,4129.7494,
1494.845,4072.3284,
1491.934,4002.3224,
1489.024,4024.4598,
1486.113,4048.4304,
1483.203,4024.4931,
1480.292,4017.856,
1477.382,3849.1344,
1474.471,3859.897,
1471.560,3806.3117,
1468.650,3788.4493,
1465.739,3780.7212,
1462.829,3802.3004,
1459.918,3809.0952,
1457.008,3835.2966,
1454.097,3825.8828,
1451.186,3757.1997,
1448.276,3719.2292,
1445.365,3668.2453,
1442.455,3597.0374,
1439.544,3561.7178,
1436.633,3551.8985,
1433.723,3462.0098,
1430.812,3439.5455,
1427.902,3442.7088,
1424.991,3419.9625,
1422.081,3413.7451,
1419.170,3386.4641,
1416.259,3371.7192,
1413.349,3362.4528,
1410.438,3339.2566,
1407.528,3330.8937,
1404.617,3330.0757,
1401.707,3303.8129,
1398.796,3285.9703,
1395.885,3296.6241,
1392.975,3269.186,
1390.064,3176.1134,
1387.154,3078.9117,
1384.243,2968.729,
1381.332,2875.7833,
1378.422,2931.65,
1375.511,3152.7303,
1372.601,3344.2503,
1369.690,3446.8295,
1366.780,3555.5022,
1363.869,3647.0859,
1360.958,3767.9814,
1358.048,3850.4755,
1355.137,3871.1473,
1352.227,3912.7143,
1349.316,3970.0824,
1346.406,4003.5177,
1343.495,4069.2013,
1340.584,4120.1779,
1337.674,4161.3572,
1334.763,4163.2027,
1331.853,4188.2379,
1328.942,4214.155,
1326.032,4231.9312,
1323.121,4252.2922,
1320.210,4304.1985,
1317.300,4312.4942,
1314.389,4335.6534,
1311.479,4393.0265,
1308.568,4449.2382,
1305.657,4504.8598,
1302.747,4568.7369,
1299.836,4688.115,
1296.926,4800.6594,
1294.015,4938.5579,
1291.105,5146.7746,
1288.194,5211.7909,
1285.283,5297.8623,
1282.373,5359.2577,
1279.462,5415.1316,
1276.552,5468.0847,
1273.641,5496.2869,
1270.731,5501.544,
1267.820,5493.7327,
1264.909,5465.9648,
1261.999,5494.6909,
1259.088,5342.3667,
1256.178,5322.9725,
1253.267,5239.9273,
1250.356,5122.4662,
1247.446,5034.8322,
1244.535,4917.5315,
1241.625,4793.3205,
1238.714,4708.1797,
1235.804,4612.5657,
1232.893,4508.7739,
1229.982,4399.1154,
1227.072,4365.6189,
1224.161,4280.8806,
1221.251,4184.843,
1218.340,4098.2991,
1215.430,4059.093,
1212.519,4017.0292,
1209.608,3947.735,
1206.698,3920.6547,
1203.787,3969.7726,
1200.877,3934.7107,
1197.966,4022.8283,
1195.055,4134.7593,
1192.145,4271.9623,
1189.234,4435.1693,
1186.324,4545.8906,
1183.413,4622.4379,
1180.503,4674.599,
1177.592,4653.0879,
1174.681,4562.226,
1171.771,4485.364,
1168.860,4446.9611,
1165.950,4388.4223,
1163.039,4319.3778,
1160.129,4308.8167,
1157.218,4330.7491,
1154.307,4334.2323,
1151.397,4339.147,
1148.486,4413.2385,
1145.576,4479.8237,
1142.665,4446.971,
1139.754,4408.4503,
1136.844,4331.6203,
1133.933,4274.6842,
1131.023,4244.3918,
1128.112,4192.6129,
1125.202,4126.0809,
1122.291,4140.7487,
1119.380,4136.9295,
1116.470,4104.276,
1113.559,4087.878,
1110.649,4033.172,
1107.738,4001.4276,
1104.828,3993.5051,
1101.917,3956.296,
1099.006,3884.4561,
1096.096,3905.1101,
1093.185,3919.1581,
1090.275,3938.8632,
1087.364,3977.5561,
1084.453,3987.6254,
1081.543,4007.7904,
1078.632,4042.0705,
1075.722,4044.3007,
1072.811,4028.1808,
1069.901,4041.2797,
1066.990,4010.7251,
1064.079,4014.1382,
1061.169,4007.6517,
1058.258,3995.7091,
1055.348,3998.4231,
1052.437,4007.3464,
1049.527,3976.4108,
1046.616,3954.6901,
1043.705,3973.8314,
1040.795,4015.3678,
1037.884,4007.9402,
1034.974,3984.6018,
1032.063,3983.8118,
1029.153,3968.0277,
1026.242,4007.8157,
1023.331,4004.2503,
1020.421,4033.2254,
1017.510,4088.2707,
1014.600,4150.4322,
1011.689,4192.8156,
1008.778,4223.8807,
1005.868,4368.1226,
1002.957,4465.3426,
1000.047,4598.9141,
997.136,4652.0599,
994.226,4656.0193,
991.315,4621.5867,
988.404,4535.9553,
985.494,4467.1541,
982.583,4462.8713,
979.673,4426.3993,
976.762,4378.0239,
973.852,4370.0464,
970.941,4367.2432,
968.030,4315.6605,
965.120,4346.2894,
962.209,4355.6673,
959.299,4369.2902,
956.388,4385.4493,
953.477,4416.4455,
950.567,4440.1459,
947.656,4418.4755,
944.746,4427.8206,
941.835,4439.5874,
938.925,4447.5144,
936.014,4418.383,
933.103,4394.3119,
930.193,4404.6532,
927.282,4389.3005,
924.372,4297.975,
921.461,4235.4384,
918.551,4191.6889,
915.640,4185.9983,
912.729,4174.8042,
909.819,4093.2466,
906.908,4062.9193,
903.998,4086.7017,
901.087,4137.8054,
898.176,4175.1799,
895.266,4211.4201,
892.355,4260.7788,
889.445,4258.261,
886.534,4313.3515,
883.624,4372.0211,
880.713,4441.182,
877.802,4458.5008,
874.892,4408.25,
871.981,4407.1255,
869.071,4359.507,
866.160,4367.1191,
863.250,4396.2665,
860.339,4384.0323,
857.428,4331.0327,
854.518,4350.3593,
851.607,4319.5728,
848.697,4293.6155,
845.786,4273.8707,
842.875,4301.3021,
839.965,4370.4296,
837.054,4370.8593,
834.144,4336.0517,
831.233,4351.915,
828.323,4335.554,
825.412,4310.4696,
822.501,4313.9733,
819.591,4295.7925,
816.680,4286.4359,
813.770,4239.1418,
810.859,4220.3723,
807.949,4209.028,
805.038,4158.3275,
802.127,4200.3069,
799.217,4169.962,
796.306,4158.8176,
793.396,4162.7539,
790.485,4162.5643,
787.574,4142.5889,
784.664,4177.8537,
781.753,4193.6438,
778.843,4180.117,
775.932,4173.9041,
773.022,4197.5585,
770.111,4167.3081,
767.200,4161.4434,
764.290,4155.0491,
761.379,4157.5519,
758.469,4158.2515,
755.558,4122.6697,
752.648,4069.7204,
749.737,4039.6663,
746.826,3951.8573,
743.916,3797.6321,
741.005,3579.463,
738.095,3147.5445,
735.184,2721.5587,
732.274,2639.039,
729.363,2944.362,
726.452,3482.0433,
723.542,3779.9001,
720.631,3920.1053,
717.721,4003.5048,
714.810,4072.6532,
711.899,4131.0025,
708.989,4134.2302,
706.078,4092.5822,
703.168,4049.4601,
700.257,4056.3049,
697.347,4091.4679,
694.436,4074.5337,
691.525,4084.9832,
688.615,4076.5585,
685.704,4062.4795,
682.794,4058.335,
679.883,4078.9348,
676.973,4094.1609,
674.062,4110.0116,
671.151,4130.3999,
668.241,4138.9113,
665.330,4113.9895,
662.420,4150.7312,
659.509,4174.7582,
656.598,4176.8933,
653.688,4176.6817,
650.777,4208.79,
647.867,4224.7166,
644.956,4243.7288,
642.046,4215.107,
639.135,4169.844,
636.224,4202.3057,
633.314,4213.4208,
630.403,4210.9291,
627.493,4176.14,
624.582,4134.1957,
621.672,4169.8354,
618.761,4211.5268,
615.850,4263.9211,
612.940,4296.25,
610.029,4296.1185,
607.119,4295.3288,
604.208,4285.3098,
601.297,4311.6596,
598.387,4339.3837,
595.476,4327.8675,
592.566,4281.4305,
589.655,4237.616,
586.745,4214.7783,
583.834,4201.2471,
580.923,4168.9135,
578.013,4113.1974,
575.102,4166.507,
572.192,4239.4016,
569.281,4284.4522,
566.371,4313.4093,
563.460,4386.7968,
560.549,4409.9154,
557.639,4415.3353,
554.728,4448.3978,
551.818,4450.7388,
548.907,4486.596,
545.996,4511.5827,
543.086,4513.0691,
540.175,4502.9467,
537.265,4499.3529,
534.354,4490.7246,
531.444,4483.8073,
528.533,4489.3335,
525.622,4546.7536,
522.712,4564.7108,
519.801,4576.6514,
516.891,4585.8679,
513.980,4564.1876,
511.070,4641.1369,
508.159,4668.0416,
505.248,4664.5047,
502.338,4676.2155,
499.427,4743.3649,
496.517,4794.058,
493.606,4825.3069,
490.695,4833.9335,
487.785,4810.07,
484.874,4834.0376,
481.964,4863.3695,
479.053,4863.9449,
476.143,4783.3088,
473.232,4815.659,
470.321,4833.656,
467.411,4826.3598,
464.500,4794.7348,
461.590,4813.8783,
458.679,4824.7529,
455.769,4843.743,
452.858,4878.3519,
449.947,4908.1452,
447.037,4919.7108,
444.126,4926.5773,
441.216,4926.297,
438.305,4892.0101,
435.395,4977.7278,
432.484,5011.0804,
429.573,5000.1251,
426.663,5038.1321,
423.752,5017.5378,
420.842,5030.0843,
417.931,5065.4378,
415.020,5094.2554,
412.110,5228.4036,
409.199,5352.5555,
406.289,5420.1809,
403.378,5385.9939,
400.468,5310.3944,
397.557,5274.9387,
394.646,5227.3496,
391.736,5121.1172,
388.825,4929.5425,
385.915,4872.1856,
383.004,4895.5212,
380.094,4963.9278,
377.183,5114.4231,
374.272,5260.4638,
371.362,5369.7359,
368.451,5426.4018,
365.541,5511.2124,
362.630,5539.7124,
359.719,5552.2411,
356.809,5570.3438,
353.898,5555.3679,
350.988,5534.9754,
348.077,5531.4143,
345.167,5553.4876,
342.256,5498.9516,
339.345,5497.5987,
336.435,5514.1363,
333.524,5523.9447,
330.614,5514.2576,
327.703,5533.8398,
324.793,5578.709,
321.882,5646.3401,
318.971,5683.5123,
316.061,5734.3385,
313.150,5810.2785,
310.240,5926.0486,
307.329,5968.1258,
304.418,5992.3691,
301.508,5981.3915,
298.597,5899.2052,
295.687,5808.9494,
292.776,5874.2506,
289.866,6093.3347,
286.955,6435.3646,
284.044,6751.7972,
281.134,7059.4383,
278.223,7350.2609,
275.313,7569.1069,
272.402,7782.5501,
269.492,7992.9193,
266.581,8196.3923,
263.670,8338.2821,
260.760,8466.488,
257.849,8577.8151,
254.939,8668.0827,
252.028,8701.0992,
249.117,8739.746,
246.207,8755.1501,
243.296,8692.927,
240.386,8585.0363,
237.475,8488.9894,
234.565,8401.004,
231.654,8272.4565,
228.743,8207.8511,
225.833,8121.405,
222.922,7982.9353,
220.012,7890.4088,
217.101,7779.2819,
214.191,7698.0913,
211.280,7707.5483,
208.369,7689.4112,
205.459,7626.3512,
202.548,7533.8433,
199.638,7467.8092,
196.727,7468.6554,
193.816,7459.9845,
190.906,7416.4182,
187.995,7449.7233,
185.085,7473.0714,
182.174,7492.5183,
179.264,7515.6468,
176.353,7540.6773,
173.442,7522.07,
170.532,7463.2177,
167.621,7428.6108,
164.711,7299.4206,
161.800,7106.707,
158.890,6859.1207,
155.979,6400.1332,
153.068,5902.0387,
150.158,5335.0328,
147.247,4540.2596,
144.337,3753.1926,
141.426,2968.0063,
138.516,2182.2935,
135.605,1566.5434,
132.694,1072.1324,
129.784,695.51231,
126.873,465.95564,
123.963,328.19878,
121.052,228.08819,
118.141,149.55897,
115.231,122.24833,
112.320,102.77728,
109.410,88.250184,
106.499,72.582769,
103.589,68.689746,
100.678,64.718918,
97.767,55.476729,
94.857,48.32011,
91.946,46.056222,
89.036,46.121021,
86.125,39.028968,
83.215,36.188159,
80.304,34.292269,
77.393,31.45959,
74.483,31.905135,
71.572,30.800592,
68.662,27.97293,
65.751,25.147126,
62.840,23.768298,
59.930,24.373717,
57.019,28.604209,
54.109,21.486909,
51.198,17.456437,
48.288,20.221688,
45.377,16.704797,
42.466,17.311097,
39.556,20.25,
36.645,20.25,
33.735,22.846242,
30.824,22.599356,
27.914,14.185253,
25.003,15.74055,
22.092,20.479046,
19.182,27.684774,
16.271,40.975087,
13.361,113.26182,
10.450,278.08499,
7.539,701.2641,
4.629,1092.6471,
1.718,1276.4962,
-1.192,1016.4613,
-4.103,592.51852,
-7.013,237.79446,
-9.924,3.25,
