,PLAB12~1,
Wavenumbers [1/cm],Intensity,
3014.167,0,
3011.256,1.2499463,
3008.346,235.05143,
3005.435,254,
3002.525,270.64262,
2999.614,268.76234,
2996.704,268.68144,
2993.793,270.10542,
2990.882,287.25953,
2987.972,288.1009,
2985.061,299.13299,
2982.151,315.30086,
2979.240,308,
2976.329,308,
2973.419,310.47676,
2970.508,317.61666,
2967.598,317.71687,
2964.687,321.97079,
2961.777,319.15393,
2958.866,327.66271,
2955.955,325.41151,
2953.045,347.18345,
2950.134,349.81925,
2947.224,347.34163,
2944.313,350.46083,
2941.403,361.72673,
2938.492,366.57453,
2935.581,367.29571,
2932.671,332.80693,
2929.760,364.7923,
2926.850,353.4703,
2923.939,369.43925,
2921.028,358.89987,
2918.118,370.13727,
2915.207,358.00645,
2912.297,369.97884,
2909.386,367.74454,
2906.476,353.86797,
2903.565,339.5326,
2900.654,319.93025,
2897.744,281.33945,
2894.833,289.03128,
2891.923,266.0545,
2889.012,221.21965,
2886.102,156.21354,
2883.191,47.085906,
2880.280,-373.49295,
2877.370,-1119.4869,
2874.459,-1378.1869,
2871.549,-702.56101,
2868.638,-44.192055,
2865.727,129.85375,
2862.817,185.48662,
2859.906,245.76067,
2856.996,273.00906,
2854.085,310.61142,
2851.175,334.73795,
2848.264,332.0735,
2845.353,360.65493,
2842.443,349.39234,
2839.532,364.53726,
2836.622,374.08984,
2833.711,374.25903,
2830.801,378.10074,
2827.890,374.89686,
2824.979,382.56798,
2822.069,376.27293,
2819.158,399.61995,
2816.248,398.25289,
2813.337,392.81463,
2810.427,396.0069,
2807.516,409.25156,
2804.605,410.34374,
2801.695,405.65791,
2798.784,405.36962,
2795.874,391.4248,
2792.963,391.78564,
2790.052,381.00193,
2787.142,383.97377,
2784.231,390.16149,
2781.321,401.25144,
2778.410,398.77539,
2775.500,383.10724,
2772.589,411.99848,
2769.678,386.67919,
2766.768,391.30486,
2763.857,400.52601,
2760.947,407.05674,
2758.036,400.7515,
2755.126,403.38034,
2752.215,390.64073,
2749.304,396.31832,
2746.394,420.34279,
2743.483,414.54995,
2740.573,410.69242,
2737.662,412.78698,
2734.751,417.88351,
2731.841,414.32417,
2728.930,405.572,
2726.020,411.55613,
2723.109,419.09267,
2720.199,424.29372,
2717.288,418.12408,
2714.377,418.57902,
2711.467,426.65604,
2708.556,423.94653,
2705.646,424.7042,
2702.735,439.45615,
2699.825,412.65097,
2696.914,433.04773,
2694.003,440.17399,
2691.093,417.4284,
2688.182,435.14741,
2685.272,441.79658,
2682.361,442.7238,
2679.450,420.09057,
2676.540,438.59352,
2673.629,420.65918,
2670.719,429.13864,
2667.808,432,
2664.898,452.286,
2661.987,433.73329,
2659.076,433.74569,
2656.166,445.88743,
2653.255,449.03741,
2650.345,458.19238,
2647.434,464.48557,
2644.524,464.01921,
2641.613,462.39975,
2638.702,462.92109,
2635.792,471.93918,
2632.881,457.84526,
2629.971,463.97991,
2627.060,465.50156,
2624.149,455.29687,
2621.239,458,
2618.328,462.42387,
2615.418,483.94547,
2612.507,482.55741,
2609.597,463.36727,
2606.686,476.0261,
2603.775,479.68254,
2600.865,479.59042,
2597.954,497.52086,
2595.044,495.59877,
2592.133,494.49028,
2589.223,499.15686,
2586.312,500.92466,
2583.401,489.59125,
2580.491,491.09616,
2577.580,495.0066,
2574.670,493.46526,
2571.759,479,
2568.848,491.34813,
2565.938,500.04769,
2563.027,490.26819,
2560.117,497.2617,
2557.206,493.86347,
2554.296,480.29062,
2551.385,501,
2548.474,504.51859,
2545.564,525.36689,
2542.653,525.84228,
2539.743,520.51848,
2536.832,503.14205,
2533.922,508.07885,
2531.011,516.5747,
2528.100,527.59931,
2525.190,529.79057,
2522.279,503.23449,
2519.369,504.07571,
2516.458,497.77974,
2513.548,493.52736,
2510.637,526.04521,
2507.726,538.87732,
2504.816,535.93799,
2501.905,547.11585,
2498.995,518.61241,
2496.084,539.09405,
2493.173,545.68477,
2490.263,540.85421,
2487.352,533.54253,
2484.442,550.84153,
2481.531,561.94682,
2478.621,551.7867,
2475.710,562.93866,
2472.799,558.69951,
2469.889,565.63711,
2466.978,571.103,
2464.068,573.08465,
2461.157,573.96248,
2458.247,577.14705,
2455.336,572.70254,
2452.425,579.9151,
2449.515,583.96259,
2446.604,592.71202,
2443.694,588.81416,
2440.783,611.62275,
2437.872,580.83869,
2434.962,594.59448,
2432.051,587.58055,
2429.141,613.54107,
2426.230,598.30382,
2423.320,617.68575,
2420.409,614.48721,
2417.498,615.58989,
2414.588,626.99236,
2411.677,629.10354,
2408.767,617.39468,
2405.856,632.89297,
2402.946,603.52368,
2400.035,625.27467,
2397.124,628.10161,
2394.214,616.45841,
2391.303,598.42548,
2388.393,546.95571,
2385.482,499.4981,
2382.571,414.82266,
2379.661,455.09237,
2376.750,573.3026,
2373.840,627.54994,
2370.929,641.88087,
2368.019,647.1564,
2365.108,658.7199,
2362.197,664.81916,
2359.287,665.19332,
2356.376,692.95245,
2353.466,684.39383,
2350.555,678.09972,
2347.645,684.35362,
2344.734,692.27188,
2341.823,704.76783,
2338.913,703.15819,
2336.002,698.15782,
2333.092,716.50567,
2330.181,707.17395,
2327.270,716.22993,
2324.360,706.09194,
2321.449,724.06122,
2318.539,721.02141,
2315.628,727.57954,
2312.718,745.89869,
2309.807,737.11193,
2306.896,724.74804,
2303.986,734.44165,
2301.075,739.97875,
2298.165,738.99046,
2295.254,721.40932,
2292.344,754.00841,
2289.433,731.06955,
2286.522,742.83934,
2283.612,752.18114,
2280.701,767.65469,
2277.791,759.1603,
2274.880,764.71197,
2271.969,781.44445,
2269.059,785.71116,
2266.148,797.88648,
2263.238,779.0116,
2260.327,793.20692,
2257.417,800.74444,
2254.506,804.26776,
2251.595,794.42177,
2248.685,842.71908,
2245.774,817.45125,
2242.864,819.28679,
2239.953,813.77922,
2237.043,826.88286,
2234.132,831.91164,
2231.221,820.81386,
2228.311,836.4858,
2225.400,823.9288,
2222.490,858.78508,
2219.579,875.10285,
2216.669,872.55008,
2213.758,872.43661,
2210.847,880.41813,
2207.937,871.40718,
2205.026,878.88892,
2202.116,884.29298,
2199.205,909.012,
2196.294,935.85995,
2193.384,917.73795,
2190.473,935.02935,
2187.563,951.06284,
2184.652,970.3257,
2181.742,1006.591,
2178.831,1024.2686,
2175.920,1078.8069,
2173.010,1092.8492,
2170.099,1145.3269,
2167.189,1184.653,
2164.278,1286.2985,
2161.368,1363.9986,
2158.457,1428.3138,
2155.546,1508.6347,
2152.636,1580.9892,
2149.725,1660.0872,
2146.815,1733.8644,
2143.904,1784.1152,
2140.993,1833.5713,
2138.083,1874.2705,
2135.172,1887.3782,
2132.262,1902,
2129.351,1865.7515,
2126.441,1807.1746,
2123.530,1772.9898,
2120.619,1675.6059,
2117.709,1597.4223,
2114.798,1485.2111,
2111.888,1382.5642,
2108.977,1302.7682,
2106.067,1234.0141,
2103.156,1190.0856,
2100.245,1106.9875,
2097.335,1081.4607,
2094.424,1040.7607,
2091.514,1031.4193,
2088.603,1007.9309,
2085.692,990.13388,
2082.782,965.6226,
2079.871,958,
2076.961,950.51662,
2074.050,922.16364,
2071.140,945.32181,
2068.229,940.7409,
2065.318,926.2965,
2062.408,923.59834,
2059.497,918.80357,
2056.587,902.26773,
2053.676,895.81662,
2050.766,908.92227,
2047.855,899.86084,
2044.944,862.86217,
2042.034,876.65898,
2039.123,886.42087,
2036.213,883.9444,
2033.302,874.34776,
2030.391,903.11796,
2027.481,888.73197,
2024.570,895.8567,
2021.660,883.94607,
2018.749,871.46813,
2015.839,859.34515,
2012.928,868.91946,
2010.017,872.64929,
2007.107,876.93085,
2004.196,871.27378,
2001.286,866.22967,
1998.375,888.48426,
1995.465,851.37679,
1992.554,817.96489,
1989.643,818.86175,
1986.733,826.74912,
1983.822,837.46086,
1980.912,823.36645,
1978.001,820.47494,
1975.090,813.96184,
1972.180,820.31118,
1969.269,783.8275,
1966.359,777.91911,
1963.448,780.15588,
1960.538,743.10508,
1957.627,736.78328,
1954.716,764.19565,
1951.806,751.09936,
1948.895,751.08707,
1945.985,740.04248,
1943.074,741.83036,
1940.164,724.57689,
1937.253,725.01298,
1934.342,726.98289,
1931.432,720.3817,
1928.521,689.72539,
1925.611,685.81158,
1922.700,685.25138,
1919.790,670.21981,
1916.879,658.69749,
1913.968,689.96065,
1911.058,658.65166,
1908.147,684.92265,
1905.237,685.73517,
1902.326,601.18817,
1899.415,537.86702,
1896.505,460.6023,
1893.594,502.32948,
1890.684,585.49009,
1887.773,624.25801,
1884.863,661.77221,
1881.952,674.39499,
1879.041,676.51298,
1876.131,674.55686,
1873.220,644.36271,
1870.310,641.8565,
1867.399,674.47221,
1864.489,658.1043,
1861.578,638.70858,
1858.667,665.88023,
1855.757,664.62291,
1852.846,644.52819,
1849.936,661,
1847.025,658.53042,
1844.114,666.07063,
1841.204,675.43007,
1838.293,693.4526,
1835.383,706.15152,
1832.472,675.2087,
1829.562,687.91329,
1826.651,694.47845,
1823.740,742.68592,
1820.830,734.22023,
1817.919,708.89809,
1815.009,705,
1812.098,667.29924,
1809.188,719.27894,
1806.277,695.61969,
1803.366,715.68209,
1800.456,755.72521,
1797.545,748.97173,
1794.635,731.06403,
1791.724,737.24282,
1788.813,694.39537,
1785.903,648.34324,
1782.992,512.54088,
1780.082,315.24425,
1777.171,24.64612,
1774.261,12.971311,
1771.350,310.41958,
1768.439,657.54109,
1765.529,736.90738,
1762.618,750.1563,
1759.708,777.53262,
1756.797,782.22727,
1753.887,765.2551,
1750.976,798.35208,
1748.065,833.22888,
1745.155,837.83223,
1742.244,821.46018,
1739.334,827.74823,
1736.423,832.17384,
1733.512,846.28053,
1730.602,840.03173,
1727.691,849.05023,
1724.781,860.86577,
1721.870,859.78093,
1718.960,886.13366,
1716.049,874.38153,
1713.138,886.38992,
1710.228,902.05445,
1707.317,926.11429,
1704.407,942.47596,
1701.496,940.35381,
1698.586,968.64352,
1695.675,1014.0426,
1692.764,998.06556,
1689.854,1002.7402,
1686.943,970.14667,
1684.033,1051.8889,
1681.122,1029.4248,
1678.211,1049.8001,
1675.301,1158.6639,
1672.390,1121.1585,
1669.480,1173.7513,
1666.569,1143.7491,
1663.659,1202.245,
1660.748,1217.5785,
1657.837,1250.1274,
1654.927,1389.3206,
1652.016,1361.243,
1649.106,1371.6365,
1646.195,1397.5515,
1643.285,1420.6152,
1640.374,1449.1324,
1637.463,1549.6846,
1634.553,1588.3005,
1631.642,1676.0532,
1628.732,1772.1896,
1625.821,1804.1387,
1622.911,2014.8054,
1620.000,2129.5511,
1617.089,2262.3333,
1614.179,2418.5442,
1611.268,2610.7503,
1608.358,2685.6756,
1605.447,2821.9439,
1602.536,2835.5913,
1599.626,2854.3987,
1596.715,2813.3427,
1593.805,2733.8761,
1590.894,2712.6706,
1587.984,2701.473,
1585.073,2623.4265,
1582.162,2574.0999,
1579.252,2529.3581,
1576.341,2514.5915,
1573.431,2442.5143,
1570.520,2457.397,
1567.610,2460.5489,
1564.699,2427.5487,
1561.788,2325.86,
1558.878,2292.7793,
1555.967,2230.9155,
1553.057,2223.517,
1550.146,2132.2984,
1547.235,2034.7127,
1544.325,1998.8617,
1541.414,1966.3977,
1538.504,1902.7854,
1535.593,1856.5916,
1532.683,1810.2763,
1529.772,1753.9626,
1526.861,1752.4373,
1523.951,1768.3362,
1521.040,1774.204,
1518.130,1758.1451,
1515.219,1721.1616,
1512.309,1649.8873,
1509.398,1605.0741,
1506.487,1595.9613,
1503.577,1538.1756,
1500.666,1545.7835,
1497.756,1545.5161,
1494.845,1467.6804,
1491.934,1483.7165,
1489.024,1397.0922,
1486.113,1396.7816,
1483.203,1385.4538,
1480.292,1337.3319,
1477.382,1340.3155,
1474.471,1286.214,
1471.560,1255.2123,
1468.650,1196.7047,
1465.739,1181.6074,
1462.829,1173.87,
1459.918,1166.6575,
1457.008,1140.0766,
1454.097,1136.1079,
1451.186,1148.8607,
1448.276,1142.6519,
1445.365,1158.2844,
1442.455,1138.9935,
1439.544,1134.8138,
1436.633,1135.0665,
1433.723,1074.1246,
1430.812,1075.8127,
1427.902,1085.4363,
1424.991,1061.7422,
1422.081,1063.7524,
1419.170,1039.8063,
1416.259,1053.8214,
1413.349,1046.6714,
1410.438,1045.7991,
1407.528,1023.8253,
1404.617,988.68913,
1401.707,1007.9761,
1398.796,979.52463,
1395.885,939.45691,
1392.975,986.5629,
1390.064,1009.5919,
1387.154,1005.9428,
1384.243,969.31393,
1381.332,1065.7626,
1378.422,1096.628,
1375.511,1108.8061,
1372.601,1170.7452,
1369.690,1230.005,
1366.780,1219.9912,
1363.869,1235.3414,
1360.958,1293.1764,
1358.048,1343.9191,
1355.137,1385.7071,
1352.227,1424.4707,
1349.316,1479.7723,
1346.406,1565.0574,
1343.495,1629.2422,
1340.584,1647.7849,
1337.674,1706.1808,
1334.763,1740.8941,
1331.853,1738.1125,
1328.942,1831.3937,
1326.032,1882.9654,
1323.121,1952.7591,
1320.210,2029.2714,
1317.300,2101.2674,
1314.389,2173.1119,
1311.479,2256.5628,
1308.568,2347.0456,
1305.657,2420.8907,
1302.747,2472.7489,
1299.836,2548.499,
1296.926,2704.051,
1294.015,2748.1785,
1291.105,2887.3645,
1288.194,3006.6416,
1285.283,3102.1683,
1282.373,3220.4919,
1279.462,3288.3723,
1276.552,3302.8583,
1273.641,3320.5639,
1270.731,3306.3059,
1267.820,3204.1446,
1264.909,3188.8802,
1261.999,3269.8308,
1259.088,3319.9975,
1256.178,3351.2631,
1253.267,3255.4974,
1250.356,3175.5605,
1247.446,3046.9758,
1244.535,2919.9778,
1241.625,2822.4001,
1238.714,2732.157,
1235.804,2653.5924,
1232.893,2567.1402,
1229.982,2495.9149,
1227.072,2434.3536,
1224.161,2403.1039,
1221.251,2392.0439,
1218.340,2336.8794,
1215.430,2278.8216,
1212.519,2284.4294,
1209.608,2295.1937,
1206.698,2239.021,
1203.787,2208.2462,
1200.877,2218.1761,
1197.966,2269.4282,
1195.055,2334.2871,
1192.145,2435.9126,
1189.234,2490.0053,
1186.324,2530.8209,
1183.413,2586.2386,
1180.503,2617.2196,
1177.592,2590.1008,
1174.681,2561.2123,
1171.771,2541.9382,
1168.860,2539.2589,
1165.950,2511.5862,
1163.039,2538.5233,
1160.129,2521.7377,
1157.218,2489.9045,
1154.307,2491.2438,
1151.397,2490.6243,
1148.486,2435.3948,
1145.576,2464.4581,
1142.665,2428.9416,
1139.754,2434.1363,
1136.844,2419.1927,
1133.933,2400.8564,
1131.023,2377.4208,
1128.112,2365.7135,
1125.202,2383.2464,
1122.291,2408.3814,
1119.380,2424.8268,
1116.470,2407.1762,
1113.559,2422.7847,
1110.649,2435.8581,
1107.738,2429.2836,
1104.828,2410.4297,
1101.917,2398.4794,
1099.006,2394.2889,
1096.096,2362.3003,
1093.185,2432.5405,
1090.275,2443.6649,
1087.364,2438.1388,
1084.453,2452.4364,
1081.543,2477.3937,
1078.632,2507.9831,
1075.722,2543.9403,
1072.811,2549.4893,
1069.901,2570.4475,
1066.990,2536.4334,
1064.079,2509.6261,
1061.169,2512.046,
1058.258,2527.7758,
1055.348,2542.2913,
1052.437,2552.3762,
1049.527,2541.551,
1046.616,2607.5821,
1043.705,2592.6478,
1040.795,2605.1551,
1037.884,2640.2754,
1034.974,2650.9652,
1032.063,2627.5693,
1029.153,2626.4275,
1026.242,2654.971,
1023.331,2723.4957,
1020.421,2688.9,
1017.510,2697.6946,
1014.600,2736.2255,
1011.689,2737.6152,
1008.778,2673.3126,
1005.868,2582.0386,
1002.957,2586.3404,
1000.047,2728.9601,
997.136,2987.564,
994.226,3132.8923,
991.315,3129.7376,
988.404,3120.9728,
985.494,3124.7917,
982.583,3070.8286,
979.673,3110.557,
976.762,3120.3677,
973.852,3121.6302,
970.941,3143.3371,
968.030,3174.8497,
965.120,3174.0644,
962.209,3189.4102,
959.299,3198.3742,
956.388,3191.4806,
953.477,3189.7544,
950.567,3202.1828,
947.656,3216.0054,
944.746,3231.2974,
941.835,3230.3804,
938.925,3226.0517,
936.014,3242.2097,
933.103,3247.2886,
930.193,3208.8185,
927.282,3149.1457,
924.372,3170.2859,
921.461,3090.5232,
918.551,3044.1529,
915.640,3012.8775,
912.729,2980.5594,
909.819,2960.8871,
906.908,2944.881,
903.998,2944,
901.087,2956.0936,
898.176,2989.2457,
895.266,3006.2562,
892.355,2989.7953,
889.445,3036.7943,
886.534,3094.6062,
883.624,3143.0058,
880.713,3137.5236,
877.802,3023.2886,
874.892,2755.3997,
871.981,2323.602,
869.071,2010.3222,
866.160,2167.1277,
863.250,2579.6669,
860.339,2948.1862,
857.428,3077.8431,
854.518,3011.3321,
851.607,2780.8489,
848.697,2494.0736,
845.786,2351.9,
842.875,2476.4031,
839.965,2804.0061,
837.054,3005.1302,
834.144,3016.7328,
831.233,3043.6649,
828.323,3020.8854,
825.412,2993.371,
822.501,3007.7233,
819.591,2989.5425,
816.680,2950.5384,
813.770,2898.3978,
810.859,2852.6942,
807.949,2826.3463,
805.038,2826.281,
802.127,2861.6755,
799.217,2820.2765,
796.306,2815.2163,
793.396,2815.603,
790.485,2814.3184,
787.574,2854.6192,
784.664,2897.265,
781.753,2913.0518,
778.843,2936.6033,
775.932,2967.4937,
773.022,2986.3085,
770.111,2956.0581,
767.200,2962.3744,
764.290,2943.0406,
761.379,2924.2429,
758.469,2915.3961,
755.558,2898.5835,
752.648,2918.134,
749.737,2901.7635,
746.826,2886.3378,
743.916,2884.3507,
741.005,2891.7161,
738.095,2880.3499,
735.184,2826.0856,
732.274,2805,
729.363,2797.9392,
726.452,2799.7872,
723.542,2887.2017,
720.631,2908.8199,
717.721,2911.7086,
714.810,2926.3692,
711.899,2948.6733,
708.989,2930.114,
706.078,3003.7199,
703.168,2981.9234,
700.257,2945.6857,
697.347,2931,
694.436,2931.0218,
691.525,2931.8256,
688.615,2927.5976,
685.704,2923.2732,
682.794,2919.1277,
679.883,2915.0905,
676.973,2961.57,
674.062,2949.3052,
671.151,2953.6565,
668.241,2966.8996,
665.330,2939.6386,
662.420,2910.8843,
659.509,2920.8733,
656.598,2922.6433,
653.688,2928.6429,
650.777,2982.5391,
647.867,3027.9298,
644.956,2935.2211,
642.046,2798.2015,
639.135,2692.3231,
636.224,2686.744,
633.314,2835.2105,
630.403,2907.2902,
627.493,2949.4356,
624.582,2975.9983,
621.672,2962.5344,
618.761,2945.2813,
615.850,2982.4261,
612.940,3031.0029,
610.029,3058.9207,
607.119,3064.4481,
604.208,3040.1495,
601.297,3039.9704,
598.387,3050.2866,
595.476,3046.2461,
592.566,2995.8738,
589.655,3002.5494,
586.745,2974.9806,
583.834,2937.2225,
580.923,2970.0332,
578.013,2975.5263,
575.102,2982.1623,
572.192,2975.2815,
569.281,2959.7962,
566.371,2980.927,
563.460,2975.2398,
560.549,3011.9568,
557.639,3056.4171,
554.728,3063.1971,
551.818,3066.3183,
548.907,3104.1742,
545.996,3116.3363,
543.086,3114.4407,
540.175,3190.748,
537.265,3157.6132,
534.354,3160.0575,
531.444,3178.3933,
528.533,3184.0417,
525.622,3212.7518,
522.712,3246.9107,
519.801,3273.0195,
516.891,3297.2684,
513.980,3353.0177,
511.070,3417.1652,
508.159,3437.2243,
505.248,3458.2881,
502.338,3538.0844,
499.427,3575.1324,
496.517,3616.6767,
493.606,3663.2085,
490.695,3711.0654,
487.785,3740.3175,
484.874,3750.1698,
481.964,3731.8208,
479.053,3704.2063,
476.143,3713.4218,
473.232,3688.8209,
470.321,3669.2685,
467.411,3672.6761,
464.500,3713.0388,
461.590,3714.5703,
458.679,3756.2721,
455.769,3801.9724,
452.858,3829.9884,
449.947,3849.0867,
447.037,3871.8096,
444.126,3911.7273,
441.216,3959.2646,
438.305,3960.7884,
435.395,3952.4767,
432.484,3960.5026,
429.573,3935.7545,
426.663,3754.841,
423.752,3115.1125,
420.842,2306.9373,
417.931,1691.2706,
415.020,1773.1733,
412.110,2858.7875,
409.199,3501.9655,
406.289,3720.8732,
403.378,3603.5287,
400.468,3464.4257,
397.557,3556.7638,
394.646,3797.5091,
391.736,4102.0765,
388.825,4166.9403,
385.915,4211.5453,
383.004,4227.718,
380.094,4214.3801,
377.183,4261.0337,
374.272,4302.2246,
371.362,4328.6489,
368.451,4335.4559,
365.541,4342.9613,
362.630,4349.3699,
359.719,4355.3677,
356.809,4362.6311,
353.898,4389.5879,
350.988,4399.7124,
348.077,4383.9947,
345.167,4344.0112,
342.256,4423.2004,
339.345,4420.4912,
336.435,4393.0033,
333.524,4381.7146,
330.614,4436.111,
327.703,4426.3029,
324.793,4418.272,
321.882,4468.0451,
318.971,4486.6311,
316.061,4555.5042,
313.150,4640.6309,
310.240,4703.7108,
307.329,4701.7122,
304.418,4739.212,
301.508,4795.0585,
298.597,4829.1177,
295.687,4837.4179,
292.776,4890.0003,
289.866,4979.617,
286.955,5072.6964,
284.044,5137.8649,
281.134,5194.6607,
278.223,5249.8081,
275.313,5316.8619,
272.402,5293.2413,
269.492,5214.353,
266.581,5093.1205,
263.670,4954.9066,
260.760,5092.6103,
257.849,5325.5725,
254.939,5527.3902,
252.028,5563.2969,
249.117,5655.0312,
246.207,5790.8598,
243.296,5952.6399,
240.386,6055.5419,
237.475,6105.9944,
234.565,6123.3178,
231.654,6182.4788,
228.743,6252.5368,
225.833,6313.9036,
222.922,6359.0384,
220.012,6402.7517,
217.101,6507.7824,
214.191,6613.1466,
211.280,6650.2472,
208.369,6733.0648,
205.459,6794.358,
202.548,6841.9137,
199.638,6922.4608,
196.727,7024.28,
193.816,7111.0818,
190.906,7169.3617,
187.995,7236.696,
185.085,7283.1699,
182.174,7312.7218,
179.264,7326.4543,
176.353,7421.5537,
173.442,7462.3981,
170.532,7429.3149,
167.621,7320.4476,
164.711,7144.3666,
161.800,6873.8803,
158.890,6469.3934,
155.979,6091.8957,
153.068,5650.5294,
150.158,5134.9988,
147.247,4506.0727,
144.337,3778.8058,
141.426,3029.0723,
138.516,2288.5236,
135.605,1610.2865,
132.694,1086.9157,
129.784,702.77807,
126.873,455.34315,
123.963,315.08692,
121.052,219.80423,
118.141,151.26964,
115.231,118.31376,
112.320,93.56183,
109.410,76.091026,
106.499,66.120853,
103.589,56.156437,
100.678,49.185135,
97.767,47.052322,
94.857,42.842066,
91.946,37.775113,
89.036,32.096817,
86.125,26.423175,
83.215,27.654602,
80.304,29.042269,
77.393,26.20959,
74.483,24.034595,
71.572,23.362352,
68.662,23.44586,
65.751,17.794251,
62.840,17.445106,
59.930,17.50171,
57.019,11.861055,
54.109,13.985804,
51.198,12.380689,
48.288,4.0566244,
45.377,11.090405,
42.466,13.587781,
39.556,13.230237,
36.645,14.634618,
33.735,17.596242,
30.824,20.883548,
27.914,23.688249,
25.003,24.622637,
22.092,23.385477,
19.182,21.052612,
16.271,53.229158,
13.361,204.65967,
10.450,533.69898,
7.539,1339.5549,
4.629,1977.0334,
1.718,2314.2825,
-1.192,2106.5334,
-4.103,1288.2067,
-7.013,541.38266,
-9.924,2,
