,PL9A1E~1,
Raman shift [1/cm],Intensity,
3014.167,2.25,
3011.256,-1.5000537,
3008.346,243.08982,
3005.435,300.28887,
3002.525,317.30761,
2999.614,304.29028,
2996.704,308.39124,
2993.793,328.72696,
2990.882,333.2577,
2987.972,350.26009,
2985.061,349.14655,
2982.151,358.4601,
2979.240,381.14923,
2976.329,393.51502,
2973.419,401.04948,
2970.508,416.08337,
2967.598,410.97048,
2964.687,443.33967,
2961.777,431.28409,
2958.866,449.90677,
2955.955,457.93806,
2953.045,482.65271,
2950.134,502.25,
2947.224,491.161,
2944.313,518.20513,
2941.403,508.90465,
2938.492,538.55895,
2935.581,550.65859,
2932.671,537.09121,
2929.760,561.96157,
2926.850,562.13835,
2923.939,561.76868,
2921.028,577.03834,
2918.118,597.72859,
2915.207,603.90845,
2912.297,616.25,
2909.386,609.25,
2906.476,591.51407,
2903.565,582.45963,
2900.654,596.70802,
2897.744,597.19971,
2894.833,588.30164,
2891.923,603.14431,
2889.012,582.83381,
2886.102,586.08243,
2883.191,588.25094,
2880.280,565.28828,
2877.370,556.75583,
2874.459,551.40749,
2871.549,605.56593,
2868.638,623.79638,
2865.727,609.19616,
2862.817,596.50669,
2859.906,604.93376,
2856.996,617.71603,
2854.085,619.96848,
2851.175,620.3675,
2848.264,614.81867,
2845.353,617.09903,
2842.443,608.65279,
2839.532,609.35446,
2836.622,617.96876,
2833.711,595.13071,
2830.801,609.45147,
2827.890,608.1853,
2824.979,596.608,
2822.069,617.30686,
2819.158,619.96967,
2816.248,608.77895,
2813.337,620.93048,
2810.427,612.38913,
2807.516,618.29297,
2804.605,615.25,
2801.695,620.34212,
2798.784,628.88038,
2795.874,622.93334,
2792.963,618.82063,
2790.052,605.24893,
2787.142,617.34204,
2784.231,601.02486,
2781.321,606.80421,
2778.410,593.54948,
2775.500,622.09896,
2772.589,622.4419,
2769.678,615.32168,
2766.768,635.35294,
2763.857,613.72592,
2760.947,648.35087,
2758.036,635.44728,
2755.126,644.82051,
2752.215,639.80445,
2749.304,639.35611,
2746.394,651.13309,
2743.483,641.60001,
2740.573,646.4602,
2737.662,655.25,
2734.751,654.69176,
2731.841,648.89835,
2728.930,670.57629,
2726.020,664.35706,
2723.109,645.2915,
2720.199,662.95628,
2717.288,657.7062,
2714.377,665.9582,
2711.467,678.23352,
2708.556,687.98389,
2705.646,689.02464,
2702.735,674.28095,
2699.825,698.38089,
2696.914,687.39272,
2694.003,687.30528,
2691.093,703.48225,
2688.182,693.26704,
2685.272,708.93137,
2682.361,695.00327,
2679.450,694.11414,
2676.540,692.55486,
2673.629,708.24551,
2670.719,696.76108,
2667.808,692.10409,
2664.898,696.14591,
2661.987,706.68332,
2659.076,687.04743,
2656.166,737.5228,
2653.255,724.58163,
2650.345,729.25,
2647.434,744.36461,
2644.524,745.4394,
2641.613,743.33611,
2638.702,745.32891,
2635.792,730.53116,
2632.881,739.91057,
2629.971,752.35742,
2627.060,741.58001,
2624.149,759.06251,
2621.239,764.03113,
2618.328,753.12284,
2615.418,749.58636,
2612.507,755.07606,
2609.597,781.04641,
2606.686,774.2761,
2603.775,771.69048,
2600.865,793.1272,
2597.954,791.35202,
2595.044,809.28543,
2592.133,795.74676,
2589.223,782.44262,
2586.312,791.5917,
2583.401,795.49453,
2580.491,791.71636,
2577.580,824.20874,
2574.670,799.25,
2571.759,798.69949,
2568.848,802.36604,
2565.938,820.10722,
2563.027,812.54316,
2560.117,814.43691,
2557.206,842.08394,
2554.296,849.44451,
2551.385,833.25807,
2548.474,842.95372,
2545.564,826.78814,
2542.653,852.40772,
2539.743,857.23768,
2536.832,865.80141,
2533.922,820.02269,
2531.011,862.47549,
2528.100,859.51136,
2525.190,863.92541,
2522.279,879.1562,
2519.369,869.70329,
2516.458,862.81303,
2513.548,867.2046,
2510.637,884.00407,
2507.726,877.75185,
2504.816,872.25,
2501.905,876.30793,
2498.995,864.08607,
2496.084,885.83542,
2493.173,899.17086,
2490.263,881.48614,
2487.352,887.9996,
2484.442,884.24357,
2481.531,901.88817,
2478.621,897.12672,
2475.710,919.08131,
2472.799,899.96297,
2469.889,909.7043,
2466.978,917.02314,
2464.068,927.86908,
2461.157,922.48002,
2458.247,923.51476,
2455.336,945.7373,
2452.425,928.3962,
2449.515,940.98597,
2446.604,949.77532,
2443.694,958.57566,
2440.783,950.53378,
2437.872,961.65111,
2434.962,971.19931,
2432.051,972.63897,
2429.141,986.50282,
2426.230,984.64115,
2423.320,986.2074,
2420.409,981.67936,
2417.498,990.45505,
2414.588,994.15492,
2411.677,991.25,
2408.767,995.04429,
2405.856,1006.719,
2402.946,1019.5717,
2400.035,1022.5528,
2397.124,1019.4746,
2394.214,1021.8988,
2391.303,1023.7859,
2388.393,1036.9407,
2385.482,1042.2059,
2382.571,1017.3377,
2379.661,1047.8779,
2376.750,1055.9322,
2373.840,1052.8375,
2370.929,1043.3258,
2368.019,1051.3337,
2365.108,1065.8312,
2362.197,1072.4308,
2359.287,1070.46,
2356.376,1078.2342,
2353.466,1071.4161,
2350.555,1085.3852,
2347.645,1095.0262,
2344.734,1090.7339,
2341.823,1084.3329,
2338.913,1106.0261,
2336.002,1107.9462,
2333.092,1097.25,
2330.181,1113.8484,
2327.270,1107.9101,
2324.360,1117.7123,
2321.449,1113.6037,
2318.539,1127.0604,
2315.628,1112.6549,
2312.718,1116.1487,
2309.807,1141.4113,
2306.896,1157.7539,
2303.986,1156.6396,
2301.075,1153.867,
2298.165,1126.3168,
2295.254,1148.6037,
2292.344,1156.6649,
2289.433,1176.8909,
2286.522,1158.4421,
2283.612,1159.6709,
2280.701,1167.8464,
2277.791,1149.4522,
2274.880,1179.748,
2271.969,1187.1842,
2269.059,1210.9176,
2266.148,1217.0363,
2263.238,1228.5434,
2260.327,1221.4569,
2257.417,1227.5711,
2254.506,1237.8454,
2251.595,1246.3845,
2248.685,1261.3519,
2245.774,1249.8327,
2242.864,1259.6665,
2239.953,1253.0707,
2237.043,1265.8739,
2234.132,1261.3825,
2231.221,1264.1726,
2228.311,1305.0438,
2225.400,1295.3626,
2222.490,1300.7354,
2219.579,1317.849,
2216.669,1331.2834,
2213.758,1345.1232,
2210.847,1356.25,
2207.937,1376.3949,
2205.026,1376.915,
2202.116,1421.2012,
2199.205,1422.7872,
2196.294,1427.564,
2193.384,1467.4591,
2190.473,1497.9777,
2187.563,1544.1437,
2184.652,1532.1904,
2181.742,1591.7959,
2178.831,1631.9077,
2175.920,1717.7145,
2173.010,1806.8044,
2170.099,1890.6429,
2167.189,1997.6303,
2164.278,2066.6842,
2161.368,2205.6733,
2158.457,2353.6473,
2155.546,2477.3222,
2152.636,2578.2392,
2149.725,2642.3573,
2146.815,2740.1801,
2143.904,2823.4545,
2140.993,2835.6468,
2138.083,2846.8153,
2135.172,2866.6786,
2132.262,2862.1065,
2129.351,2860.2914,
2126.441,2780.9682,
2123.530,2662.0378,
2120.619,2532.6821,
2117.709,2354.5974,
2114.798,2214.5688,
2111.888,2101.4399,
2108.977,1959.336,
2106.067,1870.0895,
2103.156,1783.464,
2100.245,1691.2237,
2097.335,1643.8312,
2094.424,1610.9518,
2091.514,1605.0777,
2088.603,1557.1993,
2085.692,1535.1981,
2082.782,1513.5954,
2079.871,1507.1427,
2076.961,1510.9271,
2074.050,1526.9712,
2071.140,1484.3418,
2068.229,1491.7122,
2065.318,1482.6328,
2062.408,1474.3862,
2059.497,1470.6607,
2056.587,1448.7155,
2053.676,1466.8316,
2050.766,1481.5572,
2047.855,1429.8196,
2044.944,1449.117,
2042.034,1443.984,
2039.123,1436.0311,
2036.213,1441.9433,
2033.302,1441.7716,
2030.391,1467.8596,
2027.481,1474.7866,
2024.570,1475.7785,
2021.660,1457.4326,
2018.749,1468.8321,
2015.839,1461.6129,
2012.928,1483.0201,
2010.017,1481.2761,
2007.107,1480.5061,
2004.196,1477.6428,
2001.286,1463.5822,
1998.375,1444.7244,
1995.465,1453.4089,
1992.554,1453.7441,
1989.643,1445.5265,
1986.733,1443.0728,
1983.822,1425.7766,
1980.912,1444.0616,
1978.001,1437.3261,
1975.090,1431.5065,
1972.180,1408.2846,
1969.269,1424.2328,
1966.359,1442.4393,
1963.448,1460.5908,
1960.538,1447.5853,
1957.627,1465.541,
1954.716,1457.566,
1951.806,1386.8958,
1948.895,1403.7135,
1945.985,1441.8072,
1943.074,1472.0913,
1940.164,1459.3074,
1937.253,1438.276,
1934.342,1441.7115,
1931.432,1438.9819,
1928.521,1418.8199,
1925.611,1400.0423,
1922.700,1412.2873,
1919.790,1445.5329,
1916.879,1463.2735,
1913.968,1425.298,
1911.058,1445.3161,
1908.147,1437.6149,
1905.237,1397.9266,
1902.326,1443.3626,
1899.415,1376.3451,
1896.505,1393.2263,
1893.594,1430.9817,
1890.684,1419.6683,
1887.773,1423.0257,
1884.863,1406.2022,
1881.952,1434.7046,
1879.041,1437.8767,
1876.131,1430.8069,
1873.220,1419.7898,
1870.310,1431.2455,
1867.399,1408.6338,
1864.489,1451.4322,
1861.578,1429.2886,
1858.667,1409.0764,
1855.757,1413.4099,
1852.846,1447.4449,
1849.936,1438.2249,
1847.025,1478.9021,
1844.114,1468.3206,
1841.204,1476.3269,
1838.293,1473.7342,
1835.383,1475.599,
1832.472,1487.6343,
1829.562,1497.6948,
1826.651,1495.5662,
1823.740,1491.6101,
1820.830,1504.9115,
1817.919,1500.2919,
1815.009,1484.5503,
1812.098,1474.1713,
1809.188,1516.3972,
1806.277,1508.4935,
1803.366,1524.1335,
1800.456,1520.1627,
1797.545,1565.3637,
1794.635,1516.992,
1791.724,1527.1333,
1788.813,1584.4464,
1785.903,1575.8294,
1782.992,1586.1278,
1780.082,1590.3462,
1777.171,1579.2452,
1774.261,1562.345,
1771.350,1570.1863,
1768.439,1588.613,
1765.529,1608.0695,
1762.618,1616.25,
1759.708,1631.5762,
1756.797,1620.9697,
1753.887,1623.508,
1750.976,1670.5537,
1748.065,1667.5157,
1745.155,1642.392,
1742.244,1661.4112,
1739.334,1653.7088,
1736.423,1679.5771,
1733.512,1676.7865,
1730.602,1678.4782,
1727.691,1682.0177,
1724.781,1719.2191,
1721.870,1729.25,
1718.960,1769.5394,
1716.049,1778.25,
1713.138,1801.3349,
1710.228,1796.547,
1707.317,1803.2111,
1704.407,1853.6618,
1701.496,1814.5842,
1698.586,1864.7651,
1695.675,1845.8573,
1692.764,1859.3975,
1689.854,1887.0374,
1686.943,1886.3175,
1684.033,1890.1507,
1681.122,1915.8082,
1678.211,1969.7361,
1675.301,2044.0218,
1672.390,2040.3816,
1669.480,2084.988,
1666.569,2176.4531,
1663.659,2192.1847,
1660.748,2190.2553,
1657.837,2293.0373,
1654.927,2329.0232,
1652.016,2361.3472,
1649.106,2367.3064,
1646.195,2449.0342,
1643.285,2442.2096,
1640.374,2529.0723,
1637.463,2661.5202,
1634.553,2677.58,
1631.642,2767.857,
1628.732,2914.8307,
1625.821,3012.4005,
1622.911,3240.9539,
1620.000,3420.9696,
1617.089,3609.4689,
1614.179,3784.2866,
1611.268,4058.8402,
1608.358,4178.8653,
1605.447,4287.9651,
1602.536,4347.3676,
1599.626,4389.8872,
1596.715,4385.0816,
1593.805,4315.3864,
1590.894,4257.0518,
1587.984,4332.5287,
1585.073,4251.6602,
1582.162,4261.9664,
1579.252,4225.5166,
1576.341,4202.6319,
1573.431,4167.1399,
1570.520,4118.5024,
1567.610,4076.4456,
1564.699,4098.8763,
1561.788,4038.7155,
1558.878,3951.5807,
1555.967,3854.5589,
1553.057,3806.1294,
1550.146,3726.7338,
1547.235,3641.6981,
1544.325,3580.3181,
1541.414,3477.5619,
1538.504,3433.3159,
1535.593,3422.0875,
1532.683,3361.227,
1529.772,3299.3567,
1526.861,3260.4453,
1523.951,3201.851,
1521.040,3111.7588,
1518.130,3122.3805,
1515.219,3124.1296,
1512.309,3127.3581,
1509.398,3079.2198,
1506.487,3043.2181,
1503.577,3065.4364,
1500.666,2984.8023,
1497.756,2977.2834,
1494.845,2928.8898,
1491.934,2920.0894,
1489.024,2871.0022,
1486.113,2862.7595,
1483.203,2855.1447,
1480.292,2754.9742,
1477.382,2739.6747,
1474.471,2727.2046,
1471.560,2662.294,
1468.650,2660.4315,
1465.739,2645.2709,
1462.829,2650.3482,
1459.918,2644.4653,
1457.008,2647.5272,
1454.097,2668.0229,
1451.186,2656.279,
1448.276,2630.8224,
1445.365,2632.8945,
1442.455,2652.1567,
1439.544,2638.0329,
1436.633,2601.6969,
1433.723,2608.3897,
1430.812,2576.6881,
1427.902,2606.3255,
1424.991,2567.4672,
1422.081,2497.4392,
1419.170,2499.8906,
1416.259,2489.9091,
1413.349,2520.4806,
1410.438,2503.2588,
1407.528,2502.1936,
1404.617,2539.9549,
1401.707,2539.9925,
1398.796,2503.257,
1395.885,2536.7504,
1392.975,2590.3533,
1390.064,2569.0256,
1387.154,2596.3987,
1384.243,2539.937,
1381.332,2485.0832,
1378.422,2601.0805,
1375.511,2694.7586,
1372.601,2804.9953,
1369.690,2863.9689,
1366.780,2820.7677,
1363.869,2917.6745,
1360.958,3009.4264,
1358.048,3055.4226,
1355.137,3135.4862,
1352.227,3235.0542,
1349.316,3282.25,
1346.406,3313.8619,
1343.495,3379.7552,
1340.584,3387.5706,
1337.674,3444.786,
1334.763,3452.9549,
1331.853,3550.3142,
1328.942,3548.0238,
1326.032,3594.556,
1323.121,3654.1537,
1320.210,3728.5192,
1317.300,3742.4942,
1314.389,3774.9036,
1311.479,3859.3759,
1308.568,3958.2754,
1305.657,4048.7027,
1302.747,4103.4143,
1299.836,4177.8693,
1296.926,4285.6256,
1294.015,4358.2522,
1291.105,4502.1367,
1288.194,4622.6904,
1285.283,4773.5505,
1282.373,4889.6951,
1279.462,4962.8376,
1276.552,5014.943,
1273.641,5079.831,
1270.731,5131.547,
1267.820,5093.5005,
1264.909,5031.689,
1261.999,4994.1793,
1259.088,5074.446,
1256.178,4990.1785,
1253.267,4889.3241,
1250.356,4796.2019,
1247.446,4618.1549,
1244.535,4444.3886,
1241.625,4329.8612,
1238.714,4221.7912,
1235.804,4099.187,
1232.893,4001.6537,
1229.982,3869.8701,
1227.072,3829.1311,
1224.161,3753.1262,
1221.251,3664.0546,
1218.340,3625.9416,
1215.430,3592.8243,
1212.519,3511.033,
1209.608,3451.7163,
1206.698,3469.1009,
1203.787,3449.9636,
1200.877,3463.5405,
1197.966,3532.7758,
1195.055,3573.7929,
1192.145,3675.6706,
1189.234,3794.1882,
1186.324,3850.5236,
1183.413,3868.4074,
1180.503,3898.45,
1177.592,3915.987,
1174.681,3858.3219,
1171.771,3830.6112,
1168.860,3802.9255,
1165.950,3735.7468,
1163.039,3668.5682,
1160.129,3652.1486,
1157.218,3598.0809,
1154.307,3557.1405,
1151.397,3579.1306,
1148.486,3527.5583,
1145.576,3474.0098,
1142.665,3376.3393,
1139.754,3458.5628,
1136.844,3416.2227,
1133.933,3315.9367,
1131.023,3268.4989,
1128.112,3260.0376,
1125.202,3241.564,
1122.291,3263.6395,
1119.380,3301.6744,
1116.470,3344.9183,
1113.559,3282.9773,
1110.649,3290.0987,
1107.738,3321.932,
1104.828,3338.9144,
1101.917,3342.1376,
1099.006,3330.2297,
1096.096,3266.0239,
1093.185,3294.9979,
1090.275,3313.4354,
1087.364,3305.5859,
1084.453,3302.4999,
1081.543,3309.5087,
1078.632,3307.7884,
1075.722,3279.847,
1072.811,3243.3454,
1069.901,3300.9807,
1066.990,3318.9916,
1064.079,3333.8187,
1061.169,3358.0282,
1058.258,3395.6947,
1055.348,3429.4835,
1052.437,3449.3851,
1049.527,3510.0416,
1046.616,3478.7638,
1043.705,3525.3497,
1040.795,3544.7195,
1037.884,3564.4451,
1034.974,3571.1946,
1032.063,3566.4111,
1029.153,3604.2114,
1026.242,3595.5618,
1023.331,3639.4138,
1020.421,3635.7022,
1017.510,3664.4268,
1014.600,3710.2819,
1011.689,3746.7976,
1008.778,3790.2569,
1005.868,3890.6168,
1002.957,4042.8995,
1000.047,4211.1221,
997.136,4315.76,
994.226,4356.6038,
991.315,4354.1163,
988.404,4323.8464,
985.494,4273.869,
982.583,4212.197,
979.673,4182.0322,
976.762,4170.7274,
973.852,4188.5825,
970.941,4215.7319,
968.030,4212.3366,
965.120,4173.318,
962.209,4189.5163,
959.299,4197.2077,
956.388,4193.6504,
953.477,4194.5934,
950.567,4202.25,
947.656,4204.2554,
944.746,4219.5474,
941.835,4250.2131,
938.925,4254.6178,
936.014,4244.651,
933.103,4209.4148,
930.193,4170.0381,
927.282,4205.0338,
924.372,4127.2379,
921.461,4029.6184,
918.551,3984.3076,
915.640,3946.6287,
912.729,3890.1967,
909.819,3839.362,
906.908,3847.7863,
903.998,3845.8639,
901.087,3910.1736,
898.176,3950.1132,
895.266,3964.359,
892.355,4001.7571,
889.445,4073.9341,
886.534,4126.0121,
883.624,4165.1818,
880.713,4226.2027,
877.802,4245.543,
874.892,4189.7123,
871.981,4155.7173,
869.071,4133.1612,
866.160,4174.0974,
863.250,4188.4838,
860.339,4176.8065,
857.428,4158.1716,
854.518,4125.7465,
851.607,4039.2113,
848.697,3998.1129,
845.786,3984.6931,
842.875,3983.25,
839.965,3977.6819,
837.054,3952.5756,
834.144,3981.582,
831.233,3999.2491,
828.323,3989.9183,
825.412,3949.1369,
822.501,3891.335,
819.591,3864.0638,
816.680,3820.782,
813.770,3774.5394,
810.859,3741.969,
807.949,3723.8402,
805.038,3715.1372,
802.127,3739.0079,
799.217,3711.4344,
796.306,3670.6011,
793.396,3648.0286,
790.485,3651.1452,
787.574,3658.5614,
784.664,3666.7625,
781.753,3667.579,
778.843,3671.1707,
775.932,3674.9414,
773.022,3683.8866,
770.111,3746.0226,
767.200,3716.7523,
764.290,3725.32,
761.379,3732.5543,
758.469,3714.7164,
755.558,3684.4995,
752.648,3625.848,
749.737,3610.9861,
746.826,3587.8038,
743.916,3534.2106,
741.005,3446.9615,
738.095,3338.17,
735.184,3203.6899,
732.274,3168.9233,
729.363,3269.3424,
726.452,3456.2598,
723.542,3528.2958,
720.631,3574.2996,
717.721,3590.6871,
714.810,3587.5398,
711.899,3582.2005,
708.989,3599.1459,
706.078,3621.6865,
703.168,3551.9546,
700.257,3516.0397,
697.347,3534.9021,
694.436,3536.2025,
691.525,3497.6199,
688.615,3490.5078,
685.704,3498.5888,
682.794,3504.9734,
679.883,3494.7546,
676.973,3505.9738,
674.062,3513.9927,
671.151,3508.4834,
668.241,3492.9615,
665.330,3480.9517,
662.420,3516.8947,
659.509,3531.2342,
656.598,3521.402,
653.688,3508.3109,
650.777,3524.764,
647.867,3510.4301,
644.956,3484.9606,
642.046,3478.7128,
639.135,3501.4073,
636.224,3547.2142,
633.314,3540.0687,
630.403,3534.1115,
627.493,3566.9689,
624.582,3619.6591,
621.672,3599.0673,
618.761,3610.409,
615.850,3640.1464,
612.940,3678.3267,
610.029,3713.0913,
607.119,3724.1461,
604.208,3700.3995,
601.297,3704.2085,
598.387,3710.7976,
595.476,3684.9706,
592.566,3607.838,
589.655,3655.1517,
586.745,3650.0608,
583.834,3598.2737,
580.923,3591.1126,
578.013,3568.3553,
575.102,3602.9748,
572.192,3635.751,
569.281,3643.4838,
566.371,3661.4841,
563.460,3671.0102,
560.549,3683.9956,
557.639,3702.844,
554.728,3729.157,
551.818,3775.1957,
548.907,3752.3417,
545.996,3751.0783,
543.086,3791.6447,
540.175,3835.2489,
537.265,3828.1101,
534.354,3861.3751,
531.444,3890.1689,
528.533,3874.6579,
525.622,3950.7007,
522.712,3956.3284,
519.801,3993.93,
516.891,4076.1098,
513.980,4124.8905,
511.070,4201.7978,
508.159,4265.2021,
505.248,4317.0228,
502.338,4365.9218,
499.427,4423.0374,
496.517,4508.957,
493.606,4564.596,
490.695,4572.4922,
487.785,4610.212,
484.874,4593.6322,
481.964,4588.725,
479.053,4605.685,
476.143,4632.5637,
473.232,4563.029,
470.321,4526.005,
467.411,4513.2109,
464.500,4505.1421,
461.590,4540.3661,
458.679,4589.3209,
455.769,4629.1266,
452.858,4644.5002,
449.947,4627.6937,
447.037,4611.508,
444.126,4615.45,
441.216,4641.4092,
438.305,4671.1246,
435.395,4689.674,
432.484,4716.4206,
429.573,4744.4925,
426.663,4749.8135,
423.752,4757.9216,
420.842,4777.6907,
417.931,4791.8633,
415.020,4772.9043,
412.110,4792.0036,
409.199,4898.5164,
406.289,4983.5556,
403.378,4926.4191,
400.468,4976.3147,
397.557,4979.9104,
394.646,4970.6741,
391.736,4976.5257,
388.825,4953.8987,
385.915,4933.9452,
383.004,4951.3754,
380.094,5026.8988,
377.183,5078.8197,
374.272,5132.873,
371.362,5195.3884,
368.451,5265.3412,
365.541,5266.8423,
362.630,5286.9147,
359.719,5332.2548,
356.809,5401.0235,
353.898,5397.2795,
350.988,5392.4526,
348.077,5390.9925,
345.167,5392.4876,
342.256,5337.9516,
339.345,5392.9305,
336.435,5440.26,
333.524,5401.203,
330.614,5399.7127,
327.703,5423.8934,
324.793,5456.0149,
321.882,5481.3005,
318.971,5502.1169,
316.061,5559.5464,
313.150,5616.1762,
310.240,5628.7922,
307.329,5713.5772,
304.418,5757.7369,
301.508,5772.2192,
298.597,5779.6234,
295.687,5815.4665,
292.776,5883.0836,
289.866,6006.2506,
286.955,6252.9849,
284.044,6422.3399,
281.134,6579.4916,
278.223,6745.0753,
275.313,6955.8159,
272.402,7107.1362,
269.492,7230.8274,
266.581,7343.2841,
263.670,7511.6404,
260.760,7640.697,
257.849,7735.5501,
254.939,7796.4623,
252.028,7845.7476,
249.117,7884.3504,
246.207,7907.6818,
243.296,7905.4857,
240.386,7869.9884,
237.475,7809.7578,
234.565,7717.2523,
231.654,7552.1856,
228.743,7493.0845,
225.833,7450.8583,
222.922,7391.377,
220.012,7308.3217,
217.101,7233.1599,
214.191,7155.7114,
211.280,7064.0511,
208.369,7039.084,
205.459,7011.086,
202.548,6988.6428,
199.638,7025.6509,
196.727,6968.1376,
193.816,6973.832,
190.906,7096.32,
187.995,7041.2941,
185.085,7063.3885,
182.174,7125.9001,
179.264,7187.3352,
176.353,7180.1529,
173.442,7191.103,
170.532,7218.0335,
167.621,7164.6813,
164.711,7069.3126,
161.800,6921.2918,
158.890,6701.7749,
155.979,6293.4324,
153.068,5809.563,
150.158,5250.4314,
147.247,4575.5563,
144.337,3796.7905,
141.426,3004.4274,
138.516,2238.0707,
135.605,1638.1181,
132.694,1134.8751,
129.784,732.21626,
126.873,475.48465,
123.963,325.36994,
121.052,227.17042,
118.141,166.48875,
115.231,121.48407,
112.320,88.422743,
109.410,67.977289,
106.499,66.552979,
103.589,64.569237,
100.678,60.533783,
97.767,53.424407,
94.857,44.934131,
91.946,37.218891,
89.036,32.040285,
86.125,37.004722,
83.215,36.657239,
80.304,31.419077,
77.393,20.088358,
74.483,33.007834,
71.572,36.988831,
68.662,29.933918,
65.751,16.511347,
62.840,20.920636,
59.930,28.564424,
57.019,22.218686,
54.109,21.25,
51.198,20.345172,
48.288,18.233013,
45.377,16.122878,
42.466,14.013342,
39.556,13.516304,
36.645,21.240397,
33.735,17.538267,
30.824,12.25,
27.914,12.25,
25.003,15.985825,
22.092,20.187427,
19.182,24.501711,
16.271,32.196103,
13.361,104.36911,
10.450,233.38389,
7.539,431.70546,
4.629,458.4664,
1.718,312.73282,
-1.192,-86.730996,
-4.103,-125.59661,
-7.013,-82.483405,
-9.924,-1.75,
