,PL1F6B~1,
Raman shift [1/cm],Intensity,
3014.167,1.875,
3011.256,0.075042947,
3008.346,55.413099,
3005.435,54.52871,
3002.525,56.252517,
2999.614,68.686682,
2996.704,65.556443,
2993.793,48.608872,
2990.882,76.126827,
2987.972,80.82455,
2985.061,77.081905,
2982.151,84.875,
2979.240,88.824617,
2976.329,75.847699,
2973.419,74.613382,
2970.508,82.808307,
2967.598,95.305121,
2964.687,106.74049,
2961.777,97.19111,
2958.866,102.54959,
2955.955,99.463486,
2953.045,110.95777,
2950.134,103.84292,
2947.224,102.875,
2944.313,105.57158,
2941.403,120.1729,
2938.492,99.311318,
2935.581,112.03081,
2932.671,117.99517,
2929.760,114.06345,
2926.850,111.77049,
2923.939,127.875,
2921.028,119.39844,
2918.118,119.31581,
2915.207,115.86855,
2912.297,110.86654,
2909.386,126.46624,
2906.476,118.84411,
2903.565,129.61722,
2900.654,112.64044,
2897.744,115.79957,
2894.833,109.875,
2891.923,122.84941,
2889.012,130.25072,
2886.102,123.64663,
2883.191,127.86839,
2880.280,114.50659,
2877.370,116.88666,
2874.459,100.99447,
2871.549,111.01991,
2868.638,126.64819,
2865.727,130.6942,
2862.817,133.8603,
2859.906,133.50748,
2856.996,123.37274,
2854.085,130.91703,
2851.175,129.56477,
2848.264,125.23283,
2845.353,131.04754,
2842.443,132.48614,
2839.532,129.86003,
2836.622,122.50977,
2833.711,117.50452,
2830.801,139.65883,
2827.890,128.95892,
2824.979,119.67708,
2822.069,116.09107,
2819.158,129.17419,
2816.248,128.09316,
2813.337,131.875,
2810.427,135.69869,
2807.516,121.35719,
2804.605,131.67067,
2801.695,122.95393,
2798.784,126.13577,
2795.874,126.86443,
2792.963,136.875,
2790.052,110.88058,
2787.142,146.2565,
2784.231,131.48836,
2781.321,127.74928,
2778.410,130.85469,
2775.500,142.47017,
2772.589,135.41323,
2769.678,141.15823,
2766.768,143.75848,
2763.857,138.92895,
2760.947,143.33402,
2758.036,138.56928,
2755.126,152.55021,
2752.215,128.27953,
2749.304,152.17173,
2746.394,147.23993,
2743.483,141.02502,
2740.573,138.76217,
2737.662,139.54512,
2734.751,149.13217,
2731.841,142.38782,
2728.930,153.65043,
2726.020,148.98206,
2723.109,144.10183,
2720.199,145.16872,
2717.288,150.96259,
2714.377,144.03762,
2711.467,146.26841,
2708.556,151.52384,
2705.646,151.49471,
2702.735,155.56058,
2699.825,166.04951,
2696.914,157.06545,
2694.003,148.18719,
2691.093,165.21435,
2688.182,157.71055,
2685.272,160.68012,
2682.361,151.99836,
2679.450,163.41408,
2676.540,163.05792,
2673.629,167.56112,
2670.719,161.44432,
2667.808,162.875,
2664.898,158.91391,
2661.987,161.30832,
2659.076,166.11207,
2656.166,155.24723,
2653.255,169.91241,
2650.345,161.81874,
2647.434,157.04648,
2644.524,163.12202,
2641.613,174.67513,
2638.702,181.79609,
2635.792,172.03153,
2632.881,166.98814,
2629.971,166.61998,
2627.060,180.04094,
2624.149,178.06564,
2621.239,172.63241,
2618.328,176.42603,
2615.418,186.88409,
2612.507,177.91059,
2609.597,180.3241,
2606.686,182.26456,
2603.775,191.07739,
2600.865,181.29133,
2597.954,178.875,
2595.044,175.24081,
2592.133,184.99619,
2589.223,188.74236,
2586.312,195.92523,
2583.401,196.89687,
2580.491,194.58651,
2577.580,181.8915,
2574.670,191.04479,
2571.759,188.32449,
2568.848,186.22858,
2565.938,182.01778,
2563.027,188.48412,
2560.117,184.05258,
2557.206,192.20341,
2554.296,190.90475,
2551.385,202.44507,
2548.474,184.83745,
2545.564,192.27354,
2542.653,206.56963,
2539.743,198.01055,
2536.832,195.93669,
2533.922,187.34808,
2531.011,210.55054,
2528.100,206.66946,
2525.190,196.52951,
2522.279,201.54671,
2519.369,194.27126,
2516.458,193.9869,
2513.548,201.34764,
2510.637,195.18241,
2507.726,203.62222,
2504.816,214.68785,
2501.905,205.5128,
2498.995,202.99444,
2496.084,205.18162,
2493.173,205.32235,
2490.263,208.06597,
2487.352,219.91673,
2484.442,217.45745,
2481.531,212.03454,
2478.621,205.6617,
2475.710,218.03602,
2472.799,233.69569,
2469.889,223.69219,
2466.978,226.26679,
2464.068,219.12895,
2461.157,232.64498,
2458.247,232.88967,
2455.336,225.57754,
2452.425,214.9599,
2449.515,220.10162,
2446.604,225.70221,
2443.694,229.75907,
2440.783,223.11036,
2437.872,213.67723,
2434.962,233.03629,
2432.051,224.46136,
2429.141,228.70431,
2426.230,247.76675,
2423.320,236.8324,
2420.409,229.65698,
2417.498,238.26826,
2414.588,242.32746,
2411.677,238.41287,
2408.767,244.02166,
2405.856,231.94635,
2402.946,245.13684,
2400.035,249.26937,
2397.124,233.0996,
2394.214,235.1994,
2391.303,234.26728,
2388.393,243.32619,
2385.482,250.69875,
2382.571,237.34298,
2379.661,251.36335,
2376.750,266.0301,
2373.840,270.95314,
2370.929,248.11325,
2368.019,256.52587,
2365.108,249.68914,
2362.197,258.62573,
2359.287,250.70675,
2356.376,265.84154,
2353.466,248.85957,
2350.555,256.82514,
2347.645,264.0591,
2344.734,249.11459,
2341.823,267.49359,
2338.913,250.60487,
2336.002,268.61662,
2333.092,277.75992,
2330.181,278.59368,
2327.270,279.70998,
2324.360,263.75705,
2321.449,276.84439,
2318.539,269.17162,
2315.628,282.89059,
2312.718,287.57544,
2309.807,286.69476,
2306.896,291.57609,
2303.986,274.61528,
2301.075,289.8324,
2298.165,282.71125,
2295.254,272.0258,
2292.344,267.92475,
2289.433,276.85954,
2286.522,291.35699,
2283.612,292.31375,
2280.701,272.75843,
2277.791,283.51433,
2274.880,281.72287,
2271.969,302.61985,
2269.059,294.75783,
2266.148,295.3341,
2263.238,309.3692,
2260.327,306.11628,
2257.417,298.72166,
2254.506,307.06588,
2251.595,310.44225,
2248.685,321.24036,
2245.774,308.55658,
2242.864,306.81016,
2239.953,308.3784,
2237.043,315.70607,
2234.132,307.26724,
2231.221,316.79755,
2228.311,312.43687,
2225.400,306.60678,
2222.490,330.20395,
2219.579,326.29404,
2216.669,339.84161,
2213.758,328.61093,
2210.847,343.86237,
2207.937,340.28218,
2205.026,352.43069,
2202.116,353.59474,
2199.205,366.05006,
2196.294,367.12299,
2193.384,373.13801,
2190.473,374.01702,
2187.563,368.98134,
2184.652,390.27255,
2181.742,393.6713,
2178.831,390.96831,
2175.920,388.4415,
2173.010,420.5513,
2170.099,411.27678,
2167.189,408.92523,
2164.278,417.1956,
2161.368,426.01772,
2158.457,436.07666,
2155.546,458.76829,
2152.636,447.9708,
2149.725,463.00921,
2146.815,450.47564,
2143.904,471.17982,
2140.993,480.31419,
2138.083,477.71084,
2135.172,487.3792,
2132.262,485.62324,
2129.351,493.18195,
2126.441,463.18558,
2123.530,458.94234,
2120.619,462.26043,
2117.709,440.60125,
2114.798,425.09807,
2111.888,428.4873,
2108.977,402.35842,
2106.067,405.3512,
2103.156,388.11945,
2100.245,371.86622,
2097.335,359.68128,
2094.424,373.11435,
2091.514,370.2997,
2088.603,378.11457,
2085.692,376.14276,
2082.782,365.28865,
2079.871,365.05353,
2076.961,361.13331,
2074.050,365.475,
2071.140,395.58775,
2068.229,384.79298,
2065.318,384.59201,
2062.408,380.70028,
2059.497,366.69049,
2056.587,364.78209,
2053.676,380.65719,
2050.766,378.41386,
2047.855,392.10607,
2044.944,370.53044,
2042.034,391.6321,
2039.123,363.23527,
2036.213,377.81505,
2033.302,380.91866,
2030.391,376.67145,
2027.481,388.80175,
2024.570,393.56067,
2021.660,385.40716,
2018.749,377.55883,
2015.839,392.9918,
2012.928,382.48406,
2010.017,382.03135,
2007.107,381.1797,
2004.196,394.82737,
2001.286,364.47576,
1998.375,355.61713,
1995.465,380.32678,
1992.554,362.2105,
1989.643,391.69983,
1986.733,364.76798,
1983.822,364.70883,
1980.912,372.0034,
1978.001,365.14588,
1975.090,371.304,
1972.180,365.18483,
1969.269,377.66813,
1966.359,371.19917,
1963.448,366.33603,
1960.538,357.94839,
1957.627,382.62425,
1954.716,378.10481,
1951.806,364.97436,
1948.895,367.38511,
1945.985,374.95997,
1943.074,383.86404,
1940.164,358.40368,
1937.253,352.62266,
1934.342,364.38783,
1931.432,374.53431,
1928.521,376.32923,
1925.611,388.29044,
1922.700,362.21755,
1919.790,359.04257,
1916.879,384.99176,
1913.968,373.89098,
1911.058,356.0732,
1908.147,361.53196,
1905.237,377.08822,
1902.326,366.18316,
1899.415,353.9067,
1896.505,347.91715,
1893.594,340.78657,
1890.684,348.78341,
1887.773,364.918,
1884.863,365.32375,
1881.952,388.98475,
1879.041,347.67717,
1876.131,362.63577,
1873.220,353.31299,
1870.310,378.72248,
1867.399,372.01894,
1864.489,364.32979,
1861.578,354.89117,
1858.667,393.58159,
1855.757,390.48001,
1852.846,385.88013,
1849.936,387.66579,
1847.025,370.7631,
1844.114,358.9574,
1841.204,385.28759,
1838.293,397.36585,
1835.383,402.875,
1832.472,393.3863,
1829.562,397.73464,
1826.651,410.71277,
1823.740,399.31559,
1820.830,403.13492,
1817.919,399.35999,
1815.009,379.89409,
1812.098,408.2923,
1809.188,388.42544,
1806.277,397.63155,
1803.366,423.35928,
1800.456,393.86423,
1797.545,413.45643,
1794.635,436.42396,
1791.724,418.38958,
1788.813,413.87886,
1785.903,425.64051,
1782.992,429.43537,
1780.082,428.31819,
1777.171,396.875,
1774.261,400.52507,
1771.350,398.96,
1768.439,412.41049,
1765.529,428.23513,
1762.618,404.42562,
1759.708,402.36413,
1756.797,416.39773,
1753.887,442.9785,
1750.976,437.95419,
1748.065,418.27285,
1745.155,439.70062,
1742.244,457.52355,
1739.334,417.10795,
1736.423,431.08243,
1733.512,439.78149,
1730.602,447.59922,
1727.691,460.08693,
1724.781,460.51527,
1721.870,486.4323,
1718.960,471.49696,
1716.049,476.9427,
1713.138,475.45502,
1710.228,484.44827,
1707.317,455.79957,
1704.407,458.16378,
1701.496,459.78655,
1698.586,510.69414,
1695.675,476.51095,
1692.764,470.08811,
1689.854,456.48129,
1686.943,482.93068,
1684.033,497.52729,
1681.122,523.4332,
1678.211,528.82741,
1675.301,533.85958,
1672.390,518.95276,
1669.480,544.99533,
1666.569,559.78613,
1663.659,553.72428,
1660.748,604.89428,
1657.837,605.56882,
1654.927,592.9996,
1652.016,638.63575,
1649.106,589.46254,
1646.195,613.52236,
1643.285,639.41927,
1640.374,619.39417,
1637.463,598.33418,
1634.553,677.77155,
1631.642,670.89672,
1628.732,673.39051,
1625.821,759.88743,
1622.911,778.76793,
1620.000,861.81671,
1617.089,908.93967,
1614.179,877.80563,
1611.268,982.78543,
1608.358,988.78135,
1605.447,981.33208,
1602.536,1033.9926,
1599.626,1086.6314,
1596.715,1060.0166,
1593.805,1021.1017,
1590.894,1012.4716,
1587.984,1030.0629,
1585.073,975.01946,
1582.162,1012.4635,
1579.252,967.04882,
1576.341,972.49839,
1573.431,999.58705,
1570.520,956.95487,
1567.610,947.09077,
1564.699,960.47548,
1561.788,909.24173,
1558.878,889.28882,
1555.967,863.78775,
1553.057,854.9784,
1550.146,859.10409,
1547.235,837.44259,
1544.325,832.62011,
1541.414,830.07386,
1538.504,829.60964,
1535.593,854.917,
1532.683,830.15134,
1529.772,812.64949,
1526.861,848.23076,
1523.951,842.09309,
1521.040,850.53243,
1518.130,844.57802,
1515.219,856.39324,
1512.309,891.10915,
1509.398,813.51948,
1506.487,816.41828,
1503.577,813.43773,
1500.666,785.23275,
1497.756,811.4936,
1494.845,805.47423,
1491.934,772.00099,
1489.024,810.5007,
1486.113,750.67877,
1483.203,760.97385,
1480.292,767.96607,
1477.382,750.28529,
1474.471,738.20121,
1471.560,712.65368,
1468.650,727.78958,
1465.739,730.54863,
1462.829,730.05272,
1459.918,709.67038,
1457.008,702.04437,
1454.097,705.48047,
1451.186,683.98332,
1448.276,686.90625,
1445.365,719.33867,
1442.455,707.77521,
1439.544,705.8487,
1436.633,729.53439,
1433.723,689.76547,
1430.812,657.2736,
1427.902,699.31126,
1424.991,675.6172,
1422.081,695.97697,
1419.170,680.59379,
1416.259,663.29387,
1413.349,713.49711,
1410.438,711.98095,
1407.528,704.51874,
1404.617,708.9849,
1401.707,702.86601,
1398.796,667.96948,
1395.885,657.3043,
1392.975,654.4154,
1390.064,586.51401,
1387.154,545.19196,
1384.243,489.97531,
1381.332,409.98165,
1378.422,424.96143,
1375.511,542.99583,
1372.601,637.9536,
1369.690,698.16557,
1366.780,668.06528,
1363.869,700.01067,
1360.958,735.68149,
1358.048,704.34317,
1355.137,734.75161,
1352.227,783.29981,
1349.316,786.42924,
1346.406,807.53849,
1343.495,823.875,
1340.584,826.73194,
1337.674,839.5534,
1334.763,838.25112,
1331.853,874.41314,
1328.942,900.77999,
1326.032,926.71238,
1323.121,865.1882,
1320.210,889.15537,
1317.300,931.76243,
1314.389,922.77735,
1311.479,873.47715,
1308.568,869.2022,
1305.657,927.99883,
1302.747,929.66186,
1299.836,934.70311,
1296.926,1004.1059,
1294.015,987.55805,
1291.105,1039.7075,
1288.194,1079.6235,
1285.283,1067.1109,
1282.373,1094.9452,
1279.462,1136.1883,
1276.552,1139.8671,
1273.641,1132.0875,
1270.731,1150.0496,
1267.820,1161.5512,
1264.909,1149.2377,
1261.999,1152.0082,
1259.088,1155.6566,
1256.178,1142.1717,
1253.267,1103.8168,
1250.356,1067.8166,
1247.446,1074.0635,
1244.535,1090.8393,
1241.625,1081.9565,
1238.714,1055.7137,
1235.804,1041.1857,
1232.893,1046.3742,
1229.982,1048.8631,
1227.072,1018.9878,
1224.161,999.22442,
1221.251,970.56169,
1218.340,941.14502,
1215.430,915.01055,
1212.519,909.66639,
1209.608,914.68562,
1206.698,921.13062,
1203.787,953.60364,
1200.877,937.49091,
1197.966,963.56652,
1195.055,960.60876,
1192.145,1026.7446,
1189.234,1070.2851,
1186.324,1114.0599,
1183.413,1117.9105,
1180.503,1101.3535,
1177.592,1124.9457,
1174.681,1120.988,
1171.771,1114.9162,
1168.860,1116.7024,
1165.950,1109.6184,
1163.039,1093.9069,
1160.129,1097.9025,
1157.218,1084.6841,
1154.307,1063.6171,
1151.397,1072.4347,
1148.486,1093.2756,
1145.576,1089.2968,
1142.665,1075.9781,
1139.754,1070.8069,
1136.844,1064.9729,
1133.933,1075.1916,
1131.023,1067.8237,
1128.112,1041.6619,
1125.202,1026.875,
1122.291,1029.5071,
1119.380,1047.6238,
1116.470,1022.0305,
1113.559,1019.6482,
1110.649,1032.9719,
1107.738,1034.5168,
1104.828,1018.2242,
1101.917,1011.9346,
1099.006,1039.2048,
1096.096,1052.7786,
1093.185,1018.5365,
1090.275,1047.4365,
1087.364,1066.5391,
1084.453,1074.6873,
1081.543,1084.3248,
1078.632,1094.5018,
1075.722,1095.1228,
1072.811,1090.9442,
1069.901,1077.8453,
1066.990,1075.2583,
1064.079,1072.8335,
1061.169,1092.8624,
1058.258,1104.7932,
1055.348,1092.5837,
1052.437,1083.3188,
1049.527,1100.1365,
1046.616,1081.0223,
1043.705,1068.8551,
1040.795,1077.3681,
1037.884,1085.898,
1034.974,1093.0889,
1032.063,1090.1908,
1029.153,1055.2638,
1026.242,1075.1578,
1023.331,1085.8744,
1020.421,1093.4518,
1017.510,1103.7189,
1014.600,1123.8317,
1011.689,1144.8705,
1008.778,1147.6758,
1005.868,1135.3383,
1002.957,1186.9596,
1000.047,1208.707,
997.136,1209.1764,
994.226,1215.2441,
991.315,1223.526,
988.404,1208.0927,
985.494,1167.7024,
982.583,1159.9934,
979.673,1150.8269,
976.762,1154.9202,
973.852,1148.3827,
970.941,1136.5424,
968.030,1141.2218,
965.120,1131.9215,
962.209,1143.0046,
959.299,1159.04,
956.388,1164.875,
953.477,1161.5868,
950.567,1159.7507,
947.656,1166.8723,
944.746,1159.2263,
941.835,1171.0222,
938.925,1187.036,
936.014,1206.5207,
933.103,1219.9343,
930.193,1218.8786,
927.282,1206.7375,
924.372,1204.2007,
921.461,1189.147,
918.551,1153.6665,
915.640,1122.9512,
912.729,1116.7788,
909.819,1134.9879,
906.908,1150.994,
903.998,1151.875,
901.087,1158.2401,
898.176,1154.7171,
895.266,1145.9228,
892.355,1150.7856,
889.445,1187.7134,
886.534,1203.7376,
883.624,1210.912,
880.713,1203.6886,
877.802,1196.612,
874.892,1204.2873,
871.981,1222.79,
869.071,1176.8423,
866.160,1199.2332,
863.250,1179.326,
860.339,1155.3185,
857.428,1169.362,
854.518,1180.0916,
851.607,1187.5803,
848.697,1206.0704,
845.786,1195.7112,
842.875,1201.2461,
839.965,1236.4088,
837.054,1207.0239,
834.144,1220.2839,
831.233,1221.5418,
828.323,1234.723,
825.412,1242.7577,
822.501,1228.2367,
819.591,1219.1463,
816.680,1206.8557,
813.770,1189.4654,
810.859,1177.2651,
807.949,1177.5604,
805.038,1188.3816,
802.127,1176.0347,
799.217,1188.292,
796.306,1176.4154,
793.396,1170.4934,
790.485,1184.876,
787.574,1199.4391,
784.664,1187.9575,
781.753,1224.7921,
778.843,1226.232,
775.932,1222.0723,
773.022,1247.7887,
770.111,1208.545,
767.200,1228.7144,
764.290,1230.0962,
761.379,1214.8467,
758.469,1198.7121,
755.558,1201.2186,
752.648,1179.2243,
749.737,1113.5128,
746.826,1064.091,
743.916,1000.4782,
741.005,859.73909,
738.095,628.35419,
735.184,441.41669,
732.274,428.36115,
729.363,591.89189,
726.452,855.27993,
723.542,1023.6337,
720.631,1116.2098,
717.721,1145.3121,
714.810,1163.1022,
711.899,1189.5681,
708.989,1196.8304,
706.078,1224.1193,
703.168,1206.5862,
700.257,1185.9241,
697.347,1189.0913,
694.436,1224.522,
691.525,1174.6861,
688.615,1171.4219,
685.704,1197.4597,
682.794,1224.4708,
679.883,1221.497,
676.973,1257.5586,
674.062,1213.8284,
671.151,1208.9832,
668.241,1237.7308,
665.330,1230.6481,
662.420,1225.8557,
659.509,1207.0969,
656.598,1233.226,
653.688,1277.8844,
650.777,1268.9011,
647.867,1299.1616,
644.956,1265.6302,
642.046,1252.4837,
639.135,1266.7789,
636.224,1258.7835,
633.314,1240.5229,
630.403,1229.3717,
627.493,1228.3317,
624.582,1228.0481,
621.672,1201.9123,
618.761,1213.034,
615.850,1224.0378,
612.940,1232.2657,
610.029,1237.6641,
607.119,1242.4019,
604.208,1237.9049,
601.297,1221.9165,
598.387,1211.028,
595.476,1214.5668,
592.566,1168.9168,
589.655,1191.9737,
586.745,1192.3842,
583.834,1161.6525,
580.923,1128.7518,
578.013,1108.3487,
575.102,1161.9546,
572.192,1214.0925,
569.281,1229.2968,
566.371,1231.6447,
563.460,1227.6422,
560.549,1221.0022,
557.639,1236.2858,
554.728,1290.791,
551.818,1273.6241,
548.907,1292.4233,
545.996,1295.9889,
543.086,1288.773,
540.175,1334.7131,
537.265,1312.5252,
534.354,1290.3327,
531.444,1282.3335,
528.533,1292.2195,
525.622,1268.9411,
522.712,1301.4937,
519.801,1320.5287,
516.891,1306.7103,
513.980,1281.1586,
511.070,1278.875,
508.159,1300.3655,
505.248,1323.6246,
502.338,1322.9654,
499.427,1326.0527,
496.517,1330.8346,
493.606,1340.2683,
490.695,1353.5169,
487.785,1358.1357,
484.874,1343.3656,
481.964,1334.875,
479.053,1330.0947,
476.143,1310.1277,
473.232,1316.7884,
470.321,1333.0126,
467.411,1337.5044,
464.500,1309.7586,
461.590,1305.1642,
458.679,1331.3897,
455.769,1345.3683,
452.858,1327.9885,
449.947,1338.6835,
447.037,1337.2344,
444.126,1331.178,
441.216,1330.5634,
438.305,1363.3265,
435.395,1344.2721,
432.484,1318.5389,
429.573,1303.2475,
426.663,1317.6902,
423.752,1352.3511,
420.842,1384.2291,
417.931,1386.1292,
415.020,1320.1521,
412.110,1360.3086,
409.199,1356.3151,
406.289,1335.383,
403.378,1333.875,
400.468,1333.875,
397.557,1322.5637,
394.646,1287.6339,
391.736,1220.6436,
388.825,1182.1778,
385.915,1164.4887,
383.004,1159.4461,
380.094,1161.7963,
377.183,1179.8558,
374.272,1264.1209,
371.362,1334.4069,
368.451,1343.9692,
365.541,1361.9821,
362.630,1386.5397,
359.719,1414.4177,
356.809,1439.6095,
353.898,1402.1696,
350.988,1392.4175,
348.077,1388.5189,
345.167,1378.7454,
342.256,1395.9279,
339.345,1396.6235,
336.435,1396.4837,
333.524,1406.4857,
330.614,1425.8597,
327.703,1414.9326,
324.793,1405.062,
321.882,1422.8786,
318.971,1424.3655,
316.061,1438.5478,
313.150,1434.3989,
310.240,1375.0296,
307.329,1433.6191,
304.418,1429.1499,
301.508,1376.1673,
298.597,1305.8277,
295.687,1238.9234,
292.776,1221.1251,
289.866,1274.085,
286.955,1450.6404,
284.044,1591.6224,
281.134,1686.6466,
278.223,1741.8508,
275.313,1796.3781,
272.402,1850.8618,
269.492,1896.7671,
266.581,1932.8163,
263.670,1987.9548,
260.760,2004.3974,
257.849,2015.91,
254.939,2047.4669,
252.028,2061.6281,
249.117,2031.2425,
246.207,1977.3209,
243.296,1932.6667,
240.386,1955.3007,
237.475,1949.8973,
234.565,1914.1939,
231.654,1890.8216,
228.743,1910.0405,
225.833,1905.0078,
222.922,1853.6224,
220.012,1869.6506,
217.101,1847.8856,
214.191,1825.339,
211.280,1843.5256,
208.369,1814.5984,
205.459,1757.9537,
202.548,1697.382,
199.638,1711.895,
196.727,1728.7042,
193.816,1738.574,
190.906,1738.5861,
187.995,1758.8587,
185.085,1761.6193,
182.174,1761.1844,
179.264,1777.0853,
176.353,1755.807,
173.442,1734.8987,
170.532,1714.3224,
167.621,1658.0864,
164.711,1609.2387,
161.800,1560.1969,
158.890,1505.4976,
155.979,1400.8529,
153.068,1305.8458,
150.158,1196.5207,
147.247,971.08369,
144.337,794.84852,
141.426,636.05551,
138.516,482.64079,
135.605,335.74681,
132.694,232.64585,
129.784,161.61046,
126.873,98.679037,
123.963,65.388475,
121.052,48.458554,
118.141,44.889044,
115.231,30.663593,
112.320,26.99318,
109.410,28.102382,
106.499,18.844364,
103.589,15.754491,
100.678,14.060135,
97.767,11.927322,
94.857,13.953967,
91.946,13.262557,
89.036,10.084715,
86.125,5.1202777,
83.215,6.5296018,
80.304,8.1567019,
77.393,6.0321921,
74.483,11.11608,
71.572,10.976183,
68.662,6.2213375,
65.751,9.7535929,
62.840,3.6494702,
59.930,-1.1284209,
57.019,10.152891,
54.109,5.9033915,
51.198,1.875,
48.288,1.9146371,
45.377,6.8382836,
42.466,11.760535,
39.556,15.875,
36.645,15.875,
33.735,13.798006,
30.824,12.537661,
27.914,14.641187,
25.003,11.139175,
22.092,15.655996,
19.182,30.561486,
16.271,51.54619,
13.361,186.31239,
10.450,474.05527,
7.539,1137.4549,
4.629,1857.1795,
1.718,2260.8283,
-1.192,1905.2846,
-4.103,1190.8309,
-7.013,527.51398,
-9.924,-2.125,
