,PL2B6E~1,
Wavenumbers [1/cm],Intensity,
3014.167,1.75,
3011.256,-1.2999034,
3008.346,255.36854,
3005.435,293.63339,
3002.525,298.05257,
2999.614,342.88897,
2996.704,342.93557,
2993.793,351.13076,
2990.882,355.78812,
2987.972,364.81054,
2985.061,391.82391,
2982.151,395.77856,
2979.240,413.28231,
2976.329,406.72816,
2973.419,437.11919,
2970.508,456.63324,
2967.598,450.84197,
2964.687,448.98777,
2961.777,476.71591,
2958.866,490.75297,
2955.955,499.65043,
2953.045,514.86858,
2950.134,517.22811,
2947.224,519.08803,
2944.313,552.16595,
2941.403,575.85812,
2938.492,566.92075,
2935.581,567.07273,
2932.671,584.54827,
2929.760,573.07692,
2926.850,581.17519,
2923.939,606.87151,
2921.028,614.85013,
2918.118,622.27141,
2915.207,634.33861,
2912.297,619.81347,
2909.386,618.53103,
2906.476,620.42414,
2903.565,621.1863,
2900.654,621.81975,
2897.744,625.54884,
2894.833,611.39945,
2891.923,603.2083,
2889.012,577.53613,
2886.102,578.8365,
2883.191,513.80098,
2880.280,423.97483,
2877.370,207.44805,
2874.459,135.46762,
2871.549,352.64611,
2868.638,569.4901,
2865.727,580.36149,
2862.817,621.15105,
2859.906,604.33403,
2856.996,652.22962,
2854.085,656.75,
2851.175,650.56319,
2848.264,676.81383,
2845.353,667.53433,
2842.443,657.3507,
2839.532,666.83949,
2836.622,692.04753,
2833.711,667.32771,
2830.801,656.16029,
2827.890,670.83392,
2824.979,691.08388,
2822.069,691.75,
2819.158,700.11119,
2816.248,715.99132,
2813.337,703.31707,
2810.427,717.30922,
2807.516,720.17453,
2804.605,709.18029,
2801.695,709.65788,
2798.784,731.68015,
2795.874,712.16423,
2792.963,709.03532,
2790.052,664.75751,
2787.142,695.28935,
2784.231,680.33075,
2781.321,706.05854,
2778.410,698.23984,
2775.500,707.87689,
2772.589,705.9419,
2769.678,705.7841,
2766.768,742.78111,
2763.857,720.27794,
2760.947,725.19641,
2758.036,723.52711,
2755.126,740.56623,
2752.215,736.04562,
2749.304,742.51619,
2746.394,730.80846,
2743.483,746.29995,
2740.573,738.00656,
2737.662,742.2071,
2734.751,751.30824,
2731.841,749.07417,
2728.930,752.72886,
2726.020,753.53588,
2723.109,768.61583,
2720.199,764.86885,
2717.288,757.27555,
2714.377,767.1041,
2711.467,774.24122,
2708.556,797.10116,
2705.646,792.05985,
2702.735,797.91753,
2699.825,803.15184,
2696.914,806.94045,
2694.003,807.52073,
2691.093,809.1784,
2688.182,791.00333,
2685.272,813.55512,
2682.361,811.96725,
2679.450,807.39207,
2676.540,821.29875,
2673.629,832.15367,
2670.719,814.88125,
2667.808,815.13908,
2664.898,821.15273,
2661.987,827.91694,
2659.076,826.53018,
2656.166,829.89709,
2653.255,844.12415,
2650.345,849.43058,
2647.434,862.35017,
2644.524,870.29437,
2641.613,863.14975,
2638.702,860.71844,
2635.792,879.94141,
2632.881,863.02954,
2629.971,862.28014,
2627.060,871.58656,
2624.149,859.53123,
2621.239,878.75593,
2618.328,877.93684,
2615.418,890.81362,
2612.507,870.19661,
2609.597,897.45459,
2606.686,884.6717,
2603.775,912.11509,
2600.865,900.46322,
2597.954,924.94166,
2595.044,926.10695,
2592.133,918.91559,
2589.223,951.63003,
2586.312,928.50875,
2583.401,940.0164,
2580.491,961.51434,
2577.580,942.78301,
2574.670,961.08958,
2571.759,966.65924,
2568.848,954.99299,
2565.938,949.46431,
2563.027,954.79995,
2560.117,967.47897,
2557.206,965.84594,
2554.296,965.92162,
2551.385,962.80796,
2548.474,950.00911,
2545.564,982.57875,
2542.653,961.21309,
2539.743,981.02203,
2536.832,998.23972,
2533.922,989.955,
2531.011,1004.6748,
2528.100,1007.6176,
2525.190,1012.0746,
2522.279,980.59416,
2519.369,993.52384,
2516.458,990.42139,
2513.548,995.75,
2510.637,996.99593,
2507.726,1001.6868,
2504.816,1021.1897,
2501.905,1020.953,
2498.995,1025.4514,
2496.084,1016.1507,
2493.173,1028.9613,
2490.263,1050.941,
2487.352,1053.8351,
2484.442,1077.326,
2481.531,1074.2766,
2478.621,1064.0011,
2475.710,1081.6273,
2472.799,1067.4764,
2469.889,1071.2957,
2466.978,1073.3582,
2464.068,1058.4695,
2461.157,1064.8299,
2458.247,1077.3235,
2455.336,1087.9614,
2452.425,1093.75,
2449.515,1089.3259,
2446.604,1115.5057,
2443.694,1112.8889,
2440.783,1108.0372,
2437.872,1142.6561,
2434.962,1120.5795,
2432.051,1131.9474,
2429.141,1132.2911,
2426.230,1119.8582,
2423.320,1148.6501,
2420.409,1152.5831,
2417.498,1156.1854,
2414.588,1160.0123,
2411.677,1194.9253,
2408.767,1172.2441,
2405.856,1155.2715,
2402.946,1169.2388,
2400.035,1173.8603,
2397.124,1185.9639,
2394.214,1180.7232,
2391.303,1152.7392,
2388.393,1137.2012,
2385.482,1157.9569,
2382.571,1119.6367,
2379.661,1128.889,
2376.750,1197.1144,
2373.840,1225.4374,
2370.929,1223.815,
2368.019,1220.9427,
2365.108,1228.0746,
2362.197,1232.3746,
2359.287,1250.3049,
2356.376,1232.7905,
2353.466,1247.476,
2350.555,1249.3694,
2347.645,1236.3672,
2344.734,1259.1463,
2341.823,1295.2028,
2338.913,1265.1903,
2336.002,1297.2451,
2333.092,1300.417,
2330.181,1279.4508,
2327.270,1305.0998,
2324.360,1302.0518,
2321.449,1331.0425,
2318.539,1311.7897,
2315.628,1329.8068,
2312.718,1312.3028,
2309.807,1327.0043,
2306.896,1354.7265,
2303.986,1344.4448,
2301.075,1334.7288,
2298.165,1348.9042,
2295.254,1347.8793,
2292.344,1363.6463,
2289.433,1350.36,
2286.522,1342.4241,
2283.612,1383.2526,
2280.701,1384.037,
2277.791,1388.2691,
2274.880,1379.104,
2271.969,1392.7788,
2269.059,1391.2541,
2266.148,1403.4478,
2263.238,1420.6457,
2260.327,1428.4397,
2257.417,1435.8522,
2254.506,1435.4138,
2251.595,1445.4627,
2248.685,1446.75,
2245.774,1455.7608,
2242.864,1435.6951,
2239.953,1462.8397,
2237.043,1460.9189,
2234.132,1475.4149,
2231.221,1487.1712,
2228.311,1471.223,
2225.400,1507.6656,
2222.490,1511.9912,
2219.579,1541.3567,
2216.669,1546.7023,
2213.758,1563.2729,
2210.847,1543.3747,
2207.937,1550.2207,
2205.026,1569.0826,
2202.116,1591.9453,
2199.205,1605.8124,
2196.294,1624.486,
2193.384,1657.3545,
2190.473,1635.7207,
2187.563,1665.011,
2184.652,1724.3226,
2181.742,1767.2742,
2178.831,1800.466,
2175.920,1877.6954,
2173.010,1949.5017,
2170.099,2053.939,
2167.189,2134.5608,
2164.278,2257.3148,
2161.368,2366.7442,
2158.457,2519.7929,
2155.546,2651.079,
2152.636,2818.3933,
2149.725,2954.1258,
2146.815,3086.8125,
2143.904,3182.0956,
2140.993,3300.1996,
2138.083,3340.7985,
2135.172,3391.5569,
2132.262,3400.9806,
2129.351,3366.3188,
2126.441,3247.3128,
2123.530,3171.1225,
2120.619,3012.8882,
2117.709,2872.2862,
2114.798,2689.6379,
2111.888,2522.0914,
2108.977,2341.7499,
2106.067,2213.9457,
2103.156,2115.964,
2100.245,2020.7218,
2097.335,1965.9961,
2094.424,1889.963,
2091.514,1837.5669,
2088.603,1781.1924,
2085.692,1778.5642,
2082.782,1739.0634,
2079.871,1712.785,
2076.961,1702.2666,
2074.050,1754.5318,
2071.140,1676.899,
2068.229,1682.2513,
2065.318,1639.2945,
2062.408,1663.7349,
2059.497,1667.756,
2056.587,1674.0057,
2053.676,1659.4177,
2050.766,1664.0572,
2047.855,1661.6963,
2044.944,1626.5481,
2042.034,1637.4379,
2039.123,1648.2685,
2036.213,1644.8056,
2033.302,1648.9675,
2030.391,1635.5976,
2027.481,1646.884,
2024.570,1656.807,
2021.660,1676.5674,
2018.749,1694.1924,
2015.839,1655.4226,
2012.928,1651.9346,
2010.017,1640.3591,
2007.107,1656.5145,
2004.196,1649.0358,
2001.286,1661.3542,
1998.375,1654.0955,
1995.465,1601.9804,
1992.554,1632.5732,
1989.643,1644.5426,
1986.733,1573.6026,
1983.822,1634.2736,
1980.912,1597.6319,
1978.001,1618.3437,
1975.090,1585.7958,
1972.180,1585.1276,
1969.269,1618.4684,
1966.359,1623.9121,
1963.448,1568.8834,
1960.538,1598.4406,
1957.627,1603.5085,
1954.716,1578.4682,
1951.806,1603.21,
1948.895,1571.4545,
1945.985,1560.2435,
1943.074,1572.4217,
1940.164,1558.3942,
1937.253,1540.1025,
1934.342,1505.6559,
1931.432,1505.1412,
1928.521,1546.5186,
1925.611,1531.5945,
1922.700,1487.884,
1919.790,1490.0851,
1916.879,1508.4945,
1913.968,1552.6971,
1911.058,1493.9662,
1908.147,1479.3778,
1905.237,1529.294,
1902.326,1466.0448,
1899.415,1485.1305,
1896.505,1407.7737,
1893.594,1401.3629,
1890.684,1466.3381,
1887.773,1488.3706,
1884.863,1497.4903,
1881.952,1510.5149,
1879.041,1500.3767,
1876.131,1503.0794,
1873.220,1466.3959,
1870.310,1490.454,
1867.399,1525.2222,
1864.489,1520.2437,
1861.578,1507.0962,
1858.667,1504.4176,
1855.757,1532.9242,
1852.846,1558.4833,
1849.936,1532.4257,
1847.025,1509.5675,
1844.114,1553.2465,
1841.204,1562.8654,
1838.293,1558.7267,
1835.383,1581.494,
1832.472,1575.703,
1829.562,1583.9977,
1826.651,1587.596,
1823.740,1602.2213,
1820.830,1581.7419,
1817.919,1579.4506,
1815.009,1597.0184,
1812.098,1592.5689,
1809.188,1611.4476,
1806.277,1630.3516,
1803.366,1597.4487,
1800.456,1638.9149,
1797.545,1641.3812,
1794.635,1635.17,
1791.724,1622.3713,
1788.813,1647.7526,
1785.903,1639.1009,
1782.992,1560.8751,
1780.082,1465.0212,
1777.171,1377.0744,
1774.261,1367.8405,
1771.350,1476.236,
1768.439,1615.202,
1765.529,1676.2065,
1762.618,1682.4694,
1759.708,1677.7935,
1756.797,1700.1894,
1753.887,1733.5459,
1750.976,1740.4431,
1748.065,1755.7976,
1745.155,1756.892,
1742.244,1713.6704,
1739.334,1765.2747,
1736.423,1784.3257,
1733.512,1772.2012,
1730.602,1783.9623,
1727.691,1818.6888,
1724.781,1830.1097,
1721.870,1827.5309,
1718.960,1839.0835,
1716.049,1840.0721,
1713.138,1867.9649,
1710.228,1866.6579,
1707.317,1876.3649,
1704.407,1885.8356,
1701.496,1892.2193,
1698.586,1900.1419,
1695.675,1864.2574,
1692.764,1970.623,
1689.854,1953.7894,
1686.943,1952.75,
1684.033,2003.4585,
1681.122,2009.665,
1678.211,2060.2646,
1675.301,2064.7377,
1672.390,2132.9414,
1669.480,2196.9907,
1666.569,2226.7881,
1663.659,2230.3543,
1660.748,2268.0804,
1657.837,2335.7937,
1654.927,2338.9917,
1652.016,2391.7706,
1649.106,2435.2226,
1646.195,2535.4283,
1643.285,2603.8411,
1640.374,2608.9416,
1637.463,2667.5062,
1634.553,2820.144,
1631.642,2980.7706,
1628.732,3075.0595,
1625.821,3294.8998,
1622.911,3522.4596,
1620.000,3702.4696,
1617.089,3960.556,
1614.179,4221.3331,
1611.268,4563.8121,
1608.358,4760.7131,
1605.447,4956.4372,
1602.536,5010.6168,
1599.626,5067.1061,
1596.715,5002.7723,
1593.805,5028.8403,
1590.894,4918.2629,
1587.984,4899.2856,
1585.073,4800.0553,
1582.162,4781.0802,
1579.252,4705.4663,
1576.341,4648.6968,
1573.431,4705.3198,
1570.520,4667.9505,
1567.610,4615.7299,
1564.699,4550.8228,
1561.788,4441.3142,
1558.878,4396.2396,
1555.967,4320.7375,
1553.057,4229.5264,
1550.146,4120.0884,
1547.235,4020.5723,
1544.325,3915.624,
1541.414,3842.3079,
1538.504,3798.5185,
1535.593,3747.9174,
1532.683,3682.7015,
1529.772,3613.8941,
1526.861,3584.1523,
1523.951,3582.5137,
1521.040,3567.1026,
1518.130,3515.4608,
1515.219,3459.9893,
1512.309,3472.3536,
1509.398,3417.3416,
1506.487,3326.0895,
1503.577,3254.8647,
1500.666,3267.8933,
1497.756,3179.1565,
1494.845,3146.6694,
1491.934,3120.5736,
1489.024,3066.674,
1486.113,3032.2975,
1483.203,2997.776,
1480.292,2946.2334,
1477.382,2880.3644,
1474.471,2776.1993,
1471.560,2745.8473,
1468.650,2763.1984,
1465.739,2748.0519,
1462.829,2678.0523,
1459.918,2629.8052,
1457.008,2642.5656,
1454.097,2642.8772,
1451.186,2623.9086,
1448.276,2656.3158,
1445.365,2694.6773,
1442.455,2671.0038,
1439.544,2655.3776,
1436.633,2680.177,
1433.723,2667.5158,
1430.812,2628.3858,
1427.902,2599.9226,
1424.991,2649.2062,
1422.081,2570.012,
1419.170,2659.5248,
1416.259,2626.1462,
1413.349,2613.2395,
1410.438,2640.7412,
1407.528,2591.5945,
1404.617,2580.648,
1401.707,2550.1152,
1398.796,2547.9282,
1395.885,2589.6831,
1392.975,2588.8751,
1390.064,2579.5061,
1387.154,2551.7222,
1384.243,2573.8896,
1381.332,2612.4381,
1378.422,2577.2373,
1375.511,2722.4383,
1372.601,2810.456,
1369.690,2848.61,
1366.780,2957.5066,
1363.869,3002.9119,
1360.958,3039.4597,
1358.048,3128.3207,
1355.137,3180.8527,
1352.227,3220.2666,
1349.316,3332.7951,
1346.406,3429.2127,
1343.495,3447.109,
1340.584,3571.4284,
1337.674,3599.8301,
1334.763,3734.3146,
1331.853,3749.1503,
1328.942,3813.7914,
1326.032,3854.3748,
1323.121,3972.1537,
1320.210,4070.0169,
1317.300,4143.4272,
1314.389,4257.5155,
1311.479,4375.1963,
1308.568,4436.2441,
1305.657,4502.5461,
1302.747,4645.8325,
1299.836,4779.4628,
1296.926,5006.3985,
1294.015,5170.9574,
1291.105,5337.1281,
1288.194,5473.769,
1285.283,5628.0505,
1282.373,5779.6324,
1279.462,5933.1796,
1276.552,6042.3407,
1273.641,6095.0731,
1270.731,6113.2231,
1267.820,6100.6441,
1264.909,6135.1021,
1261.999,6165.0523,
1259.088,6118.5341,
1256.178,5995.8461,
1253.267,5899.7976,
1250.356,5677.6374,
1247.446,5456.6037,
1244.535,5250.8039,
1241.625,5033.6503,
1238.714,4833.3276,
1235.804,4669.027,
1232.893,4515.6314,
1229.982,4483.1623,
1227.072,4377.2408,
1224.161,4283.1781,
1221.251,4227.291,
1218.340,4143.1385,
1215.430,4099.7952,
1212.519,4080.8089,
1209.608,4022.3512,
1206.698,3962.7929,
1203.787,3992.2223,
1200.877,3936.1579,
1197.966,4039.5612,
1195.055,4121.5424,
1192.145,4236.1814,
1189.234,4399.5085,
1186.324,4487.7517,
1183.413,4525.7145,
1180.503,4542.6088,
1177.592,4514.3358,
1174.681,4495.3151,
1171.771,4463.4519,
1168.860,4407.1872,
1165.950,4371.9173,
1163.039,4388.4957,
1160.129,4402.2891,
1157.218,4372.06,
1154.307,4336.0079,
1151.397,4332.9252,
1148.486,4313.5136,
1145.576,4232.1332,
1142.665,4217.9266,
1139.754,4210.241,
1136.844,4187.0406,
1133.933,4132.0025,
1131.023,4111.5524,
1128.112,4114.3944,
1125.202,4090.9191,
1122.291,4082.6436,
1119.380,4130.1524,
1116.470,4069.2579,
1113.559,4063.2965,
1110.649,4048.0337,
1107.738,4038.6784,
1104.828,4040.2466,
1101.917,4021.8556,
1099.006,3985.1723,
1096.096,4055.3849,
1093.185,4016.7527,
1090.275,4054.2135,
1087.364,4080.2169,
1084.453,4140.0592,
1081.543,4201.7846,
1078.632,4227.4964,
1075.722,4222.8694,
1072.811,4215.0603,
1069.901,4219.4266,
1066.990,4158.3168,
1064.079,4125.3761,
1061.169,4144.9174,
1058.258,4145.3053,
1055.348,4144.1458,
1052.437,4218.5217,
1049.527,4236.6423,
1046.616,4207.9709,
1043.705,4244.059,
1040.795,4196.3691,
1037.884,4223.9443,
1034.974,4274.4394,
1032.063,4274.4879,
1029.153,4330.047,
1026.242,4374.1598,
1023.331,4414.0809,
1020.421,4429.4181,
1017.510,4438.3528,
1014.600,4460.936,
1011.689,4490.3111,
1008.778,4507.1746,
1005.868,4539.723,
1002.957,4648.1276,
1000.047,4801.6141,
997.136,5023.6618,
994.226,5176.3187,
991.315,5211.5743,
988.404,5194.724,
985.494,5167.3307,
982.583,5103.9455,
979.673,5072.8006,
976.762,5116.415,
973.852,5150.0979,
970.941,5146.1572,
968.030,5154.0681,
965.120,5207.0078,
962.209,5268.3908,
959.299,5251.8365,
956.388,5218.9114,
953.477,5225.5896,
950.567,5251.3844,
947.656,5233.3205,
944.746,5275.7983,
941.835,5263.1734,
938.925,5266.3305,
936.014,5247.4937,
933.103,5212.6855,
930.193,5176.1653,
927.282,5123.2294,
924.372,5076.7211,
921.461,5025.0932,
918.551,4911.1532,
915.640,4814.8284,
912.729,4764.4537,
909.819,4718.413,
906.908,4685.5584,
903.998,4689.3175,
901.087,4684.3849,
898.176,4711.2905,
895.266,4764.1113,
892.355,4819.8854,
889.445,4895.4194,
886.534,4934.989,
883.624,4966.972,
880.713,5006.3092,
877.802,4969.1773,
874.892,4798.0891,
871.981,4563.2459,
869.071,4330.1657,
866.160,4477.419,
863.250,4710.6236,
860.339,4852.9095,
857.428,4874.3589,
854.518,4906.1041,
851.607,4745.5148,
848.697,4519.6587,
845.786,4457.7742,
842.875,4533.3859,
839.965,4664.188,
837.054,4839.6384,
834.144,4829.6933,
831.233,4782.4199,
828.323,4758.2663,
825.412,4723.9098,
822.501,4653.4095,
819.591,4645.9719,
816.680,4545.5896,
813.770,4454.3407,
810.859,4418.3599,
807.949,4412.2768,
805.038,4382.1615,
802.127,4360.7602,
799.217,4355.023,
796.306,4321.966,
793.396,4290.7423,
790.485,4284.3828,
787.574,4304.023,
784.664,4363.8912,
781.753,4368.7111,
778.843,4424.0698,
775.932,4506.9718,
773.022,4552.6925,
770.111,4526.53,
767.200,4407.5079,
764.290,4359.7703,
761.379,4348.2052,
758.469,4336.0535,
755.558,4310.9688,
752.648,4318.3002,
749.737,4318.4444,
746.826,4308.8918,
743.916,4264.1261,
741.005,4167.597,
738.095,4104.2706,
735.184,4000.2169,
732.274,3973.8456,
729.363,4039.2193,
726.452,4164.2913,
723.542,4261.4185,
720.631,4305.7415,
717.721,4337.7996,
714.810,4372.5453,
711.899,4407.0074,
708.989,4416.6905,
706.078,4399.1213,
703.168,4381.9984,
700.257,4370.4494,
697.347,4349.6647,
694.436,4292.1428,
691.525,4306.6113,
688.615,4280.8201,
685.704,4299.1489,
682.794,4343.1756,
679.883,4333.4524,
676.973,4304.6031,
674.062,4337.673,
671.151,4350.9834,
668.241,4335.2233,
665.330,4320.5987,
662.420,4317.4038,
659.509,4293.2576,
656.598,4293.598,
653.688,4338.895,
650.777,4429.723,
647.867,4428.9267,
644.956,4369.3116,
642.046,4260.6099,
639.135,4170.6977,
636.224,4215.933,
633.314,4252.4542,
630.403,4280.6687,
627.493,4294.1341,
624.582,4291.7483,
621.672,4278.2844,
618.761,4210.1154,
615.850,4271.9492,
612.940,4331.5532,
610.029,4322.3261,
607.119,4361.8077,
604.208,4308.2389,
601.297,4307.1833,
598.387,4327.1703,
595.476,4317.1103,
592.566,4278.544,
589.655,4223.8061,
586.745,4198.6179,
583.834,4192.5037,
580.923,4166.6457,
578.013,4149.3816,
575.102,4179.1653,
572.192,4231.1891,
569.281,4275.6568,
566.371,4258.4391,
563.460,4273.6812,
560.549,4303.1648,
557.639,4333.1955,
554.728,4353.115,
551.818,4390.5702,
548.907,4393.2653,
545.996,4353.5926,
543.086,4313.3585,
540.175,4390.4444,
537.265,4412.4084,
534.354,4434.8041,
531.444,4449.0781,
528.533,4446.9021,
525.622,4477.1641,
522.712,4545.0321,
519.801,4623.7018,
516.891,4685.6545,
513.980,4680.2344,
511.070,4720.6021,
508.159,4757.8078,
505.248,4827.5692,
502.338,4973.2803,
499.427,5059.7255,
496.517,5137.053,
493.606,5199.6125,
490.695,5244.2805,
487.785,5269.6836,
484.874,5244.6699,
481.964,5225.4278,
479.053,5215.2343,
476.143,5192.1954,
473.232,5191.4694,
470.321,5189.8037,
467.411,5181.1652,
464.500,5163.4178,
461.590,5229.2715,
458.679,5270.8624,
455.769,5335.4343,
452.858,5436.1021,
449.947,5449.0889,
447.037,5479.661,
444.126,5552.4651,
441.216,5644.824,
438.305,5639.4905,
435.395,5636.1275,
432.484,5660.5886,
429.573,5687.3424,
426.663,5647.0549,
423.752,5267.1437,
420.842,4852.116,
417.931,4600.3686,
415.020,4767.9657,
412.110,5350.2612,
409.199,5718.718,
406.289,5861.1038,
403.378,5794.3812,
400.468,5685.518,
397.557,5766.9478,
394.646,5921.7307,
391.736,6045.078,
388.825,6086.5607,
385.915,6105.1363,
383.004,6141.3031,
380.094,6215.7922,
377.183,6177.4159,
374.272,6236.7687,
371.362,6303.1082,
368.451,6324.0782,
365.541,6378.8673,
362.630,6390.4726,
359.719,6398.9968,
356.809,6424.3907,
353.898,6401.9268,
350.988,6411.4821,
348.077,6435.2047,
345.167,6457.5713,
342.256,6394.8176,
339.345,6378.8757,
336.435,6390.4657,
333.524,6417.0418,
330.614,6458.0254,
327.703,6481.5315,
324.793,6509.7954,
321.882,6561.7861,
318.971,6576.6549,
316.061,6617.3969,
313.150,6681.0785,
310.240,6765.6797,
307.329,6778.0403,
304.418,6806.8274,
301.508,6814.3007,
298.597,6729.8932,
295.687,6802.6644,
292.776,6855.3334,
289.866,6898.7922,
286.955,7008.1236,
284.044,7083.8374,
281.134,7127.2666,
278.223,7147.139,
275.313,7183.9818,
272.402,7146.4396,
269.492,7096.0062,
266.581,7055.4903,
263.670,7023.8776,
260.760,7122.361,
257.849,7267.1995,
254.939,7400.0323,
252.028,7396.6831,
249.117,7415.3072,
246.207,7448.2735,
243.296,7481.2151,
240.386,7493.8919,
237.475,7512.9649,
234.565,7543.4573,
231.654,7592.393,
228.743,7498.6084,
225.833,7460.1669,
222.922,7545.5417,
220.012,7498.1856,
217.101,7453.7978,
214.191,7439.2678,
211.280,7490.9176,
208.369,7474.5656,
205.459,7463.153,
202.548,7458.8698,
199.638,7447.985,
196.727,7457.2743,
193.816,7482.6073,
190.906,7520.4041,
187.995,7482.0308,
185.085,7483.8814,
182.174,7526.8025,
179.264,7622.9304,
176.353,7640.7986,
173.442,7626.6221,
170.532,7591.5577,
167.621,7564.1607,
164.711,7453.7387,
161.800,7259.0035,
158.890,6961.0362,
155.979,6640.6838,
153.068,6201.4846,
150.158,5635.671,
147.247,4900.4879,
144.337,4067.5828,
141.426,3217.0908,
138.516,2383.3463,
135.605,1696.9571,
132.694,1151.5941,
129.784,744.03673,
126.873,509.47414,
123.963,349.64318,
121.052,236.13779,
118.141,164.03369,
115.231,137.4589,
112.320,113.61729,
109.410,92.477474,
106.499,75.385748,
103.589,67.267964,
100.678,59.947296,
97.767,49.99417,
94.857,49.75,
91.946,53.377998,
89.036,57.282327,
86.125,48.062659,
83.215,37.255274,
80.304,31.426029,
77.393,36.383218,
74.483,36.75,
71.572,34.938239,
68.662,31.47293,
65.751,28.647126,
62.840,26.304894,
59.930,26.24829,
57.019,31.888945,
54.109,22.598266,
51.198,19.97253,
48.288,29.670726,
45.377,19.823433,
42.466,17.398877,
39.556,19.059289,
36.645,14.846147,
33.735,12.711503,
30.824,12.633548,
27.914,15.438249,
25.003,16.372637,
22.092,16.427095,
19.182,15.498289,
16.271,7.8038971,
13.361,-20.116021,
10.450,-100.28268,
7.539,-367.73746,
4.629,-660.30239,
1.718,-843.59195,
-1.192,-759.93461,
-4.103,-501.92852,
-7.013,-238.27435,
-9.924,-0.25,
