,PL4BF0~1,
Raman shift [1/cm],Intensity,
3014.167,-1.125,
3011.256,0.82509663,
3008.346,317.72874,
3005.435,390.99161,
3002.525,409.55509,
2999.614,416.19323,
2996.704,442.875,
2993.793,434.36118,
2990.882,445.43988,
2987.972,471.80942,
2985.061,465.0819,
2982.151,471.11365,
2979.240,510.875,
2976.329,511.62637,
2973.419,556.32121,
2970.508,561.89162,
2967.598,566.9742,
2964.687,587.44226,
2961.777,585.875,
2958.866,596.86906,
2955.955,617.77543,
2953.045,619.29561,
2950.134,652.11991,
2947.224,650.75753,
2944.313,686.26816,
2941.403,696.35128,
2938.492,722.31132,
2935.581,737.14369,
2932.671,709.59604,
2929.760,724.49809,
2926.850,730.97951,
2923.939,755.62728,
2921.028,748.73937,
2918.118,772.875,
2915.207,795.83098,
2912.297,778.01886,
2909.386,806.10857,
2906.476,819.06882,
2903.565,805.14982,
2900.654,800.99228,
2897.744,813.43497,
2894.833,782.17391,
2891.923,775.5224,
2889.012,785.5802,
2886.102,802.51959,
2883.191,792.88822,
2880.280,795.59748,
2877.370,774.88666,
2874.459,779.52899,
2871.549,787.63845,
2868.638,806.82964,
2865.727,843.6942,
2862.817,851.96056,
2859.906,814.74963,
2856.996,837.9067,
2854.085,837.91703,
2851.175,830.64001,
2848.264,846.875,
2845.353,847.0044,
2842.443,840.09728,
2839.532,815.4422,
2836.622,839.89714,
2833.711,820.85933,
2830.801,815.49411,
2827.890,831.92049,
2824.979,854.08498,
2822.069,892.49972,
2819.158,867.09603,
2816.248,875.13947,
2813.337,886.40062,
2810.427,874.875,
2807.516,864.77438,
2804.605,873.99278,
2801.695,863.40133,
2798.784,870.57931,
2795.874,877.46606,
2792.963,850.51766,
2790.052,878.86792,
2787.142,870.90123,
2784.231,887.42155,
2781.321,882.06358,
2778.410,878.23542,
2775.500,862.74811,
2772.589,886.06538,
2769.678,870.33569,
2766.768,881.00509,
2763.857,903.45303,
2760.947,901.40967,
2758.036,927.20633,
2755.126,916.2062,
2752.215,917.08858,
2749.304,930.32102,
2746.394,908.72176,
2743.483,919.57497,
2740.573,933.85955,
2737.662,917.58652,
2734.751,933.36065,
2731.841,929.01053,
2728.930,937.18015,
2726.020,944.55903,
2723.109,941.02992,
2720.199,948.10929,
2717.288,964.76916,
2714.377,963.65008,
2711.467,960.80907,
2708.556,977.39626,
2705.646,997.31167,
2702.735,992.68168,
2699.825,972.74411,
2696.914,1004.7805,
2694.003,975.5823,
2691.093,1019.3925,
2688.182,997.41944,
2685.272,978.19363,
2682.361,990.1512,
2679.450,1004.9984,
2676.540,996.93597,
2673.629,1002.8615,
2670.719,1001.167,
2667.808,1016.8537,
2664.898,1020.6153,
2661.987,1027.2418,
2659.076,1035.4935,
2656.166,1058.3253,
2653.255,1042.8376,
2650.345,1047.0111,
2647.434,1065.1322,
2644.524,1067.875,
2641.613,1079.5324,
2638.702,1077.0012,
2635.792,1074.1532,
2632.881,1082.286,
2629.971,1067.385,
2627.060,1084.875,
2624.149,1088.55,
2621.239,1088.3661,
2618.328,1102.9425,
2615.418,1075.2386,
2612.507,1073.6655,
2609.597,1110.8451,
2606.686,1113.1341,
2603.775,1125.752,
2600.865,1131.9297,
2597.954,1126.2645,
2595.044,1156.1877,
2592.133,1152.3144,
2589.223,1163.815,
2586.312,1176.875,
2583.401,1178.2217,
2580.491,1196.5721,
2577.580,1184.8436,
2574.670,1166.1517,
2571.759,1169.0771,
2568.848,1195.5713,
2565.938,1184.4941,
2563.027,1180.875,
2560.117,1199.9405,
2557.206,1205.4506,
2554.296,1195.7697,
2551.385,1230.371,
2548.474,1225.1713,
2545.564,1213.2549,
2542.653,1213.7676,
2539.743,1251.4797,
2536.832,1251.9367,
2533.922,1238.9854,
2531.011,1242.8503,
2528.100,1259.3977,
2525.190,1272.1787,
2522.279,1269.4212,
2519.369,1244.7049,
2516.458,1258.6547,
2513.548,1284.3383,
2510.637,1279.2764,
2507.726,1256.7486,
2504.816,1270.4387,
2501.905,1290.0488,
2498.995,1282.875,
2496.084,1283.4882,
2493.173,1299.7965,
2490.263,1325.4366,
2487.352,1295.8349,
2484.442,1314.7422,
2481.531,1307.9282,
2478.621,1335.7471,
2475.710,1332.921,
2472.799,1343.561,
2469.889,1340.9082,
2466.978,1338.7511,
2464.068,1381.2667,
2461.157,1368.8326,
2458.247,1354.0074,
2455.336,1376.0003,
2452.425,1350.2146,
2449.515,1387.0642,
2446.604,1401.7668,
2443.694,1384.5493,
2440.783,1407.1655,
2437.872,1403.8231,
2434.962,1426.7736,
2432.051,1409.6587,
2429.141,1438.4451,
2426.230,1443.6573,
2423.320,1426.7605,
2420.409,1432.3366,
2417.498,1432.6531,
2414.588,1435.4225,
2411.677,1455.3013,
2408.767,1455.3051,
2405.856,1487.2727,
2402.946,1462.2914,
2400.035,1480.3515,
2397.124,1485.4365,
2394.214,1498.6338,
2391.303,1499.19,
2388.393,1510.003,
2385.482,1502.6241,
2382.571,1523.2041,
2379.661,1512.5962,
2376.750,1522.5521,
2373.840,1537.8157,
2370.929,1537.8533,
2368.019,1547.3916,
2365.108,1570.9692,
2362.197,1567.2367,
2359.287,1575.27,
2356.376,1574.8768,
2353.466,1588.1917,
2350.555,1605.1348,
2347.645,1587.8101,
2344.734,1594.2713,
2341.823,1647.0458,
2338.913,1609.6049,
2336.002,1633.9204,
2333.092,1652.0703,
2330.181,1659.8929,
2327.270,1645.7551,
2324.360,1668.908,
2321.449,1691.6437,
2318.539,1686.4071,
2315.628,1684.3878,
2312.718,1688.1746,
2309.807,1680.0363,
2306.896,1691.0878,
2303.986,1682.966,
2301.075,1697.6622,
2298.165,1666.759,
2295.254,1692.121,
2292.344,1704.0824,
2289.433,1712.8518,
2286.522,1718.6829,
2283.612,1702.2729,
2280.701,1740.9377,
2277.791,1766.314,
2274.880,1754.373,
2271.969,1770.3194,
2269.059,1785.7578,
2266.148,1780.4977,
2263.238,1804.9638,
2260.327,1828.1853,
2257.417,1815.0794,
2254.506,1810.1571,
2251.595,1808.886,
2248.685,1806.5038,
2245.774,1822.3913,
2242.864,1822.653,
2239.953,1834.7853,
2237.043,1846.0575,
2234.132,1866.5841,
2231.221,1865.0584,
2228.311,1876.6624,
2225.400,1898.1415,
2222.490,1932.9628,
2219.579,1894.9007,
2216.669,1936.1866,
2213.758,1977.8319,
2210.847,2008.6986,
2207.937,1957.3588,
2205.026,2022.8753,
2202.116,2010.4175,
2199.205,2016.0237,
2196.294,2061.5449,
2193.384,2067.6385,
2190.473,2038.9935,
2187.563,2081.8508,
2184.652,2084.4056,
2181.742,2143.127,
2178.831,2190.2291,
2175.920,2217.1956,
2173.010,2271.6533,
2170.099,2396.196,
2167.189,2451.9083,
2164.278,2604.5594,
2161.368,2695.4423,
2158.457,2833.1339,
2155.546,2962.2963,
2152.636,3122.4545,
2149.725,3325.0024,
2146.815,3368.4412,
2143.904,3536.6965,
2140.993,3601.6791,
2138.083,3660.2883,
2135.172,3713.6651,
2132.262,3752.6444,
2129.351,3775.2234,
2126.441,3696.8262,
2123.530,3626.123,
2120.619,3538.1328,
2117.709,3372.6057,
2114.798,3248.9207,
2111.888,3076.7922,
2108.977,2933.2789,
2106.067,2814.0778,
2103.156,2695.0117,
2100.245,2545.8487,
2097.335,2494.4823,
2094.424,2430.9013,
2091.514,2429.356,
2088.603,2379.8382,
2085.692,2336.232,
2082.782,2336.8388,
2079.871,2311.0162,
2076.961,2326.3251,
2074.050,2316.9174,
2071.140,2257.2659,
2068.229,2260.8489,
2065.318,2279.4787,
2062.408,2274.6178,
2059.497,2258.8095,
2056.587,2239.0029,
2053.676,2235.7919,
2050.766,2248.7203,
2047.855,2206.1313,
2044.944,2219.6634,
2042.034,2236.4182,
2039.123,2199.0568,
2036.213,2212.895,
2033.302,2222.5487,
2030.391,2224.5702,
2027.481,2235.2407,
2024.570,2208.0044,
2021.660,2244.2142,
2018.749,2234.3051,
2015.839,2219.7405,
2012.928,2229.9086,
2010.017,2256.4863,
2007.107,2242.4115,
2004.196,2246.2202,
2001.286,2216.9139,
1998.375,2208.1378,
1995.465,2210.875,
1992.554,2250.3158,
1989.643,2203.7414,
1986.733,2225.3969,
1983.822,2176.2886,
1980.912,2237.5273,
1978.001,2198.9084,
1975.090,2226.0552,
1972.180,2228.5652,
1969.269,2226.2716,
1966.359,2211.3613,
1963.448,2195.3004,
1960.538,2186.3829,
1957.627,2216.9741,
1954.716,2173.2826,
1951.806,2226.6027,
1948.895,2150.1037,
1945.985,2184.241,
1943.074,2184.0446,
1940.164,2192.7595,
1937.253,2167.8231,
1934.342,2158.9349,
1931.432,2149.1337,
1928.521,2141.4208,
1925.611,2159.0112,
1922.700,2156.1692,
1919.790,2113.3957,
1916.879,2131.0615,
1913.968,2178.8184,
1911.058,2172.4395,
1908.147,2129.3218,
1905.237,2161.6985,
1902.326,2168.1253,
1899.415,2210.7213,
1896.505,2188.6581,
1893.594,2165.7987,
1890.684,2139.4567,
1887.773,2145.3404,
1884.863,2160.6313,
1881.952,2166.48,
1879.041,2195.3781,
1876.131,2157.641,
1873.220,2148.6184,
1870.310,2169.2965,
1867.399,2167.923,
1864.489,2192.0836,
1861.578,2146.1938,
1858.667,2141.7582,
1855.757,2212.0707,
1852.846,2211.5981,
1849.936,2201.3164,
1847.025,2229.3981,
1844.114,2249.0232,
1841.204,2224.5988,
1838.293,2253.8035,
1835.383,2313.27,
1832.472,2290.6993,
1829.562,2262.681,
1826.651,2296.4314,
1823.740,2319.4267,
1820.830,2307.2135,
1817.919,2278.4437,
1815.009,2311.4055,
1812.098,2334.9301,
1809.188,2328.4332,
1806.277,2335.6979,
1803.366,2328.3075,
1800.456,2354.6994,
1797.545,2367.3077,
1794.635,2360.6471,
1791.724,2414.7586,
1788.813,2392.2794,
1785.903,2412.9098,
1782.992,2426.2177,
1780.082,2405.2977,
1777.171,2419.209,
1774.261,2424.065,
1771.350,2436.9773,
1768.439,2468.3243,
1765.529,2497.3306,
1762.618,2505.8075,
1759.708,2494.5923,
1756.797,2479.1856,
1753.887,2488.1578,
1750.976,2484.4922,
1748.065,2513.3558,
1745.155,2540.7072,
1742.244,2557.442,
1739.334,2564.1903,
1736.423,2558.9292,
1733.512,2569.245,
1730.602,2603.0477,
1727.691,2632.8342,
1724.781,2616.0643,
1721.870,2683.1088,
1718.960,2712.3862,
1716.049,2657.8247,
1713.138,2693.0448,
1710.228,2676.5067,
1707.317,2697.643,
1704.407,2749.3884,
1701.496,2798.6293,
1698.586,2752.9798,
1695.675,2789.1105,
1692.764,2809.8627,
1689.854,2826.1821,
1686.943,2803.6844,
1684.033,2859.4345,
1681.122,2892.3312,
1678.211,2896.8369,
1675.301,2974.6345,
1672.390,2983.2578,
1669.480,3110.8429,
1666.569,3107.7002,
1663.659,3173.6552,
1660.748,3280.74,
1657.837,3276.4338,
1654.927,3391.531,
1652.016,3420.3572,
1649.106,3480.9277,
1646.195,3525.1048,
1643.285,3616.7865,
1640.374,3658.76,
1637.463,3794.9919,
1634.553,3857.5745,
1631.642,3971.9716,
1628.732,4073.1667,
1625.821,4289.9679,
1622.911,4431.0748,
1620.000,4664.9017,
1617.089,4895.2581,
1614.179,5126.3042,
1611.268,5466.0114,
1608.358,5662.8381,
1605.447,5962.2774,
1602.536,6120.59,
1599.626,6216.4288,
1596.715,6246.565,
1593.805,6123.6685,
1590.894,6161.7152,
1587.984,6157.6158,
1585.073,6109.0801,
1582.162,6007.3678,
1579.252,5948.7782,
1576.341,5985.5356,
1573.431,5948.3182,
1570.520,5897.4205,
1567.610,5852.3451,
1564.699,5827.8245,
1561.788,5758.7911,
1558.878,5710.7093,
1555.967,5633.4872,
1553.057,5540.1859,
1550.146,5457.0969,
1547.235,5347.3616,
1544.325,5252.7222,
1541.414,5222.4151,
1538.504,5172.5224,
1535.593,5076.1836,
1532.683,4992.258,
1529.772,4914.6319,
1526.861,4852.8168,
1523.951,4827.4388,
1521.040,4773.5625,
1518.130,4689.2304,
1515.219,4662.1946,
1512.309,4650.8524,
1509.398,4581.3198,
1506.487,4602.3397,
1503.577,4590.1402,
1500.666,4580.7265,
1497.756,4531.4841,
1494.845,4428.7144,
1491.934,4400.8498,
1489.024,4393.1499,
1486.113,4325.1883,
1483.203,4310.1052,
1480.292,4245.2366,
1477.382,4214.477,
1474.471,4196.8296,
1471.560,4100.7154,
1468.650,4040.5939,
1465.739,4062.1805,
1462.829,4033.1296,
1459.918,4002.5325,
1457.008,4032.8138,
1454.097,4044.2373,
1451.186,4023.6274,
1448.276,3998.9989,
1445.365,3974.6633,
1442.455,4002.8685,
1439.544,3996.8941,
1436.633,4016.1093,
1433.723,4062.7836,
1430.812,3983.1757,
1427.902,3961.7397,
1424.991,3956.0531,
1422.081,3948.5352,
1419.170,3885.6627,
1416.259,3878.3052,
1413.349,3835.8263,
1410.438,3796.6829,
1407.528,3805.831,
1404.617,3796.9126,
1401.707,3795.5936,
1398.796,3846.0532,
1395.885,3919.639,
1392.975,3923.2692,
1390.064,3869.3563,
1387.154,3895.5563,
1384.243,3844.4598,
1381.332,3810.6456,
1378.422,3834.8258,
1375.511,4027.8027,
1372.601,4236.3852,
1369.690,4250.4461,
1366.780,4339.375,
1363.869,4459.4964,
1360.958,4589.6257,
1358.048,4680.0001,
1355.137,4763.5461,
1352.227,4841.6987,
1349.316,4918.2574,
1346.406,5023.5118,
1343.495,5154.9535,
1340.584,5318.9453,
1337.674,5405.0959,
1334.763,5509.1685,
1331.853,5569.4386,
1328.942,5636.8059,
1326.032,5671.7905,
1323.121,5763.8269,
1320.210,5824.5074,
1317.300,5901.8494,
1314.389,5949.5001,
1311.479,6026.3987,
1308.568,6114.8463,
1305.657,6148.2996,
1302.747,6292.4605,
1299.836,6445.8972,
1296.926,6543.7034,
1294.015,6647.5869,
1291.105,6795.4033,
1288.194,6989.001,
1285.283,7085.8592,
1282.373,7211.2887,
1279.462,7352.5793,
1276.552,7478.8044,
1273.641,7569.133,
1270.731,7624.4571,
1267.820,7690.7019,
1264.909,7738.9174,
1261.999,7624.6393,
1259.088,7672.9817,
1256.178,7572.2438,
1253.267,7419.0814,
1250.356,7276.2869,
1247.446,7113.4632,
1244.535,6918.9021,
1241.625,6717.6938,
1238.714,6518.705,
1235.804,6326.7296,
1232.893,6198.0322,
1229.982,6048.686,
1227.072,5954.5335,
1224.161,5946.194,
1221.251,5881.8472,
1218.340,5702.4567,
1215.430,5594.3031,
1212.519,5584.9302,
1209.608,5584.1806,
1206.698,5568.2368,
1203.787,5586.9906,
1200.877,5606.4939,
1197.966,5648.7544,
1195.055,5825.791,
1192.145,5936.2687,
1189.234,6088.0919,
1186.324,6165.6941,
1183.413,6216.7126,
1180.503,6225.6828,
1177.592,6114.3392,
1174.681,6033.4127,
1171.771,5988.195,
1168.860,5958.7231,
1165.950,5905.0788,
1163.039,5831.4156,
1160.129,5804.875,
1157.218,5756.3207,
1154.307,5699.7937,
1151.397,5680.8838,
1148.486,5647.4744,
1145.576,5647.9839,
1142.665,5581.3905,
1139.754,5469.2896,
1136.844,5426.6671,
1133.933,5386.6172,
1131.023,5353.961,
1128.112,5330.0197,
1125.202,5304.4595,
1122.291,5301.0111,
1119.380,5329.7451,
1116.470,5316.5072,
1113.559,5328.0202,
1110.649,5363.9624,
1107.738,5377.6601,
1104.828,5384.0292,
1101.917,5387.9989,
1099.006,5356.8856,
1096.096,5313.0465,
1093.185,5364.8486,
1090.275,5338.1227,
1087.364,5348.7142,
1084.453,5351.2504,
1081.543,5351.2572,
1078.632,5345.5928,
1075.722,5322.1914,
1072.811,5335.6315,
1069.901,5444.7891,
1066.990,5414.0751,
1064.079,5457.2746,
1061.169,5483.5319,
1058.258,5533.9993,
1055.348,5624.3917,
1052.437,5690.2223,
1049.527,5737.64,
1046.616,5731.5582,
1043.705,5774.8086,
1040.795,5815.3307,
1037.884,5874.8742,
1034.974,5865.7358,
1032.063,5796.7128,
1029.153,5863.4183,
1026.242,5917.9106,
1023.331,5909.8756,
1020.421,5916.2402,
1017.510,5931.0805,
1014.600,5975.4011,
1011.689,6045.2553,
1008.778,6121.893,
1005.868,6258.3152,
1002.957,6530.1872,
1000.047,6773.5311,
997.136,6961.0542,
994.226,7099.2125,
991.315,7124.1622,
988.404,6991.3117,
985.494,6878.2639,
982.583,6806.3132,
979.673,6764.4142,
976.762,6730.5651,
973.852,6694.1005,
970.941,6685.9542,
968.030,6726.6206,
965.120,6714.1113,
962.209,6770.3791,
959.299,6760.7523,
956.388,6791.5125,
953.477,6791.0479,
950.567,6753.1492,
947.656,6774.7744,
944.746,6804.5088,
941.835,6830.1694,
938.925,6842.4555,
936.014,6852.9566,
933.103,6859.875,
930.193,6835.7044,
927.282,6734.8421,
924.372,6660.4287,
921.461,6590.4902,
918.551,6488.7062,
915.640,6413.4523,
912.729,6375.1154,
909.819,6331.9837,
906.908,6310.0806,
903.998,6288.1955,
901.087,6359.2557,
898.176,6418.1452,
895.266,6457.4103,
892.355,6524.4081,
889.445,6623.4416,
886.534,6623.875,
883.624,6638.6773,
880.713,6721.918,
877.802,6808.4233,
874.892,6823.5796,
871.981,6777.5594,
869.071,6764.1927,
866.160,6769.4646,
863.250,6787.5527,
860.339,6797.2953,
857.428,6784.7531,
854.518,6756.2993,
851.607,6667.2679,
848.697,6652.5628,
845.786,6676.2285,
842.875,6687.3885,
839.965,6685.1182,
837.054,6763.4191,
834.144,6722.8103,
831.233,6693.5432,
828.323,6688.8099,
825.412,6684.5722,
822.501,6654.2365,
819.591,6606.3053,
816.680,6505.5159,
813.770,6431.3813,
810.859,6358.1047,
807.949,6311.7653,
805.038,6317.1316,
802.127,6211.7713,
799.217,6203.3658,
796.306,6187.983,
793.396,6173.9284,
790.485,6171.7173,
787.574,6175.1864,
784.664,6183.3875,
781.753,6154.0097,
778.843,6140.8353,
775.932,6159.2327,
773.022,6205.0044,
770.111,6263.8701,
767.200,6258.7393,
764.290,6212.5342,
761.379,6187.1769,
758.469,6192.6897,
755.558,6175.246,
752.648,6120.6676,
749.737,6115.7501,
746.826,6040.0836,
743.916,5966.6285,
741.005,5976.4027,
738.095,5680.0676,
735.184,5435.3625,
732.274,5389.7396,
729.363,5546.9353,
726.452,5820.5723,
723.542,5990.5449,
720.631,6049.57,
717.721,6101.5371,
714.810,6119.358,
711.899,6119.677,
708.989,6187.4587,
706.078,6110.1486,
703.168,6067.8006,
700.257,6030.5961,
697.347,6013.0039,
694.436,6062.3038,
691.525,6004.4298,
688.615,5957.9138,
685.704,5963.7766,
682.794,6003.0239,
679.883,6018.9739,
676.973,5998.9396,
674.062,5985.3038,
671.151,6026.7763,
668.241,6082.3483,
665.330,6069.3498,
662.420,6100.5004,
659.509,6053.5408,
656.598,6031.0972,
653.688,6046.4759,
650.777,6062.8471,
647.867,6091.5149,
644.956,6072.4898,
642.046,6017.9028,
639.135,5977.1284,
636.224,6031.0859,
633.314,6073.1646,
630.403,6114.0267,
627.493,6149.4698,
624.582,6169.3436,
621.672,6153.5037,
618.761,6205.3108,
615.850,6300.6663,
612.940,6350.5305,
610.029,6329.7142,
607.119,6370.775,
604.208,6360.6747,
601.297,6327.955,
598.387,6318.6462,
595.476,6361.1666,
592.566,6343.064,
589.655,6348.2976,
586.745,6320.7613,
583.834,6283.2667,
580.923,6299.1356,
578.013,6342.296,
575.102,6316.5918,
572.192,6298.1644,
569.281,6321.3426,
566.371,6357.3433,
563.460,6385.5664,
560.549,6411.4679,
557.639,6434.5891,
554.728,6454.0575,
551.818,6472.7851,
548.907,6507.9551,
545.996,6524.3759,
543.086,6518.3717,
540.175,6516.0358,
537.265,6583.9573,
534.354,6578.7702,
531.444,6563.2012,
528.533,6605.3582,
525.622,6640.2758,
522.712,6650.9088,
519.801,6714.7396,
516.891,6820.3527,
513.980,6847.453,
511.070,6911.1532,
508.159,7009.9427,
505.248,7133.6884,
502.338,7268.0379,
499.427,7376.0944,
496.517,7429.1982,
493.606,7453.5954,
490.695,7469.1544,
487.785,7499.946,
484.874,7475.1487,
481.964,7465.5195,
479.053,7480.9423,
476.143,7506.2851,
473.232,7476.9406,
470.321,7447.8448,
467.411,7430.1283,
464.500,7431.6507,
461.590,7462.2803,
458.679,7450.5141,
455.769,7481.1346,
452.858,7590.0787,
449.947,7649.6654,
447.037,7694.0333,
444.126,7716.7235,
441.216,7722.1239,
438.305,7735.0767,
435.395,7770.3125,
432.484,7772.0384,
429.573,7769.2227,
426.663,7852.0781,
423.752,7874.9156,
420.842,7903.3392,
417.931,7942.8805,
415.020,7992.1737,
412.110,8044.3563,
409.199,8124.9776,
406.289,8204.8797,
403.378,8250.6086,
400.468,8171.9852,
397.557,8179.7806,
394.646,8189.058,
391.736,8130.6476,
388.825,8154.783,
385.915,8121.9605,
383.004,8099.4389,
380.094,8136.8637,
377.183,8254.25,
374.272,8373.7199,
371.362,8437.1622,
368.451,8416.5649,
365.541,8460.8465,
362.630,8492.5397,
359.719,8522.7855,
356.809,8558.0045,
353.898,8593.198,
350.988,8648.4439,
348.077,8686.875,
345.167,8689.8645,
342.256,8748.8829,
339.345,8757.9035,
336.435,8752.263,
333.524,8757.1434,
330.614,8797.3818,
327.703,8828.871,
324.793,8834.2432,
321.882,8798.0787,
318.971,8882.0877,
316.061,8935.2907,
313.150,8964.5702,
310.240,8976.4441,
307.329,9014.0361,
304.418,9050.7608,
301.508,9053.0472,
298.597,8963.4568,
295.687,9017.5039,
292.776,9036.8749,
289.866,9073.9415,
286.955,9316.2434,
284.044,9498.2474,
281.134,9660.8949,
278.223,9817.2035,
275.313,9990.3645,
272.402,10205.793,
269.492,10370.996,
266.581,10456.915,
263.670,10569.398,
260.760,10699.038,
257.849,10815.077,
254.939,10892.869,
252.028,11024.167,
249.117,11096.716,
246.207,11124.254,
243.296,11125.718,
240.386,11142.2,
237.475,11145.112,
234.565,11137.14,
231.654,11145.175,
228.743,11117.531,
225.833,11089.777,
222.922,11077.811,
220.012,11119.339,
217.101,11135.329,
214.191,11139.623,
211.280,11145.443,
208.369,11162.695,
205.459,11173.271,
202.548,11182.892,
199.638,11217.723,
196.727,11288.835,
193.816,11331.059,
190.906,11322.516,
187.995,11397.815,
185.085,11465.013,
182.174,11506.957,
179.264,11492.502,
176.353,11499.846,
173.442,11497.261,
170.532,11485.807,
167.621,11502.39,
164.711,11326.08,
161.800,11007.06,
158.890,10550.753,
155.979,9846.2173,
153.068,9027.7702,
150.158,8079.7438,
147.247,6885.7892,
144.337,5671.8882,
141.426,4469.9334,
138.516,3296.3825,
135.605,2361.134,
132.694,1610.0367,
129.784,1037.4445,
126.873,686.31571,
123.963,471.46933,
121.052,328.88029,
118.141,243.21205,
115.231,188.87165,
112.320,155.01319,
109.410,134.64799,
106.499,112.57117,
103.589,107.875,
100.678,98.36824,
97.767,73.485425,
94.857,71.489022,
91.946,71.681222,
89.036,71.633123,
86.125,63.831865,
83.215,56.565796,
80.304,50.198971,
77.393,45.241782,
74.483,42.909595,
71.572,42.599704,
68.662,43.32086,
65.751,37.669251,
62.840,35.875,
59.930,37.186003,
57.019,42.121577,
54.109,32.723266,
51.198,26.176609,
48.288,26.8297,
45.377,21.202676,
42.466,21.348316,
39.556,25.105237,
36.645,26.509618,
33.735,21.163267,
30.824,17.200322,
27.914,21.407373,
25.003,18.139175,
22.092,13.291764,
19.182,7.71482,
16.271,2.818389,
13.361,-6.2897856,
10.450,-78.263105,
7.539,-439.29215,
4.629,-930.17891,
1.718,-1358.5727,
-1.192,-1542.6189,
-4.103,-1055.6826,
-7.013,-506.0128,
-9.924,-2.125,
