,PL5BD3~1,
Raman shift [1/cm],Intensity,
3014.167,-3.5,
3011.256,-0.29995705,
3008.346,32.562279,
3005.435,49.23145,
3002.525,57.255034,
2999.614,55.549346,
2996.704,65.447418,
2993.793,63.651496,
2990.882,48.01906,
2987.972,47.57063,
2985.061,64.160102,
2982.151,56.931924,
2979.240,57.852679,
2976.329,58.527301,
2973.419,78.023236,
2970.508,70.266673,
2967.598,77.643374,
2964.687,79.544837,
2961.777,84.841945,
2958.866,77.165677,
2955.955,78.5,
2953.045,70.701353,
2950.134,84.744907,
2947.224,82.528469,
2944.313,87.095442,
2941.403,89.761862,
2938.492,94.489155,
2935.581,99.360103,
2932.671,89.740346,
2929.760,92.569232,
2926.850,102.0297,
2923.939,99.18226,
2921.028,94.582384,
2918.118,98.959697,
2915.207,108.86091,
2912.297,103.55924,
2909.386,112.47811,
2906.476,107.53089,
2903.565,110.66148,
2900.654,96.488895,
2897.744,103.42457,
2894.833,99.149454,
2891.923,90.147395,
2889.012,114.83526,
2886.102,107.89595,
2883.191,123.4849,
2880.280,112.94497,
2877.370,120.97084,
2874.459,127.26726,
2871.549,126.59217,
2868.638,104.72476,
2865.727,113.70771,
2862.817,112.5147,
2859.906,109.95584,
2856.996,114.49547,
2854.085,103.17645,
2851.175,114.52705,
2848.264,121.22534,
2845.353,113.82351,
2842.443,120.91323,
2839.532,107.17166,
2836.622,99.865233,
2833.711,111.70723,
2830.801,102.01103,
2827.890,113.77098,
2824.979,118.99397,
2822.069,115.51137,
2819.158,119.16038,
2816.248,120.51158,
2813.337,102.8817,
2810.427,114.33058,
2807.516,112.39203,
2804.605,113.2524,
2801.695,110.15791,
2798.784,108.94354,
2795.874,121.51057,
2792.963,113.42862,
2790.052,142.49399,
2787.142,110.85527,
2784.231,114.33851,
2781.321,117.75144,
2778.410,116.93529,
2775.500,112.03172,
2772.589,124.6919,
2769.678,117.57168,
2766.768,118.1233,
2763.857,129.07996,
2760.947,120.89598,
2758.036,126.52561,
2755.126,128.78846,
2752.215,125.7546,
2749.304,121.64929,
2746.394,116.95971,
2743.483,116.84996,
2740.573,123.61283,
2737.662,193.61824,
2734.751,310.7347,
2731.841,152.82049,
2728.930,131.6823,
2726.020,124.06134,
2723.109,132.93292,
2720.199,124.08744,
2717.288,127.51824,
2714.377,115.53344,
2711.467,135.13956,
2708.556,124.97874,
2705.646,124.5,
2702.735,141.97679,
2699.825,121.45637,
2696.914,127.54773,
2694.003,116.42682,
2691.093,133.51805,
2688.182,127.04444,
2685.272,125.97795,
2682.361,130.31769,
2679.450,125.66874,
2676.540,133.17481,
2673.629,122.47755,
2670.719,135.71165,
2667.808,141.30546,
2664.898,133.48736,
2661.987,139.56718,
2659.076,139.42458,
2656.166,144.0152,
2653.255,139.2381,
2650.345,129.25136,
2647.434,148.64261,
2644.524,149.53842,
2641.613,152.47109,
2638.702,148.46844,
2635.792,135.56082,
2632.881,150.80948,
2629.971,143.77511,
2627.060,144.5,
2624.149,149.09374,
2621.239,143.22777,
2618.328,146.99135,
2615.418,138.15455,
2612.507,133.57118,
2609.597,146.57186,
2606.686,157.25302,
2603.775,155.37698,
2600.865,159.26114,
2597.954,146.26663,
2595.044,160.83924,
2592.133,153.38529,
2589.223,153.06632,
2586.312,167.62062,
2583.401,151.31749,
2580.491,153.38939,
2577.580,150.52971,
2574.670,167.11631,
2571.759,152.48973,
2568.848,164.08022,
2565.938,157.07139,
2563.027,157.37731,
2560.117,158.03273,
2557.206,162.59594,
2554.296,152.70137,
2551.385,159.37601,
2548.474,155.57398,
2545.564,159.31007,
2542.653,167.88926,
2539.743,173.98152,
2536.832,167.94859,
2533.922,165.5,
2531.011,163.30019,
2528.100,165.49654,
2525.190,168.54713,
2522.279,186.70273,
2519.369,167.48131,
2516.458,160.5,
2513.548,163.73632,
2510.637,164.60669,
2507.726,173.38102,
2504.816,162.81342,
2501.905,178.23902,
2498.995,177.02225,
2496.084,170.11324,
2493.173,176.47384,
2490.263,170.12936,
2487.352,179.1244,
2484.442,173.34796,
2481.531,174.7075,
2478.621,164.89335,
2475.710,169.72236,
2472.799,193.32069,
2469.889,169.25899,
2466.978,169.15971,
2464.068,175.37303,
2461.157,173.65497,
2458.247,181.9118,
2455.336,193.75441,
2452.425,192.15094,
2449.515,198.39604,
2446.604,189.08987,
2443.694,191.15133,
2440.783,198.54842,
2437.872,186.57293,
2434.962,192.17741,
2432.051,202.01234,
2429.141,188.6884,
2426.230,195.65251,
2423.320,186.01396,
2420.409,199.1218,
2417.498,184.73875,
2414.588,178.76995,
2411.677,198.28485,
2408.767,198.06496,
2405.856,206.52623,
2402.946,198.86908,
2400.035,195.90375,
2397.124,191.40908,
2394.214,204.878,
2391.303,199.89228,
2388.393,197.00697,
2385.482,200.32375,
2382.571,214.34828,
2379.661,199.94201,
2376.750,195.91865,
2373.840,201.14689,
2370.929,210.3917,
2368.019,214.0782,
2365.108,208.98953,
2362.197,206.45894,
2359.287,201.3234,
2356.376,203.49119,
2353.466,219.07532,
2350.555,218.78476,
2347.645,202.57948,
2344.734,213.47239,
2341.823,215.53317,
2338.913,215.87465,
2336.002,229.27514,
2333.092,226.62642,
2330.181,223.72763,
2327.270,238.56491,
2324.360,229.76886,
2321.449,229.23809,
2318.539,225.52141,
2315.628,226.5,
2312.718,227.38326,
2309.807,213.97819,
2306.896,223.01957,
2303.986,227.01945,
2301.075,236.07442,
2298.165,228.53816,
2295.254,225.47846,
2292.344,226.44604,
2289.433,224.78181,
2286.522,235.62927,
2283.612,232.27802,
2280.701,221.36547,
2277.791,245.45993,
2274.880,239.1501,
2271.969,228.01029,
2269.059,239.82425,
2266.148,244.33639,
2263.238,234.80503,
2260.327,245.9482,
2257.417,241.10944,
2254.506,251.5228,
2251.595,245.36551,
2248.685,247.33843,
2245.774,250.5,
2242.864,265.00875,
2239.953,243.95516,
2237.043,243.16215,
2234.132,246.10776,
2231.221,247.94701,
2228.311,249.97938,
2225.400,247.8096,
2222.490,258.12866,
2219.579,259.23523,
2216.669,263.50477,
2213.758,266.41373,
2210.847,270.91813,
2207.937,267.66287,
2205.026,279.27784,
2202.116,271.46923,
2199.205,269.76142,
2196.294,288.69001,
2193.384,289.342,
2190.473,280.20422,
2187.563,281.616,
2184.652,305.80122,
2181.742,311.63688,
2178.831,321.06031,
2175.920,317.00273,
2173.010,310.87472,
2170.099,318.16568,
2167.189,351.58611,
2164.278,368.04875,
2161.368,391.92888,
2158.457,401.59783,
2155.546,429.66636,
2152.636,432.40958,
2149.725,450.64092,
2146.815,463.19968,
2143.904,479.2026,
2140.993,488.75922,
2138.083,501.68844,
2135.172,504.0126,
2132.262,493.1118,
2129.351,506.37942,
2126.441,482.46107,
2123.530,489.08471,
2120.619,449.88543,
2117.709,429.80837,
2114.798,416.39227,
2111.888,393.05081,
2108.977,356.42714,
2106.067,347.01676,
2103.156,357.17819,
2100.245,331.49812,
2097.335,326.45288,
2094.424,319.39853,
2091.514,335.91928,
2088.603,314.80417,
2085.692,296.08743,
2082.782,311.53198,
2079.871,294.39149,
2076.961,317.49809,
2074.050,294.25758,
2071.140,287.89093,
2068.229,281.67708,
2065.318,285.2035,
2062.408,300.21254,
2059.497,315.89285,
2056.587,297.8956,
2053.676,277.61752,
2050.766,282.80717,
2047.855,276.38608,
2044.944,275.82531,
2042.034,295.13003,
2039.123,285.11953,
2036.213,282.2689,
2033.302,286.67388,
2030.391,284.6357,
2027.481,282.5,
2024.570,291.77118,
2021.660,275.62346,
2018.749,293.42402,
2015.839,291.36549,
2012.928,288.20134,
2010.017,283.09718,
2007.107,293.52431,
2004.196,299.98809,
2001.286,296.4788,
1998.375,296.5876,
1995.465,288.84732,
1992.554,285.62354,
1989.643,276.81107,
1986.733,264.30263,
1983.822,280.75702,
1980.912,288.35099,
1978.001,270.00835,
1975.090,289.44658,
1972.180,297.46678,
1969.269,278.40516,
1966.359,264.12149,
1963.448,258.5,
1960.538,270.67265,
1957.627,262.8003,
1954.716,264.41382,
1951.806,292.66191,
1948.895,257.11741,
1945.985,259.19771,
1943.074,278.06088,
1940.164,282.70199,
1937.253,273.86553,
1934.342,258.02994,
1931.432,253.99527,
1928.521,252.39637,
1925.611,246.57151,
1922.700,265.66022,
1919.790,249.96845,
1916.879,236.26724,
1913.968,206.53566,
1911.058,235.3018,
1908.147,233.29709,
1905.237,242.27208,
1902.326,252.48964,
1899.415,249.65368,
1896.505,266.23486,
1893.594,257.40854,
1890.684,254.36931,
1887.773,249.92243,
1884.863,247.58656,
1881.952,266.7273,
1879.041,272.47404,
1876.131,242.99674,
1873.220,253.06201,
1870.310,254.57175,
1867.399,210.21971,
1864.489,266.05909,
1861.578,235.35677,
1858.667,278.68565,
1855.757,251.91647,
1852.846,239.27947,
1849.936,245.91943,
1847.025,240.90386,
1844.114,288.97298,
1841.204,283.59441,
1838.293,249.50832,
1835.383,259.80199,
1832.472,298.59391,
1829.562,282.00468,
1826.651,269.33777,
1823.740,249.20494,
1820.830,282.16966,
1817.919,265.18245,
1815.009,260.21247,
1812.098,278.45274,
1809.188,275.81009,
1806.277,297.0131,
1803.366,275.38355,
1800.456,270.25863,
1797.545,298.56393,
1794.635,284.53108,
1791.724,313.8787,
1788.813,289.29846,
1785.903,292.9418,
1782.992,306.28237,
1780.082,281.05681,
1777.171,316.83566,
1774.261,316.00981,
1771.350,285.64874,
1768.439,269.6071,
1765.529,286.95651,
1762.618,283.55684,
1759.708,300.7286,
1756.797,324.89394,
1753.887,293.80612,
1750.976,290.24149,
1748.065,283.91014,
1745.155,305.43526,
1742.244,347.33692,
1739.334,314.30943,
1736.423,280.07572,
1733.512,259.21947,
1730.602,272.94844,
1727.691,305.60046,
1724.781,313.5,
1721.870,331.20487,
1718.960,328.92214,
1716.049,328.33897,
1713.138,333.62997,
1710.228,303.16931,
1707.317,317.076,
1704.407,340.16314,
1701.496,304.21499,
1698.586,361.48297,
1695.675,340.30016,
1692.764,370.68854,
1689.854,328.4921,
1686.943,331.33137,
1684.033,352.9536,
1681.122,336.78887,
1678.211,357.30014,
1675.301,325.59867,
1672.390,344.64655,
1669.480,393.21923,
1666.569,359.21097,
1663.659,414.451,
1660.748,411.23006,
1657.837,397.41252,
1654.927,394.74174,
1652.016,445.98972,
1649.106,425.54896,
1646.195,427.04445,
1643.285,409.95834,
1640.374,472.75087,
1637.463,484.91433,
1634.553,507.18966,
1631.642,487.02118,
1628.732,534.87923,
1625.821,598.49935,
1622.911,597.50564,
1620.000,653.78187,
1617.089,679.98259,
1614.179,750.46953,
1611.268,749.61153,
1608.358,824.80098,
1605.447,867.15746,
1602.536,879.75076,
1599.626,870.38074,
1596.715,899.45084,
1593.805,867.62106,
1590.894,885.51675,
1587.984,853.85632,
1585.073,809.36243,
1582.162,779.95808,
1579.252,794.32093,
1576.341,794.49468,
1573.431,795.84952,
1570.520,755.98802,
1567.610,752.44131,
1564.699,737.37426,
1561.788,733.31687,
1558.878,761.12776,
1555.967,718.66483,
1553.057,690.5,
1550.146,696.0309,
1547.235,649.32225,
1544.325,633.16255,
1541.414,669.10229,
1538.504,655.64424,
1535.593,622.57851,
1532.683,619.5,
1529.772,611.73762,
1526.861,587.82083,
1523.951,583.8997,
1521.040,585.46462,
1518.130,537.9927,
1515.219,545.17987,
1512.309,556.18921,
1509.398,561.2474,
1506.487,516.00338,
1503.577,556.88711,
1500.666,516.7092,
1497.756,501.66091,
1494.845,491.37993,
1491.934,488.43386,
1489.024,468.22151,
1486.113,525.91458,
1483.203,493.19696,
1480.292,482.56042,
1477.382,500.89796,
1474.471,474.03746,
1471.560,476.83632,
1468.650,465.10143,
1465.739,443.40922,
1462.829,443.85544,
1459.918,441.21264,
1457.008,444.14628,
1454.097,443.33252,
1451.186,421.51934,
1448.276,417.0932,
1445.365,427.0703,
1442.455,417.59979,
1439.544,430.96777,
1436.633,448.4136,
1433.723,482.89801,
1430.812,426.47081,
1427.902,389.89808,
1424.991,448.65935,
1422.081,438.5728,
1419.170,414.17037,
1416.259,416.9805,
1413.349,392.8218,
1410.438,357.20859,
1407.528,382.83702,
1404.617,374.14359,
1401.707,371.51798,
1398.796,404.02094,
1395.885,393.56275,
1392.975,362.77126,
1390.064,386.79757,
1387.154,395.06045,
1384.243,379.63777,
1381.332,376.60665,
1378.422,387.19068,
1375.511,419.97801,
1372.601,438.00984,
1369.690,370.06498,
1366.780,454.33625,
1363.869,483.13239,
1360.958,554.48293,
1358.048,594.65318,
1355.137,578.04969,
1352.227,540.82668,
1349.316,511.27874,
1346.406,520.65872,
1343.495,573.45822,
1340.584,620.92777,
1337.674,675.96562,
1334.763,695.93544,
1331.853,681.09974,
1328.942,693.84196,
1326.032,656.35021,
1323.121,717.15066,
1320.210,720.85646,
1317.300,743.553,
1314.389,768.5556,
1311.479,789.28627,
1308.568,807.75294,
1305.657,785.13787,
1302.747,776.75187,
1299.836,868.99141,
1296.926,874.63645,
1294.015,920.60263,
1291.105,958.60221,
1288.194,957.9088,
1285.283,974.40008,
1282.373,1051.1091,
1279.462,1083.2649,
1276.552,1085.3268,
1273.641,1104.2309,
1270.731,1128.497,
1267.820,1145.2291,
1264.909,1114.4777,
1261.999,1093.6318,
1259.088,1124.6439,
1256.178,1090.5288,
1253.267,1041.5371,
1250.356,1054.9129,
1247.446,1028.1893,
1244.535,971.26347,
1241.625,909.20379,
1238.714,868.66132,
1235.804,872.04863,
1232.893,830.37057,
1229.982,848.66017,
1227.072,794.34144,
1224.161,830.84418,
1221.251,828.07687,
1218.340,764.25349,
1215.430,717.18608,
1212.519,705.04724,
1209.608,723.28191,
1206.698,753.67012,
1203.787,748.41961,
1200.877,778.60549,
1197.966,748.03407,
1195.055,796.84167,
1192.145,828.0403,
1189.234,845.23189,
1186.324,866.3197,
1183.413,879.5,
1180.503,876.4647,
1177.592,863.76248,
1174.681,841.88014,
1171.771,844.45879,
1168.860,842.67261,
1165.950,815.08616,
1163.039,807.8016,
1160.129,812.8087,
1157.218,811.2119,
1154.307,802.16077,
1151.397,790.50438,
1148.486,772.15129,
1145.576,765.50224,
1142.665,788.58797,
1139.754,747.37768,
1136.844,759.20939,
1133.933,769.67301,
1131.023,762.00227,
1128.112,755.71382,
1125.202,756.42755,
1122.291,742.38006,
1119.380,755.50866,
1116.470,756.39119,
1113.559,773.51148,
1110.649,775.22577,
1107.738,772.96418,
1104.828,782.48639,
1101.917,789.69498,
1099.006,768.76816,
1096.096,747.68257,
1093.185,766.99863,
1090.275,766.88146,
1087.364,762.38326,
1084.453,749.25071,
1081.543,765.91682,
1078.632,790.66514,
1075.722,779.89406,
1072.811,807.43795,
1069.901,806.56469,
1066.990,786.29171,
1064.079,799.87387,
1061.169,786.96025,
1058.258,788.55685,
1055.348,809.50271,
1052.437,804.71549,
1049.527,840.22448,
1046.616,807.20896,
1043.705,839.72596,
1040.795,865.82411,
1037.884,859.32787,
1034.974,857.53479,
1032.063,870.20032,
1029.153,843.92746,
1026.242,872.47102,
1023.331,859.33424,
1020.421,874.62464,
1017.510,895.38634,
1014.600,891.54331,
1011.689,880.1969,
1008.778,907.85684,
1005.868,956.50772,
1002.957,957.36808,
1000.047,981.52401,
997.136,1019.279,
994.226,1042.623,
991.315,1040.4109,
988.404,1023.4195,
985.494,1007.2123,
982.583,994.36396,
979.673,995.42659,
976.762,985.93216,
973.852,998.39046,
970.941,1023.2036,
968.030,1020.9971,
965.120,1012.4928,
962.209,1010.7878,
959.299,1023.9567,
956.388,1017.1808,
953.477,1018.1867,
950.567,1026.9644,
947.656,1009.8369,
944.746,1020.0316,
941.835,1029.4079,
938.925,1012.4165,
936.014,1000.4767,
933.103,999.55928,
930.193,998.90316,
927.282,988.22503,
924.372,983.15139,
921.461,986.182,
918.551,953.22493,
915.640,939.54854,
912.729,951.81644,
909.819,943.05434,
906.908,932.10281,
903.998,927.52318,
901.087,937.32061,
898.176,956.86146,
895.266,968.00861,
892.355,965.05473,
889.445,989.39348,
886.534,979.48154,
883.624,995.66647,
880.713,1016.7485,
877.802,1025.3735,
874.892,1021.89,
871.981,1033.0918,
869.071,1058.1542,
866.160,1048.0108,
863.250,1037.8306,
860.339,1034.5,
857.428,1029.3347,
854.518,1007.837,
851.607,1019.486,
848.697,1011.8706,
845.786,1012.6897,
842.875,1008.4117,
839.965,990.4223,
837.054,985.39766,
834.144,976.28139,
831.233,967.1672,
828.323,971.90772,
825.412,967.29952,
822.501,935.47863,
819.591,913.16584,
816.680,926.9231,
813.770,930.5,
810.859,930.95124,
807.949,920.75117,
805.038,895.78541,
802.127,922.94861,
799.217,894.93897,
796.306,906.06773,
793.396,911.59912,
790.485,891.76245,
787.574,882.15389,
784.664,899.37625,
781.753,894.44819,
778.843,894.91074,
775.932,895.17909,
773.022,887.78236,
770.111,902.49876,
767.200,917.96494,
764.290,928.85666,
761.379,914.59436,
758.469,884.03513,
755.558,878.52431,
752.648,879.33892,
749.737,886.02789,
746.826,856.3983,
743.916,834.1366,
741.005,861.66131,
738.095,747.99855,
735.184,666.56933,
732.274,606.36846,
729.363,626.59834,
726.452,740.55629,
723.542,823.9238,
720.631,850.67163,
717.721,866.66553,
714.810,875.02272,
711.899,884.2723,
708.989,913.3216,
706.078,895.07003,
703.168,885.03501,
700.257,869.53541,
697.347,858.15158,
694.436,878.34725,
691.525,872.72061,
688.615,882.19149,
685.704,880.72952,
682.794,875.1808,
679.883,888.48157,
676.973,843.60481,
674.062,852.3663,
671.151,857.24004,
668.241,867.41562,
665.330,919.68483,
662.420,881.34571,
659.509,862.07124,
656.598,854.20175,
653.688,855.26051,
650.777,865.49909,
647.867,894.96322,
644.956,902.11915,
642.046,887.15987,
639.135,864.66156,
636.224,861.5,
633.314,861.5,
630.403,895.79022,
627.493,909.51406,
624.582,894.55943,
621.672,899.31139,
618.761,913.93885,
615.850,931.72371,
612.940,920.64178,
610.029,884.9446,
607.119,923.6365,
604.208,926.78999,
601.297,935.47332,
598.387,936.4743,
595.476,917.16851,
592.566,924.25213,
589.655,928.73945,
586.745,907.0657,
583.834,874.96291,
580.923,869.57108,
578.013,881.34209,
575.102,871.30747,
572.192,865.78741,
569.281,877.85859,
566.371,902.11993,
563.460,876.98674,
560.549,891.81305,
557.639,915.74011,
554.728,908.35774,
551.818,953.61607,
548.907,929.37286,
545.996,926.55069,
543.086,951.63489,
540.175,929.05416,
537.265,924.60288,
534.354,942.56425,
531.444,949.51771,
528.533,920.70729,
525.622,951.74518,
522.712,954.85948,
519.801,981.52289,
516.891,1027.4045,
513.980,1021.9844,
511.070,1017.2739,
508.159,1041.7662,
505.248,1070.7504,
502.338,1072.3133,
499.427,1100.0993,
496.517,1097.8838,
493.606,1097.5663,
490.695,1111.393,
487.785,1110.6232,
484.874,1113.0849,
481.964,1125.7125,
479.053,1134.8811,
476.143,1107.2345,
473.232,1088.2343,
470.321,1090.2584,
467.411,1096.9674,
464.500,1089.6745,
461.590,1096.5662,
458.679,1097.3994,
455.769,1099.3356,
452.858,1105.7386,
449.947,1108.0304,
447.037,1098.1851,
444.126,1108.5061,
441.216,1140.1458,
438.305,1155.3844,
435.395,1158.8113,
432.484,1156.5827,
429.573,1158.7126,
426.663,1185.3175,
423.752,1193.0794,
420.842,1213.7674,
417.931,1234.2072,
415.020,1229.657,
412.110,1222.9155,
409.199,1222.945,
406.289,1241.9806,
403.378,1292.3438,
400.468,1246.2281,
397.557,1232.5283,
394.646,1217.0699,
391.736,1172.9588,
388.825,1187.2891,
385.915,1166.4869,
383.004,1147.3554,
380.094,1156.3811,
377.183,1193.2524,
374.272,1249.0936,
371.362,1283.6737,
368.451,1275.5486,
365.541,1292.8109,
362.630,1277.8353,
359.719,1262.9798,
356.809,1267.7233,
353.898,1287.9409,
350.988,1291.8725,
348.077,1292.8233,
345.167,1298.273,
342.256,1293.7905,
339.345,1288.2485,
336.435,1283.9448,
333.524,1283.2986,
330.614,1308.6339,
327.703,1322.1475,
324.793,1314.0949,
321.882,1275.5541,
318.971,1297.8574,
316.061,1312.8247,
313.150,1312.4167,
310.240,1286.4426,
307.329,1336.9539,
304.418,1322.8476,
301.508,1279.1369,
298.597,1270.2519,
295.687,1264.0821,
292.776,1268.5834,
289.866,1287.6857,
286.955,1331.2705,
284.044,1380.51,
281.134,1444.3802,
278.223,1510.7156,
275.313,1512.1893,
272.402,1526.4417,
269.492,1556.7786,
266.581,1603.6005,
263.670,1646.9761,
260.760,1652.1866,
257.849,1649.606,
254.939,1661.3482,
252.028,1639.0608,
249.117,1644.2048,
246.207,1654.2494,
243.296,1630.0922,
240.386,1648.3957,
237.475,1643.7483,
234.565,1613.2084,
231.654,1579.6108,
228.743,1547.7592,
225.833,1527.0608,
222.922,1522.1455,
220.012,1535.9881,
217.101,1520.3807,
214.191,1487.6977,
211.280,1448.4148,
208.369,1440.7903,
205.459,1478.0258,
202.548,1531.1072,
199.638,1494.0991,
196.727,1499.1768,
193.816,1515.7245,
190.906,1530.5954,
187.995,1476.2935,
185.085,1495.8013,
182.174,1536.9329,
179.264,1531.1508,
176.353,1509.9951,
173.442,1514.4525,
170.532,1542.164,
167.621,1539.2801,
164.711,1506.4404,
161.800,1462.7541,
158.890,1419.5705,
155.979,1325.0639,
153.068,1224.7842,
150.158,1115.3148,
147.247,973.16026,
144.337,828.85686,
141.426,672.43479,
138.516,497.51333,
135.605,356.74329,
132.694,242.28495,
129.784,153.76853,
126.873,98.703533,
123.963,66.444405,
121.052,47.100529,
118.141,38.533705,
115.231,22.156882,
112.320,18.041816,
109.410,20.409158,
106.499,14.711916,
103.589,14.060254,
100.678,13.685135,
97.767,11.552322,
94.857,8.0350548,
91.946,9.3217761,
89.036,12.258123,
86.125,4.456865,
83.215,5.6855221,
80.304,8.2605673,
77.393,7.5523974,
74.483,8.8102699,
71.572,9.5,
68.662,9.0151275,
65.751,4.06997,
62.840,4.4268079,
59.930,8.5601482,
57.019,16.31605,
54.109,10.33407,
51.198,5.5,
48.288,5.5056624,
45.377,6.2090405,
42.466,8.973316,
39.556,12.615119,
36.645,13.317309,
33.735,7.2690184,
30.824,1.9417739,
27.914,3.3441244,
25.003,5.3679124,
22.092,4.8854772,
19.182,1.9805401,
16.271,16.669833,
13.361,87.825986,
10.450,191.44201,
7.539,272.44659,
4.629,204.17578,
1.718,32.193553,
-1.192,-255.72714,
-4.103,-267.58555,
-7.013,-174.88636,
-9.924,0.5,
