,PL3CCC~1,
Wavenumbers [1/cm],Intensity,
3014.167,1.5,
3011.256,-0.099914107,
3008.346,172.60946,
3005.435,205.92403,
3002.525,207.32998,
2999.614,232.97533,
2996.704,229.04846,
2993.793,232.36694,
2990.882,241.32441,
2987.972,245.56558,
2985.061,262.49015,
2982.151,267.5,
2979.240,288.5,
2976.329,284.74317,
2973.419,290.76162,
2970.508,294.89996,
2967.598,314.54779,
2964.687,319.79823,
2961.777,322.68802,
2958.866,317.50742,
2955.955,329.50661,
2953.045,336.8848,
2950.134,348.71283,
2947.224,340.89497,
2944.313,381.75855,
2941.403,387.40511,
2938.492,380.35095,
2935.581,385.95152,
2932.671,374.62017,
2929.760,393.67695,
2926.850,412.34323,
2923.939,408.01868,
2921.028,425.60013,
2918.118,428.9597,
2915.207,421.79108,
2912.297,417.50423,
2909.386,422.5073,
2906.476,433.56179,
2903.565,426.35556,
2900.654,427.95802,
2897.744,421.36171,
2894.833,418.33491,
2891.923,431.9327,
2889.012,429.87572,
2886.102,417.23109,
2883.191,380.52832,
2880.280,342.88276,
2877.370,262.2676,
2874.459,285.60086,
2871.549,345.00027,
2868.638,428.32469,
2865.727,420.52692,
2862.817,445.81549,
2859.906,437.6396,
2856.996,448.98868,
2854.085,450.61975,
2851.175,449.97591,
2848.264,471.61799,
2845.353,448.71567,
2842.443,462.49304,
2839.532,456.85828,
2836.622,452.77539,
2833.711,462.87048,
2830.801,473.08971,
2827.890,452.62235,
2824.979,463.89583,
2822.069,476.43177,
2819.158,471.64016,
2816.248,493.67184,
2813.337,467.81952,
2810.427,476.36087,
2807.516,463.72328,
2804.605,493.47836,
2801.695,479.88156,
2798.784,493.79977,
2795.874,474.21504,
2792.963,472.21426,
2790.052,462.50193,
2787.142,472.85527,
2784.231,469.24224,
2781.321,487.11707,
2778.410,470.64974,
2775.500,467.30966,
2772.589,468.61696,
2769.678,488.78671,
2766.768,487.74661,
2763.857,477.81792,
2760.947,494.4937,
2758.036,506.20708,
2755.126,485.11325,
2752.215,503.15912,
2749.304,479.33097,
2746.394,491.34676,
2743.483,492.85001,
2740.573,494.16152,
2737.662,500.59616,
2734.751,498.87366,
2731.841,502.82417,
2728.930,495.13541,
2726.020,517.05093,
2723.109,519.70608,
2720.199,512.18761,
2717.288,514.98907,
2714.377,520.92098,
2711.467,522.27033,
2708.556,530.54253,
2705.646,540.7958,
2702.735,538.17011,
2699.825,549.81458,
2696.914,529.35633,
2694.003,537.0691,
2691.093,548.69616,
2688.182,543.02741,
2685.272,554.55264,
2682.361,530.74673,
2679.450,548.62345,
2676.540,542.60162,
2673.629,543.8498,
2670.719,551.91591,
2667.808,550.98636,
2664.898,557.31809,
2661.987,553.99983,
2659.076,571.06679,
2656.166,554.33977,
2653.255,567.5,
2650.345,568.28403,
2647.434,604.87096,
2644.524,580.16424,
2641.613,575.35732,
2638.702,575.54734,
2635.792,578.90876,
2632.881,582.01748,
2629.971,592.39258,
2627.060,582.83125,
2624.149,589.39376,
2621.239,573.74259,
2618.328,597.56748,
2615.418,577.16364,
2612.507,590.29047,
2609.597,608.3982,
2606.686,600.30522,
2603.775,601.9008,
2600.865,608.32254,
2597.954,623.40417,
2595.044,620.50886,
2592.133,612.99676,
2589.223,603.25894,
2586.312,611.32915,
2583.401,617.2336,
2580.491,614.61061,
2577.580,639.5033,
2574.670,641.77674,
2571.759,633.69179,
2568.848,628.96963,
2565.938,628.16648,
2563.027,647.27958,
2560.117,635.22897,
2557.206,629.97971,
2554.296,643.5,
2551.385,634.73991,
2548.474,638.98179,
2545.564,655.18344,
2542.653,663.47987,
2539.743,646.95687,
2536.832,652.01028,
2533.922,679.46846,
2531.011,672.8254,
2528.100,656.76828,
2525.190,661.40574,
2522.279,676.51514,
2519.369,648.34955,
2516.458,653.4058,
2513.548,663.60012,
2510.637,650.89783,
2507.726,684.06505,
2504.816,680.43799,
2501.905,678.63049,
2498.995,679.23185,
2496.084,696.38147,
2493.173,679.57914,
2490.263,699.65709,
2487.352,700.3748,
2484.442,702.34153,
2481.531,705.54796,
2478.621,702.87443,
2475.710,716.53067,
2472.799,719.7601,
2469.889,722.83242,
2466.978,721.28357,
2464.068,701.26184,
2461.157,736.80019,
2458.247,721.9855,
2455.336,723.07727,
2452.425,723.08964,
2449.515,732.74532,
2446.604,738.02532,
2443.694,732.87168,
2440.783,748.79054,
2437.872,742.24475,
2434.962,742.06681,
2432.051,763.91364,
2429.141,750.41787,
2426.230,750.97847,
2423.320,767.85684,
2420.409,769.15406,
2417.498,753.49158,
2414.588,763.67487,
2411.677,785.92627,
2408.767,770.75295,
2405.856,763.05719,
2402.946,782.93521,
2400.035,800.99531,
2397.124,783.58023,
2394.214,766.33919,
2391.303,792.4336,
2388.393,774.63946,
2385.482,767.36781,
2382.571,766.5,
2379.661,777.66259,
2376.750,779.71439,
2373.840,814.56229,
2370.929,817.6083,
2368.019,818.51106,
2365.108,835.15183,
2362.197,830.88905,
2359.287,826.11337,
2356.376,817.51233,
2353.466,844.74319,
2350.555,835.87009,
2347.645,843.05231,
2344.734,832.89168,
2341.823,842.28442,
2338.913,848.1642,
2336.002,861.61243,
2333.092,868.00567,
2330.181,880.55368,
2327.270,866.4901,
2324.360,887.44103,
2321.449,886.06801,
2318.539,867.94648,
2315.628,875.26419,
2312.718,865.36783,
2309.807,884.81687,
2306.896,877.01174,
2303.986,888.4611,
2301.075,886.39366,
2298.165,887.48092,
2295.254,885.58617,
2292.344,904.76559,
2289.433,900.53864,
2286.522,916.66066,
2283.612,928.71047,
2280.701,915.05609,
2277.791,904.38165,
2274.880,923.14604,
2271.969,917.59465,
2269.059,923.61717,
2266.148,946.38648,
2263.238,950.00193,
2260.327,935.39694,
2257.417,974.26278,
2254.506,957.72215,
2251.595,940.77996,
2248.685,958.02111,
2245.774,959.79675,
2242.864,948.08353,
2239.953,960.59648,
2237.043,974.5,
2234.132,962.93642,
2231.221,962.73777,
2228.311,989.11595,
2225.400,961.00662,
2222.490,985.36986,
2219.579,1026.7828,
2216.669,1035.562,
2213.758,1030.9797,
2210.847,1034.694,
2207.937,1038.3371,
2205.026,1052.1662,
2202.116,1068.3843,
2199.205,1084.7494,
2196.294,1104.93,
2193.384,1090.185,
2190.473,1104.6655,
2187.563,1142.5677,
2184.652,1157.8555,
2181.742,1179.6836,
2178.831,1214.3794,
2175.920,1269.7077,
2173.010,1329.5266,
2170.099,1395.56,
2167.189,1459.6435,
2164.278,1494.6136,
2161.368,1617.9243,
2158.457,1729.7995,
2155.546,1810.8309,
2152.636,1917.0902,
2149.725,2018.9026,
2146.815,2047.9995,
2143.904,2157.4182,
2140.993,2217.5633,
2138.083,2254.0867,
2135.172,2230.458,
2132.262,2234.2482,
2129.351,2231.9896,
2126.441,2159.0532,
2123.530,2080.0745,
2120.619,1944.5922,
2117.709,1859.8229,
2114.798,1745.2225,
2111.888,1626.0642,
2108.977,1533.5529,
2106.067,1477.9903,
2103.156,1404.5124,
2100.245,1325.4762,
2097.335,1281.9607,
2094.424,1232.1654,
2091.514,1192.4892,
2088.603,1159.7858,
2085.692,1128.1321,
2082.782,1144.3593,
2079.871,1136.6062,
2076.961,1140.9188,
2074.050,1125.3364,
2071.140,1104.1091,
2068.229,1114.1328,
2065.318,1113.1415,
2062.408,1092.1891,
2059.497,1078.2976,
2056.587,1081.7557,
2053.676,1105.5487,
2050.766,1125.2683,
2047.855,1063.8417,
2044.944,1078.8253,
2042.034,1098.367,
2039.123,1090.1397,
2036.213,1082.1933,
2033.302,1074.4131,
2030.391,1065.1273,
2027.481,1058.2683,
2024.570,1063.3998,
2021.660,1079.5539,
2018.749,1059.6777,
2015.839,1082.9088,
2012.928,1045.0973,
2010.017,1054.3317,
2007.107,1060.3412,
2004.196,1080.3571,
2001.286,1055.7686,
1998.375,1050.4587,
1995.465,1030.6884,
1992.554,1042.9057,
1989.643,1040.6728,
1986.733,1016.2658,
1983.822,1041.2932,
1980.912,1006.4606,
1978.001,1008.3479,
1975.090,999.66489,
1972.180,1010.6037,
1969.269,1015.9914,
1966.359,1003.0403,
1963.448,996.15258,
1960.538,1009.6726,
1957.627,1018.7415,
1954.716,996.18944,
1951.806,992.71159,
1948.895,965.00395,
1945.985,998.47058,
1943.074,959.42614,
1940.164,967.72111,
1937.253,961.91745,
1934.342,962.53422,
1931.432,956.10883,
1928.521,963.4361,
1925.611,952.03916,
1922.700,941.33425,
1919.790,927.58107,
1916.879,942.24451,
1913.968,953.4877,
1911.058,941.03754,
1908.147,934.5,
1905.237,931.9191,
1902.326,929.6748,
1899.415,929.53655,
1896.505,882.10843,
1893.594,892.40248,
1890.684,918.40841,
1887.773,929.34486,
1884.863,931.68907,
1881.952,941.86992,
1879.041,921.29231,
1876.131,940.3745,
1873.220,927.32293,
1870.310,945.84974,
1867.399,932.7399,
1864.489,952.9812,
1861.578,915.6868,
1858.667,923.22152,
1855.757,958.89141,
1852.846,963.22309,
1849.936,940.54706,
1847.025,934.02553,
1844.114,951.5,
1841.204,949.6958,
1838.293,958.98088,
1835.383,975.96499,
1832.472,972.19739,
1829.562,988.21928,
1826.651,983.40556,
1823.740,977.68391,
1820.830,980.81498,
1817.919,999.41628,
1815.009,997.50636,
1812.098,983.93308,
1809.188,984.37596,
1806.277,981.5664,
1803.366,1006.3503,
1800.456,998.81897,
1797.545,1019.9327,
1794.635,1010.4341,
1791.724,1041.7525,
1788.813,1004.1085,
1785.903,1019.0098,
1782.992,978.81743,
1780.082,949.50784,
1777.171,898.83351,
1774.261,918.48038,
1771.350,974.84926,
1768.439,1023.6933,
1765.529,1043.7732,
1762.618,1061.4769,
1759.708,1052.978,
1756.797,1056.3939,
1753.887,1085.7055,
1750.976,1072.8102,
1748.065,1064.1866,
1745.155,1045.4227,
1742.244,1040.1214,
1739.334,1085.267,
1736.423,1082.5972,
1733.512,1096.7846,
1730.602,1127.9405,
1727.691,1117.8438,
1724.781,1118.006,
1721.870,1134.7906,
1718.960,1102.3218,
1716.049,1126.381,
1713.138,1147.0349,
1710.228,1144.2782,
1707.317,1146.1537,
1704.407,1150.0936,
1701.496,1147.7654,
1698.586,1169.6756,
1695.675,1176.1785,
1692.764,1190.7008,
1689.854,1164.7126,
1686.943,1200.2184,
1684.033,1299.0164,
1681.122,1243.5026,
1678.211,1268.2525,
1675.301,1294.4198,
1672.390,1300.5658,
1669.480,1322.8129,
1666.569,1361.9063,
1663.659,1394.3493,
1660.748,1445.6735,
1657.837,1455.3967,
1654.927,1495.8514,
1652.016,1511.1561,
1649.106,1539.3116,
1646.195,1612.2912,
1643.285,1644.7507,
1640.374,1656.8798,
1637.463,1722.5989,
1634.553,1784.495,
1631.642,1918.5641,
1628.732,2015.9503,
1625.821,2091.6544,
1622.911,2326.1701,
1620.000,2428.2149,
1617.089,2624.5398,
1614.179,2860.76,
1611.268,3019.6259,
1608.358,3188.4932,
1605.447,3289.8436,
1602.536,3362.5959,
1599.626,3365.6601,
1596.715,3337.3644,
1593.805,3267.4251,
1590.894,3228.6765,
1587.984,3245.2862,
1585.073,3156.6118,
1582.162,3077.0487,
1579.252,3129.9641,
1576.341,3105.2479,
1573.431,3096.2832,
1570.520,3082.7412,
1567.610,3061.3625,
1564.699,2980.0969,
1561.788,2893.0499,
1558.878,2845.9688,
1555.967,2782.6468,
1553.057,2722.9658,
1550.146,2660.2528,
1547.235,2595.8998,
1544.325,2560.886,
1541.414,2503.8147,
1538.504,2454.3068,
1535.593,2432.8926,
1532.683,2377.9921,
1529.772,2285.7882,
1526.861,2235.5582,
1523.951,2272.4905,
1521.040,2281.7518,
1518.130,2211.3627,
1515.219,2185.8191,
1512.309,2184.3017,
1509.398,2083.0703,
1506.487,2080.5945,
1503.577,2075.7652,
1500.666,2070.4927,
1497.756,2057.0078,
1494.845,1988.2988,
1491.934,1935.5567,
1489.024,1952.8816,
1486.113,1903.4304,
1483.203,1837.3283,
1480.292,1827.803,
1477.382,1774.9639,
1474.471,1715.6899,
1471.560,1704.4027,
1468.650,1669.2865,
1465.739,1666.5908,
1462.829,1696.5822,
1459.918,1659.5659,
1457.008,1604.8075,
1454.097,1577.2488,
1451.186,1588.1944,
1448.276,1623.3344,
1445.365,1646.327,
1442.455,1682.0682,
1439.544,1596.2566,
1436.633,1590.4225,
1433.723,1599.0015,
1430.812,1592.3969,
1427.902,1553.9961,
1424.991,1574.8469,
1422.081,1550.7281,
1419.170,1586.5187,
1416.259,1592.5,
1413.349,1582.6819,
1410.438,1568.3035,
1407.528,1542.9003,
1404.617,1518.5832,
1401.707,1514.2695,
1398.796,1523.6923,
1395.885,1553.0632,
1392.975,1547.8942,
1390.064,1488.0951,
1387.154,1513.2663,
1384.243,1514.5693,
1381.332,1520.4054,
1378.422,1496.6297,
1375.511,1673.6813,
1372.601,1703.2255,
1369.690,1764.6483,
1366.780,1841.031,
1363.869,1860.6794,
1360.958,1846.315,
1358.048,1918.0038,
1355.137,1983.0137,
1352.227,2003.938,
1349.316,2050.5505,
1346.406,2126.1291,
1343.495,2186.4652,
1340.584,2226.1422,
1337.674,2281.0057,
1334.763,2365.7478,
1331.853,2293.4237,
1328.942,2350.9836,
1326.032,2440.8777,
1323.121,2482.4699,
1320.210,2585.0607,
1317.300,2643.7144,
1314.389,2723.4459,
1311.479,2801.1116,
1308.568,2850.4967,
1305.657,2937.5718,
1302.747,3003.4292,
1299.836,3075.8074,
1296.926,3258.2519,
1294.015,3295.9442,
1291.105,3441.0283,
1288.194,3601.0788,
1285.283,3749.6285,
1282.373,3799.5625,
1279.462,3862.891,
1276.552,3946.4135,
1273.641,3998.4066,
1270.731,4037.4358,
1267.820,4071.5672,
1264.909,4040.4014,
1261.999,4061.1005,
1259.088,4050.1551,
1256.178,3932.1655,
1253.267,3889.4841,
1250.356,3736.8904,
1247.446,3588.2918,
1244.535,3458.1698,
1241.625,3290.4558,
1238.714,3120.8729,
1235.804,3025.5293,
1232.893,2938.3937,
1229.982,2854.1133,
1227.072,2872.2195,
1224.161,2806.2597,
1221.251,2740.6398,
1218.340,2688.8138,
1215.430,2639.67,
1212.519,2608.1614,
1209.608,2585.9706,
1206.698,2557.968,
1203.787,2560.5101,
1200.877,2601.0074,
1197.966,2641.4696,
1195.055,2727.9716,
1192.145,2818.3857,
1189.234,2896.701,
1186.324,2939.1377,
1183.413,2962.4239,
1180.503,2973.7902,
1177.592,2960.2271,
1174.681,2938.2329,
1171.771,2929.0055,
1168.860,2907.5713,
1165.950,2858.7352,
1163.039,2863.5633,
1160.129,2874.629,
1157.218,2871.7312,
1154.307,2835.447,
1151.397,2793.6238,
1148.486,2817.5519,
1145.576,2804.6883,
1142.665,2762.9564,
1139.754,2754.6182,
1136.844,2739.4939,
1133.933,2718.2508,
1131.023,2729.6885,
1128.112,2721.2905,
1125.202,2662.2246,
1122.291,2664.7507,
1119.380,2666.4654,
1116.470,2662.9352,
1113.559,2682.6045,
1110.649,2670.1643,
1107.738,2676.0387,
1104.828,2680.7619,
1101.917,2659.9198,
1099.006,2638.9742,
1096.096,2636.8225,
1093.185,2642.0905,
1090.275,2649.7834,
1087.364,2689.9229,
1084.453,2730.561,
1081.543,2786.6252,
1078.632,2820.4571,
1075.722,2791.2612,
1072.811,2804.5835,
1069.901,2763.5403,
1066.990,2748.375,
1064.079,2718.2794,
1061.169,2706.0523,
1058.258,2709.0409,
1055.348,2717.7913,
1052.437,2743.4551,
1049.527,2809.0301,
1046.616,2796.8665,
1043.705,2794.7292,
1040.795,2791.3075,
1037.884,2822.3729,
1034.974,2841.4652,
1032.063,2825.9382,
1029.153,2851.797,
1026.242,2895.9098,
1023.331,2901.6664,
1020.421,2912.2594,
1017.510,2938.911,
1014.600,2971.3026,
1011.689,2997.7715,
1008.778,3024.056,
1005.868,3086.0406,
1002.957,3146.2654,
1000.047,3265.428,
997.136,3385.2016,
994.226,3430.2386,
991.315,3434.245,
988.404,3464.7177,
985.494,3424.3849,
982.583,3419.2456,
979.673,3439.7178,
976.762,3453.9581,
973.852,3458.942,
970.941,3469.2806,
968.030,3490.0953,
965.120,3476.6504,
962.209,3512.4571,
959.299,3514.9588,
956.388,3486.6217,
953.477,3472.8985,
950.567,3477.2258,
947.656,3470.1954,
944.746,3551.7528,
941.835,3517.4388,
938.925,3484.1521,
936.014,3468.9709,
933.103,3458.0257,
930.193,3450.0908,
927.282,3473.1216,
924.372,3336.9789,
921.461,3290.7804,
918.551,3230.5397,
915.640,3208.9481,
912.729,3193.077,
909.819,3101.393,
906.908,3138.4597,
903.998,3128.5695,
901.087,3115.3159,
898.176,3138.6089,
895.266,3180.6568,
892.355,3206.2694,
889.445,3226.4118,
886.534,3281.6015,
883.624,3324.7959,
880.713,3340.5,
877.802,3335.6365,
874.892,3295.0622,
871.981,3153.3891,
869.071,3063.9999,
866.160,3123.0156,
863.250,3197.3878,
860.339,3238.7957,
857.428,3241.526,
854.518,3217.804,
851.607,3124.6122,
848.697,3011.5178,
845.786,3011.6121,
842.875,3080.1143,
839.965,3143.8936,
837.054,3200.4721,
834.144,3197.9858,
831.233,3170.1686,
828.323,3136.7171,
825.412,3103.2995,
822.501,3068.6488,
819.591,3030.6344,
816.680,2980.6217,
813.770,2925.2713,
810.859,2885.9628,
807.949,2857.9243,
805.038,2827.8982,
802.127,2831.1907,
799.217,2815.1014,
796.306,2818.0136,
793.396,2821.7748,
790.485,2815.1836,
787.574,2808.8353,
784.664,2870.3437,
781.753,2884.1839,
778.843,2921.276,
775.932,2952.9445,
773.022,2939.9928,
770.111,2936.7225,
767.200,2903.7636,
764.290,2879.0531,
761.379,2867.7123,
758.469,2853.3162,
755.558,2802.8679,
752.648,2781.6882,
749.737,2783.3751,
746.826,2791.6284,
743.916,2767.9022,
741.005,2683.0631,
738.095,2608.3705,
735.184,2530.1392,
732.274,2510.9144,
729.363,2562.8824,
726.452,2658.8321,
723.542,2704.9675,
720.631,2774.7794,
717.721,2832.1621,
714.810,2852.2671,
711.899,2843.8861,
708.989,2858.4108,
706.078,2855.2948,
703.168,2873.3238,
700.257,2846.7182,
697.347,2782.5879,
694.436,2752.0494,
691.525,2809.1195,
688.615,2764.2691,
685.704,2746.041,
682.794,2774.2233,
679.883,2800.8696,
676.973,2831.3217,
674.062,2846.4331,
671.151,2834.8435,
668.241,2810.4028,
665.330,2799.9328,
662.420,2787.9518,
659.509,2783.5952,
656.598,2801.541,
653.688,2832.4811,
650.777,2852.419,
647.867,2850.03,
644.956,2824.1148,
642.046,2782.3803,
639.135,2746.9673,
636.224,2752.6034,
633.314,2773.2458,
630.403,2765.4934,
627.493,2771.4789,
624.582,2794.7937,
621.672,2791.6257,
618.761,2747.4235,
615.850,2757.1925,
612.940,2795.6259,
610.029,2831.4478,
607.119,2825.1308,
604.208,2779.7692,
601.297,2799.8859,
598.387,2821.5887,
595.476,2777.2716,
592.566,2753.6596,
589.655,2724.2323,
586.745,2729.5946,
583.834,2737.1529,
580.923,2675.7085,
578.013,2710.2368,
575.102,2743.5907,
572.192,2753.997,
569.281,2744.4368,
566.371,2766.3503,
563.460,2714.1789,
560.549,2719.7622,
557.639,2765.0767,
554.728,2806.6131,
551.818,2792.5674,
548.907,2820.5801,
545.996,2826.8924,
543.086,2811.875,
540.175,2841.4635,
537.265,2836.9815,
534.354,2846.0389,
531.444,2872.8262,
528.533,2912.2241,
525.622,2908.3444,
522.712,2926.9161,
519.801,2970.0504,
516.891,3016.2134,
513.980,2999.9532,
511.070,3045.6913,
508.159,3087.9456,
505.248,3144.296,
502.338,3241.2848,
499.427,3302.2595,
496.517,3349.6111,
493.606,3396.7179,
490.695,3445.7095,
487.785,3468.8033,
484.874,3470.5613,
481.964,3471.1611,
479.053,3467.9843,
476.143,3444.9454,
473.232,3380.9119,
470.321,3367.2047,
467.411,3379.0065,
464.500,3381.8769,
461.590,3436.2445,
458.679,3469.6597,
455.769,3519.7872,
452.858,3592.1256,
449.947,3550.1094,
447.037,3560.9163,
444.126,3609.7303,
441.216,3675.9978,
438.305,3701.9035,
435.395,3710.7451,
432.484,3713.9168,
429.573,3718.76,
426.663,3737.0034,
423.752,3610.8723,
420.842,3471.0131,
417.931,3374.5939,
415.020,3389.0027,
412.110,3662.3917,
409.199,3835.3606,
406.289,3914.2058,
403.378,3922.4308,
400.468,3902.019,
397.557,3912.4669,
394.646,3953.0105,
391.736,4016.7716,
388.825,3931.5435,
385.915,3945.3501,
383.004,3996.6326,
380.094,4041.4195,
377.183,4079.0433,
374.272,4106.869,
371.362,4132.0958,
368.451,4160.3267,
365.541,4206.8599,
362.630,4209.1214,
359.719,4204.3476,
356.809,4212.2313,
353.898,4191.265,
350.988,4198.5197,
348.077,4217.6314,
345.167,4236.554,
342.256,4217.8773,
339.345,4186.4598,
336.435,4179.878,
333.524,4222.453,
330.614,4220.9627,
327.703,4243.6032,
324.793,4276.3272,
321.882,4307.5415,
318.971,4324.6406,
316.061,4361.2638,
313.150,4397.4262,
310.240,4410.0422,
307.329,4466.9563,
304.418,4504.0905,
301.508,4496.8845,
298.597,4404.3324,
295.687,4419.5262,
292.776,4462.1668,
289.866,4521.7577,
286.955,4594.1528,
284.044,4671.5449,
281.134,4710.1297,
278.223,4712.1945,
275.313,4730.6159,
272.402,4806.532,
269.492,4820.7945,
266.581,4741.024,
263.670,4762.3442,
260.760,4816.0369,
257.849,4896.4543,
254.939,5002.1334,
252.028,5002.0523,
249.117,4956.2741,
246.207,4918.9787,
243.296,4982.6659,
240.386,4978.3991,
237.475,4974.8051,
234.565,4977.5797,
231.654,4971.7367,
228.743,4944.0331,
225.833,4927.8539,
222.922,4933.8353,
220.012,4898.1361,
217.101,4888.4629,
214.191,4884.3803,
211.280,4864.0114,
208.369,4831.5506,
205.459,4826.8805,
202.548,4834.8537,
199.638,4790.5891,
196.727,4801.0913,
193.816,4802.255,
190.906,4772.9983,
187.995,4815.7157,
185.085,4845.1585,
182.174,4877.7583,
179.264,4937.7479,
176.353,4934.8883,
173.442,4944.3649,
170.532,4959.8311,
167.621,4868.2672,
164.711,4797.7756,
161.800,4695.0589,
158.890,4515.127,
155.979,4284.6534,
153.068,3983.9255,
150.158,3613.3028,
147.247,3159.557,
144.337,2627.4448,
141.426,2082.6552,
138.516,1553.5895,
135.605,1128.3981,
132.694,766.90224,
129.784,482.34731,
126.873,337.89109,
123.963,228.83018,
121.052,148.66975,
118.141,98.696615,
115.231,85.709734,
112.320,68.638194,
109.410,50.863737,
106.499,42.317874,
103.589,47.223054,
100.678,47.882431,
97.767,35.796492,
94.857,32.728044,
91.946,32.709333,
89.036,32.806531,
86.125,22.168452,
83.215,20.03092,
80.304,18.345106,
77.393,11.971576,
74.483,17.396215,
71.572,21.949408,
68.662,24.084395,
65.751,19.845689,
62.840,16.573192,
59.930,15.249145,
57.019,18.069473,
54.109,12.528392,
51.198,9.7064371,
48.288,12.505662,
45.377,13.209041,
42.466,9.3778066,
39.556,3.9604743,
36.645,6.7692352,
33.735,8.0192485,
30.824,8.5,
27.914,8.5,
25.003,9.1226375,
22.092,11.114523,
19.182,14.431351,
16.271,12.332881,
13.361,27.936861,
10.450,53.865313,
7.539,73.418143,
4.629,17.057328,
1.718,-7.5721723,
-1.192,99.788086,
-4.103,35.718306,
-7.013,-11.459776,
-9.924,-4.5,
