,PL425B~1,
Wavenumbers [1/cm],Intensity,
3014.167,2.5,
3011.256,-0.74994632,
3008.346,152.03267,
3005.435,177.61661,
3002.525,178.74497,
2999.614,189.58963,
2996.704,179.05671,
2993.793,196.98618,
2990.882,209.75953,
2987.972,209.46469,
2985.061,218.01726,
2982.151,231.33529,
2979.240,253.55038,
2976.329,232.71587,
2973.419,246.02324,
2970.508,257.9999,
2967.598,256.64337,
2964.687,260.93274,
2961.777,260.68802,
2958.866,278.50297,
2955.955,287.40043,
2953.045,287.92061,
2950.134,303.76528,
2947.224,291.06938,
2944.313,310.94943,
2941.403,302.80931,
2938.492,329.32925,
2935.581,315.79571,
2932.671,328.65879,
2929.760,329.98463,
2926.850,338.39549,
2923.939,347.09812,
2921.028,359.66477,
2918.118,354.28212,
2915.207,363.84801,
2912.297,329.62271,
2909.386,357.66789,
2906.476,353.36797,
2903.565,344.51704,
2900.654,349.68703,
2897.744,352.37428,
2894.833,347.86073,
2891.923,344.9583,
2889.012,330.62139,
2886.102,308.67301,
2883.191,295.4915,
2880.280,187.20331,
2877.370,22.09913,
2874.459,-83.543432,
2871.549,94.277302,
2868.638,305.37823,
2865.727,319.6808,
2862.817,334.72992,
2859.906,333.86752,
2856.996,363.91169,
2854.085,370.29619,
2851.175,368.93365,
2848.264,394.85783,
2845.353,373.41373,
2842.443,374.29164,
2839.532,369.85828,
2836.622,379.5957,
2833.711,393.03374,
2830.801,397.08971,
2827.890,402.1451,
2824.979,407.48794,
2822.069,394.77293,
2819.158,404.43799,
2816.248,405.40736,
2813.337,402.18048,
2810.427,402.72039,
2807.516,407.60062,
2804.605,420.27404,
2801.695,420.59212,
2798.784,415.23923,
2795.874,409.37073,
2792.963,408.0717,
2790.052,395.50408,
2787.142,405.94731,
2784.231,412.27328,
2781.321,392.56286,
2778.410,400.55456,
2775.500,408.20241,
2772.589,414.26911,
2769.678,414.35665,
2766.768,414.06505,
2763.857,399.18594,
2760.947,414.00315,
2758.036,421.27711,
2755.126,404.40171,
2752.215,418.8819,
2749.304,413.16008,
2746.394,421.61691,
2743.483,427.85001,
2740.573,423.83848,
2737.662,419.30768,
2734.751,435.03405,
2731.841,442.2033,
2728.930,424.39828,
2726.020,434.17361,
2723.109,435.95367,
2720.199,429.53735,
2717.288,453.13139,
2714.377,455.37082,
2711.467,454.05715,
2708.556,465.54253,
2705.646,452.97884,
2702.735,442.00774,
2699.825,460.26004,
2696.914,469.07136,
2694.003,442.86747,
2691.093,474.2858,
2688.182,458.93481,
2685.272,459.65932,
2682.361,465.04694,
2679.450,457.75931,
2676.540,466.68292,
2673.629,470.85429,
2670.719,471.13494,
2667.808,462.22953,
2664.898,464.42218,
2661.987,468.7002,
2659.076,474.75431,
2656.166,471.9848,
2653.255,478.68707,
2650.345,494.66879,
2647.434,509.18591,
2644.524,503.37284,
2641.613,502.38624,
2638.702,505.59469,
2635.792,490.87686,
2632.881,490.35691,
2629.971,494.39258,
2627.060,487.66656,
2624.149,498.60624,
2621.239,513.50593,
2618.328,492.43252,
2615.418,507.19545,
2612.507,500.08496,
2609.597,511.67365,
2606.686,516.5,
2603.775,515.05952,
2600.865,516.55803,
2597.954,513.97914,
2595.044,525.48229,
2592.133,514.21322,
2589.223,513.4158,
2586.312,537.25381,
2583.401,523.29563,
2580.491,537.11535,
2577.580,525.52641,
2574.670,535.41178,
2571.759,533.26283,
2568.848,542.03037,
2565.938,540.54755,
2563.027,543.18186,
2560.117,533.67758,
2557.206,530.07565,
2554.296,536.35812,
2551.385,550.1361,
2548.474,559.68513,
2545.564,570.12013,
2542.653,556.97315,
2539.743,566.03081,
2536.832,558.96916,
2533.922,551.81538,
2531.011,573.14986,
2528.100,562.57312,
2525.190,563.73033,
2522.279,573.62408,
2519.369,540.93363,
2516.458,555.16785,
2513.548,567.82711,
2510.637,546.16003,
2507.726,571.5,
2504.816,581.62627,
2501.905,587.06524,
2498.995,586.55972,
2496.084,590.87284,
2493.173,584.13112,
2490.263,585.26386,
2487.352,597.66693,
2484.442,603.20877,
2481.531,599.60114,
2478.621,586.3578,
2475.710,602.32364,
2472.799,579.5,
2469.889,584.83242,
2466.978,594.10821,
2464.068,619.44188,
2461.157,601.73002,
2458.247,609.16189,
2455.336,604.37473,
2452.425,618.57078,
2449.515,643.25468,
2446.604,634.44936,
2443.694,628.47699,
2440.783,629.45158,
2437.872,631.97404,
2434.962,643.97466,
2432.051,638.11103,
2429.141,625.67069,
2426.230,649.60946,
2423.320,645.18575,
2420.409,645.76919,
2417.498,653.68821,
2414.588,652.41257,
2411.677,679.89041,
2408.767,663.24705,
2405.856,665.78332,
2402.946,661.28552,
2400.035,666.49062,
2397.124,682.45724,
2394.214,647.9048,
2391.303,661.79268,
2388.393,658.34414,
2385.482,621.86592,
2382.571,631.03202,
2379.661,631.89511,
2376.750,670.7068,
2373.840,695.83431,
2370.929,676.74908,
2368.019,693.96919,
2365.108,715.61518,
2362.197,718.13832,
2359.287,721.28162,
2356.376,710.52289,
2353.466,706.65064,
2350.555,717.12991,
2347.645,710.53974,
2344.734,719.53228,
2341.823,720.53317,
2338.913,709.80897,
2336.002,723.46648,
2333.092,736.38492,
2330.181,744.00895,
2327.270,736.94004,
2324.360,745.76886,
2321.449,749.76191,
2318.539,746.83943,
2315.628,740.89488,
2312.718,738.85022,
2309.807,761.29506,
2306.896,758.24804,
2303.986,763.59096,
2301.075,764.71279,
2298.165,770.0771,
2295.254,749.01703,
2292.344,773.92327,
2289.433,768.52318,
2286.522,774.5,
2283.612,783.47068,
2280.701,774.51796,
2277.791,800.9809,
2274.880,814.85396,
2271.969,819.24485,
2269.059,808.58991,
2266.148,815.71369,
2263.238,816.80116,
2260.327,821.91358,
2257.417,802.16055,
2254.506,813.97296,
2251.595,822.92909,
2248.685,840.17686,
2245.774,832.98375,
2242.864,845.87908,
2239.953,826.14131,
2237.043,838.88964,
2234.132,843.90517,
2231.221,842.52582,
2228.311,831.80156,
2225.400,846.21855,
2222.490,843.36986,
2219.579,877.26094,
2216.669,883.00715,
2213.758,886.71831,
2210.847,887.08187,
2207.937,874.02933,
2205.026,886.38834,
2202.116,907.00636,
2199.205,922.91247,
2196.294,932.49197,
2193.384,928.13198,
2190.473,934.65376,
2187.563,943.67884,
2184.652,985.31958,
2181.742,1024.3196,
2178.831,1056.4572,
2175.920,1087.7295,
2173.010,1118.826,
2170.099,1172.0278,
2167.189,1243.9018,
2164.278,1310.6518,
2161.368,1399.7828,
2158.457,1493.5429,
2155.546,1556.4385,
2152.636,1619.2765,
2149.725,1722.057,
2146.815,1766.5323,
2143.904,1873.3178,
2140.993,1917.664,
2138.083,1926.9711,
2135.172,1946.416,
2132.262,1952.7447,
2129.351,1939.9275,
2126.441,1856.1017,
2123.530,1809.6133,
2120.619,1722.4178,
2117.709,1638.8676,
2114.798,1513.2225,
2111.888,1407.9011,
2108.977,1322.1953,
2106.067,1265.2654,
2103.156,1196.9115,
2100.245,1128.4918,
2097.335,1109.5995,
2094.424,1054.0538,
2091.514,1017.7178,
2088.603,1018.2788,
2085.692,1019.0018,
2082.782,1000.1748,
2079.871,969.14178,
2076.961,961.69373,
2074.050,981.78485,
2071.140,928.82181,
2068.229,933.22135,
2065.318,935.52424,
2062.408,931.43948,
2059.497,927.68451,
2056.587,931.72078,
2053.676,915.08458,
2050.766,916.96114,
2047.855,891.78479,
2044.944,901.23398,
2042.034,907.08392,
2039.123,920.27778,
2036.213,916.63119,
2033.302,931.34795,
2030.391,907.75469,
2027.481,919.32907,
2024.570,892.7866,
2021.660,913.78525,
2018.749,929.93014,
2015.839,913.34777,
2012.928,903.40772,
2010.017,915.20141,
2007.107,905.80092,
2004.196,915.44054,
2001.286,912.35163,
1998.375,898.5,
1995.465,870.18215,
1992.554,881.78219,
1989.643,876.77651,
1986.733,844.76754,
1983.822,849.21787,
1980.912,848.86645,
1978.001,846.60203,
1975.090,825.52289,
1972.180,815.05186,
1969.269,831.04891,
1966.359,828.93223,
1963.448,829.26619,
1960.538,857.6568,
1957.627,826.05105,
1954.716,802.07454,
1951.806,826.45032,
1948.895,831.87642,
1945.985,866.30882,
1943.074,824.89123,
1940.164,814.76933,
1937.253,811.73936,
1934.342,794.47433,
1931.432,774.18139,
1928.521,792.02159,
1925.611,806.33768,
1922.700,743.76797,
1919.790,755.06038,
1916.879,765.0815,
1913.968,771.49262,
1911.058,792.61109,
1908.147,732.26796,
1905.237,781.16171,
1902.326,746.18148,
1899.415,725.44144,
1896.505,678.75287,
1893.594,673.21956,
1890.684,717.93118,
1887.773,737.414,
1884.863,748.08314,
1881.952,772.84485,
1879.041,768.90914,
1876.131,783.41633,
1873.220,761.34945,
1870.310,736.15026,
1867.399,750.2441,
1864.489,769.5,
1861.578,767.72541,
1858.667,751.67364,
1855.757,759.6957,
1852.846,764.75128,
1849.936,759.75626,
1847.025,757.78952,
1844.114,777.29294,
1841.204,769.63636,
1838.293,765.99418,
1835.383,786.44148,
1832.472,790.41826,
1829.562,783.5,
1826.651,769.14067,
1823.740,788.70694,
1820.830,801.58664,
1817.919,765.85306,
1815.009,791.74936,
1812.098,781.34253,
1809.188,784.18991,
1806.277,788.41147,
1803.366,778.91591,
1800.456,805.8082,
1797.545,842.91857,
1794.635,820.85405,
1791.724,839.70394,
1788.813,814.8928,
1785.903,789.45157,
1782.992,751.333,
1780.082,646.78385,
1777.171,558.82065,
1774.261,530.84539,
1771.350,637.31803,
1768.439,780.84495,
1765.529,830.4102,
1762.618,853.44316,
1759.708,851.59764,
1756.797,849.09849,
1753.887,837.1137,
1750.976,838.13808,
1748.065,864.78878,
1745.155,841.84215,
1742.244,827.81068,
1739.334,876.05999,
1736.423,881.24956,
1733.512,897.78462,
1730.602,907.99603,
1727.691,904.6617,
1724.781,907.43288,
1721.870,942.3002,
1718.960,904.455,
1716.049,938.12669,
1713.138,933.67506,
1710.228,937.59208,
1707.317,929.65429,
1704.407,929.3984,
1701.496,947.73096,
1698.586,947.65203,
1695.675,927.85012,
1692.764,1025.9058,
1689.854,993.23226,
1686.943,976.03961,
1684.033,1050.5876,
1681.122,1042.6699,
1678.211,1052.4048,
1675.301,1073.4352,
1672.390,1068.5329,
1669.480,1079.5642,
1666.569,1088.0713,
1663.659,1133.0063,
1660.748,1164.387,
1657.837,1208.1222,
1654.927,1148.4915,
1652.016,1233.0308,
1649.106,1294.7203,
1646.195,1304.2193,
1643.285,1334.0697,
1640.374,1360.1725,
1637.463,1438.9684,
1634.553,1465.8743,
1631.642,1558.8355,
1628.732,1680.8615,
1625.821,1741.6053,
1622.911,1901.5927,
1620.000,2024.9378,
1617.089,2244.0821,
1614.179,2406.9032,
1611.268,2550.1464,
1608.358,2724.2123,
1605.447,2766.4431,
1602.536,2782.4783,
1599.626,2790.8595,
1596.715,2826.8964,
1593.805,2799.1984,
1590.894,2749.7052,
1587.984,2754.7592,
1585.073,2656.1036,
1582.162,2602.5999,
1579.252,2627.4137,
1576.341,2584.8341,
1573.431,2583.4644,
1570.520,2587.2644,
1567.610,2495.8515,
1564.699,2471.0253,
1561.788,2422.7963,
1558.878,2377.6033,
1555.967,2332.8061,
1553.057,2286.7934,
1550.146,2197.9838,
1547.235,2147.1871,
1544.325,2093.7332,
1541.414,2019.8562,
1538.504,1984.8758,
1535.593,1954.2066,
1532.683,1908.5836,
1529.772,1878.8751,
1526.861,1863.0744,
1523.951,1857.6182,
1521.040,1844.7695,
1518.130,1795.0005,
1515.219,1751.6997,
1512.309,1752.8378,
1509.398,1716.1959,
1506.487,1687.508,
1503.577,1676.8835,
1500.666,1665.9331,
1497.756,1652.0507,
1494.845,1631.7385,
1491.934,1565.5252,
1489.024,1573.2251,
1486.113,1511.3766,
1483.203,1486.0721,
1480.292,1430.8923,
1477.382,1447.3639,
1474.471,1355.2755,
1471.560,1358.155,
1468.650,1371.1833,
1465.739,1315.1369,
1462.829,1305.5822,
1459.918,1293.4279,
1457.008,1246.1151,
1454.097,1199.7786,
1451.186,1219.413,
1448.276,1301.3174,
1445.365,1320.3191,
1442.455,1279.1073,
1439.544,1242.1539,
1436.633,1236.2766,
1433.723,1230.6246,
1430.812,1229.4313,
1427.902,1202.8235,
1424.991,1174.3906,
1422.081,1209.2816,
1419.170,1272.1202,
1416.259,1246.6673,
1413.349,1190.1646,
1410.438,1179.3985,
1407.528,1164.7627,
1404.617,1137.8862,
1401.707,1139.8084,
1398.796,1143.5315,
1395.885,1138.0473,
1392.975,1162.2091,
1390.064,1167.1292,
1387.154,1109.6781,
1384.243,1130.1195,
1381.332,1097.176,
1378.422,1085.1178,
1375.511,1213.4568,
1372.601,1330.6963,
1369.690,1301.0678,
1366.780,1372.9115,
1363.869,1415.2943,
1360.958,1446.6076,
1358.048,1526.7309,
1355.137,1554.0497,
1352.227,1563.4936,
1349.316,1632.8276,
1346.406,1694.6931,
1343.495,1710.4687,
1340.584,1747.6779,
1337.674,1801.0393,
1334.763,1857.1231,
1331.853,1899.7758,
1328.942,1875.7055,
1326.032,2033.1773,
1323.121,2098.3976,
1320.210,2151.1189,
1317.300,2157.154,
1314.389,2227.696,
1311.479,2325.0338,
1308.568,2379.5169,
1305.657,2450.2909,
1302.747,2514.8227,
1299.836,2580.8761,
1296.926,2737.5165,
1294.015,2823.9329,
1291.105,2948.1342,
1288.194,3088.3052,
1285.283,3172.4842,
1282.373,3254.8826,
1279.462,3312.4604,
1276.552,3370.4529,
1273.641,3440.4152,
1270.731,3455.3895,
1267.820,3396.0458,
1264.909,3400.0504,
1261.999,3470.2323,
1259.088,3490.299,
1256.178,3439.2562,
1253.267,3331.5318,
1250.356,3208.7162,
1247.446,3084.1184,
1244.535,2964.5671,
1241.625,2848.0187,
1238.714,2723.7957,
1235.804,2602.3691,
1232.893,2535.6279,
1229.982,2519.7403,
1227.072,2438.2622,
1224.161,2378.7078,
1221.251,2348.3983,
1218.340,2267.0016,
1215.430,2250.7236,
1212.519,2263.2558,
1209.608,2237.8443,
1206.698,2208.7766,
1203.787,2209.0729,
1200.877,2193.9547,
1197.966,2249.7026,
1195.055,2287.4832,
1192.145,2399.4394,
1189.234,2505.8672,
1186.324,2545.591,
1183.413,2556.6574,
1180.503,2563.4294,
1177.592,2550.803,
1174.681,2544.8253,
1171.771,2518.82,
1168.860,2489.3481,
1165.950,2510.6887,
1163.039,2531.1665,
1160.129,2523.9333,
1157.218,2494.7898,
1154.307,2470.5318,
1151.397,2467.0641,
1148.486,2468.2032,
1145.576,2447.457,
1142.665,2400.3976,
1139.754,2400.5681,
1136.844,2346.1761,
1133.933,2351.2388,
1131.023,2352.6162,
1128.112,2322.9298,
1125.202,2306.0507,
1122.291,2302.7534,
1119.380,2311.9417,
1116.470,2356.9507,
1113.559,2340.0758,
1110.649,2361.6584,
1107.738,2330.9555,
1104.828,2301.4864,
1101.917,2308.695,
1099.006,2295.1288,
1096.096,2306.3712,
1093.185,2287.9331,
1090.275,2342.3396,
1087.364,2346.5804,
1084.453,2380.7476,
1081.543,2432.411,
1078.632,2456.4259,
1075.722,2451.4493,
1072.811,2467.1349,
1069.901,2447.9231,
1066.990,2425.4834,
1064.079,2393.96,
1061.169,2404.1444,
1058.258,2407.2545,
1055.348,2404.7254,
1052.437,2447.1881,
1049.527,2441.1042,
1046.616,2456.7431,
1043.705,2461.5831,
1040.795,2459.3075,
1037.884,2478.741,
1034.974,2497.2655,
1032.063,2493.2615,
1029.153,2498.4202,
1026.242,2547.7227,
1023.331,2563.6658,
1020.421,2577.6536,
1017.510,2574.0959,
1014.600,2603.872,
1011.689,2640.9569,
1008.778,2618.2967,
1005.868,2669.9942,
1002.957,2725.0569,
1000.047,2823.044,
997.136,2950.4721,
994.226,2993.7465,
991.315,2993.8143,
988.404,3049.5828,
985.494,3004.3247,
982.583,3041.1567,
979.673,3045.0367,
976.762,3031.5838,
973.852,3041.5064,
970.941,3048.3099,
968.030,3020.4251,
965.120,3093.432,
962.209,3077.2337,
959.299,3064.5845,
956.388,3070.5794,
953.477,3087.9536,
950.567,3096.2715,
947.656,3085.5108,
944.746,3116.0948,
941.835,3102.9234,
938.925,3081.0746,
936.014,3107.9195,
933.103,3104.3065,
930.193,3030.1029,
927.282,3018.3002,
924.372,2977.7111,
921.461,2932.7344,
918.551,2852.8545,
915.640,2820.798,
912.729,2831.8392,
909.819,2800.8294,
906.908,2765.4475,
903.998,2698.2801,
901.087,2717.7809,
898.176,2757.1106,
895.266,2793.3699,
892.355,2831.7406,
889.445,2854.4008,
886.534,2901.2528,
883.624,2922.611,
880.713,2943.3003,
877.802,2914.7708,
874.892,2798.6499,
871.981,2636.1462,
869.071,2494.126,
866.160,2564.7144,
863.250,2713.389,
860.339,2835.2741,
857.428,2880.3521,
854.518,2872.154,
851.607,2756.4964,
848.697,2653.9619,
845.786,2591.0707,
842.875,2624.8259,
839.965,2745.6897,
837.054,2810.0348,
834.144,2768.5972,
831.233,2751.834,
828.323,2749.4783,
825.412,2741.1972,
822.501,2705.4997,
819.591,2627.8181,
816.680,2587.0384,
813.770,2568.1025,
810.859,2560.695,
807.949,2546.6487,
805.038,2515.3009,
802.127,2513.6546,
799.217,2523.1901,
796.306,2494.716,
793.396,2479.065,
790.485,2493.3423,
787.574,2497.6832,
784.664,2528.8475,
781.753,2555.3005,
778.843,2582.1628,
775.932,2605.6727,
773.022,2614.8085,
770.111,2584.5581,
767.200,2590.8744,
764.290,2568.0734,
761.379,2546.7429,
758.469,2537.8961,
755.558,2520.2326,
752.648,2511.2719,
749.737,2470.3326,
746.826,2431.7836,
743.916,2401.7271,
741.005,2366.7793,
738.095,2280.7203,
735.184,2178.2573,
732.274,2148.3367,
729.363,2206.6157,
726.452,2323.9716,
723.542,2404.1015,
720.631,2476.544,
717.721,2495.2086,
714.810,2492.358,
711.899,2498.2129,
708.989,2531.2968,
706.078,2501.0505,
703.168,2513.5383,
700.257,2512.06,
697.347,2486.0658,
694.436,2466.7619,
691.525,2476.4075,
688.615,2459.0038,
685.704,2464.336,
682.794,2489.7766,
679.883,2500.8244,
676.973,2508.0367,
674.062,2522.2616,
671.151,2505.8302,
668.241,2477.6442,
665.330,2485.2563,
662.420,2501.231,
659.509,2485.4521,
656.598,2481.8567,
653.688,2508.0631,
650.777,2563.608,
647.867,2566.7933,
644.956,2513.0148,
642.046,2433.8942,
639.135,2370.3384,
636.224,2373.691,
633.314,2411.8,
630.403,2413.8143,
627.493,2443.0667,
624.582,2481.7257,
621.672,2406.4863,
618.761,2465.815,
615.850,2472.8273,
612.940,2468.9892,
610.029,2479.1326,
607.119,2464.9192,
604.208,2462.08,
601.297,2478.9481,
598.387,2481.3085,
595.476,2443.7228,
592.566,2446.084,
589.655,2414.7534,
586.745,2403.1416,
583.834,2405.8887,
580.923,2389.4526,
578.013,2381.6053,
575.102,2384.6623,
572.192,2391.3583,
569.281,2404.936,
566.371,2451.8934,
563.460,2467.082,
560.549,2458.3435,
557.639,2455.2425,
554.728,2485.4362,
551.818,2500.2622,
548.907,2527.2671,
545.996,2543.2776,
543.086,2538.125,
540.175,2508.5365,
537.265,2510.1214,
534.354,2536.0828,
531.444,2553.8122,
528.533,2538.1003,
525.622,2560.6028,
522.712,2617.074,
519.801,2661.1926,
516.891,2685.6992,
513.980,2721.3168,
511.070,2756.9,
508.159,2787.6924,
505.248,2816.0138,
502.338,2847.4821,
499.427,2949.364,
496.517,3001.9545,
493.606,3032.6042,
490.695,3055.4629,
487.785,3062.391,
484.874,3093.8725,
481.964,3083.9222,
479.053,3049.9933,
476.143,3064.5846,
473.232,3020.897,
470.321,3003.9866,
467.411,3014.8837,
464.500,3045.7133,
461.590,3054.1365,
458.679,3071.9082,
455.769,3112.2257,
452.858,3172.5795,
449.947,3173.3435,
447.037,3219.007,
444.126,3254.0455,
441.216,3269.3207,
438.305,3302.8457,
435.395,3283.2414,
432.484,3290.0874,
429.573,3310.2224,
426.663,3279.0566,
423.752,3076.3407,
420.842,2816.8727,
417.931,2603.9586,
415.020,2577.4161,
412.110,3026.4421,
409.199,3286.8544,
406.289,3372.4792,
403.378,3329.3105,
400.468,3273.3669,
397.557,3309.9999,
394.646,3395.1682,
391.736,3487.3209,
388.825,3512.9648,
385.915,3466.7484,
383.004,3453.1941,
380.094,3539.573,
377.183,3580.2067,
374.272,3629.4946,
371.362,3672.6844,
368.451,3696.9925,
365.541,3655.713,
362.630,3680.5519,
359.719,3713.4597,
356.809,3720.1828,
353.898,3714.9412,
350.988,3741.7093,
348.077,3760.2726,
345.167,3746.4783,
342.256,3726.3074,
339.345,3734.3172,
336.435,3747.3328,
333.524,3749.8758,
330.614,3761.7983,
327.703,3782.4424,
324.793,3807.5227,
321.882,3833.5072,
318.971,3836.481,
316.061,3852.6377,
313.150,3882.5881,
310.240,3927.8571,
307.329,3937.361,
304.418,3953.7226,
301.508,3946.8538,
298.597,3861.7058,
295.687,3842.9869,
292.776,3882.9169,
289.866,3952.1049,
286.955,3978.699,
284.044,4099.5124,
281.134,4164.1674,
278.223,4162.8112,
275.313,4192.2854,
272.402,4231.6115,
269.492,4190.862,
266.581,4052.3934,
263.670,4064.8914,
260.760,4145.8127,
257.849,4242.4193,
254.939,4316.5415,
252.028,4310.2616,
249.117,4338.1074,
246.207,4366.5447,
243.296,4335.7992,
240.386,4377.5564,
237.475,4398.4265,
234.565,4397.1811,
231.654,4420.5534,
228.743,4350.7022,
225.833,4320.8064,
222.922,4375.7821,
220.012,4317.4977,
217.101,4305.8607,
214.191,4311.7515,
211.280,4305.9318,
208.369,4299.4447,
205.459,4303.6865,
202.548,4308.3579,
199.638,4272.8011,
196.727,4293.7346,
193.816,4291.9233,
190.906,4241.3792,
187.995,4294.957,
185.085,4326.2671,
182.174,4347.5518,
179.264,4373.5714,
176.353,4398.9273,
173.442,4452.469,
170.532,4517.1074,
167.621,4453.6615,
164.711,4359.7671,
161.800,4227.83,
158.890,4044.2995,
155.979,3884.1787,
153.068,3669.2016,
150.158,3381.3337,
147.247,2951.2803,
144.337,2502.5143,
141.426,2021.8541,
138.516,1498.5235,
135.605,1081.1855,
132.694,733.92143,
129.784,462.81425,
126.873,310.49159,
123.963,215.76415,
121.052,145.68673,
118.141,90.716276,
115.231,76.999163,
112.320,62.603646,
109.410,48.045605,
106.499,35.226811,
103.589,39.223054,
100.678,41.512161,
97.767,33.691848,
94.857,30.728044,
91.946,29.903111,
89.036,29.483919,
86.125,23.101071,
83.215,20.438159,
80.304,19.978865,
77.393,21.395205,
74.483,23.465405,
71.572,23.775296,
68.662,22.153663,
65.751,18.621407,
62.840,14.609788,
59.930,12.436431,
57.019,15.961841,
54.109,13.514196,
51.198,13.912874,
48.288,19.4547,
45.377,13.827676,
42.466,8.2022453,
39.556,3.5,
36.645,3.5,
33.735,6.6154908,
30.824,9.5,
27.914,9.5,
25.003,8.8773625,
22.092,10.760332,
19.182,14.973694,
16.271,-1.1145789,
13.361,-2.4425043,
10.450,-6.7978373,
7.539,-72.439482,
4.629,-155.07327,
1.718,-172.02605,
-1.192,-27.019987,
-4.103,-29.768432,
-7.013,-30.73106,
-9.924,-1.5,
