,PL718D~1,
Raman shift [1/cm],Intensity,
3014.167,1.625,
3011.256,0.52497853,
3008.346,139.17702,
3005.435,188.32112,
3002.525,196.32243,
2999.614,202.00164,
2996.704,216.43943,
2993.793,210.13882,
2990.882,219.39589,
2987.972,213.80157,
2985.061,242.4181,
2982.151,261.92586,
2979.240,255.48809,
2976.329,269.36544,
2973.419,273.90254,
2970.508,262.80826,
2967.598,279.72058,
2964.687,291.17663,
2961.777,295.28306,
2958.866,300.95932,
2955.955,316.31967,
2953.045,324.80845,
2950.134,337.14689,
2947.224,337.28337,
2944.313,340.4562,
2941.403,379.48266,
2938.492,367.59246,
2935.581,379.38814,
2932.671,383.50483,
2929.760,378.34807,
2926.850,385.99793,
2923.939,364.22312,
2921.028,375.24858,
2918.118,397.42601,
2915.207,392.67547,
2912.297,408.51922,
2909.386,420.82208,
2906.476,408.3385,
2903.565,403.72129,
2900.654,407.95463,
2897.744,406.36098,
2894.833,390.98573,
2891.923,412.41031,
2889.012,403.79841,
2886.102,387.66553,
2883.191,406.61084,
2880.280,371.63935,
2877.370,334.21809,
2874.459,364.85153,
2871.549,378.96704,
2868.638,381.30747,
2865.727,415.91347,
2862.817,408.98195,
2859.906,421.51104,
2856.996,413.6567,
2854.085,414.54728,
2851.175,425.48045,
2848.264,417.90933,
2845.353,413.64657,
2842.443,420.61456,
2839.532,405.56544,
2836.622,417.10807,
2833.711,397.58103,
2830.801,411.90515,
2827.890,394.16696,
2824.979,405.89693,
2822.069,408.64774,
2819.158,413.28538,
2816.248,419.86632,
2813.337,427.26403,
2810.427,411.36743,
2807.516,418.25078,
2804.605,410.58173,
2801.695,408.28291,
2798.784,415.40323,
2795.874,407.18963,
2792.963,418.76798,
2790.052,409.62757,
2787.142,416.12477,
2784.231,397.30201,
2781.321,392.68786,
2778.410,403.58437,
2775.500,398.47846,
2772.589,442.85437,
2769.678,420.23252,
2766.768,417.81335,
2763.857,432.30901,
2760.947,427.10294,
2758.036,441.41492,
2755.126,436.47757,
2752.215,444.90223,
2749.304,436.39119,
2746.394,442.60287,
2743.483,432.02498,
2740.573,439.17369,
2737.662,437.07174,
2734.751,446.44042,
2731.841,447.27335,
2728.930,454.48101,
2726.020,448.07407,
2723.109,446.3055,
2720.199,462.29053,
2717.288,471.27463,
2714.377,471.9791,
2711.467,461.96896,
2708.556,471.97616,
2705.646,458.48413,
2702.735,473.96521,
2699.825,471.33224,
2696.914,473.7682,
2694.003,471.08354,
2691.093,467.32174,
2688.182,478.67982,
2685.272,484.7573,
2682.361,462.65994,
2679.450,483.16408,
2676.540,475.68597,
2673.629,476.30214,
2670.719,467.77102,
2667.808,494.16593,
2664.898,493.43045,
2661.987,480.89171,
2659.076,497.46335,
2656.166,513.31769,
2653.255,504.06888,
2650.345,503.27291,
2647.434,504.13943,
2644.524,507.69454,
2641.613,509.42513,
2638.702,503.75125,
2635.792,522.87723,
2632.881,504.47026,
2629.971,503.625,
2627.060,518.79156,
2624.149,514.11251,
2621.239,511.38241,
2618.328,517.73487,
2615.418,497.625,
2612.507,512.51823,
2609.597,512.54316,
2606.686,523.26154,
2603.775,531.06945,
2600.865,544.86049,
2597.954,527.34371,
2595.044,538.65157,
2592.133,535.68236,
2589.223,562.58923,
2586.312,543.08733,
2583.401,545.05204,
2580.491,554.44712,
2577.580,535.65306,
2574.670,552.625,
2571.759,540.51371,
2568.848,550.38201,
2565.938,558.33931,
2563.027,554.16137,
2560.117,546.54088,
2557.206,561.70618,
2554.296,554.51287,
2551.385,565.37702,
2548.474,565.51385,
2545.564,584.96023,
2542.653,586.64513,
2539.743,599.71126,
2536.832,597.91098,
2533.922,599.75115,
2531.011,602.67542,
2528.100,585.36018,
2525.190,592.69303,
2522.279,606.78084,
2519.369,594.4549,
2516.458,585.05489,
2513.548,597.75186,
2510.637,622.02645,
2507.726,599.18634,
2504.816,600.93729,
2501.905,612.61037,
2498.995,611.50556,
2496.084,606.55878,
2493.173,596.86175,
2490.263,615.36628,
2487.352,633.3746,
2484.442,622.21388,
2481.531,624.42271,
2478.621,627.10837,
2475.710,631.54832,
2472.799,622.61154,
2469.889,629.98789,
2466.978,627.40857,
2464.068,615.04825,
2461.157,645.66252,
2458.247,646.74271,
2455.336,647.03008,
2452.425,644.51651,
2449.515,657.625,
2446.604,668.20096,
2443.694,663.78695,
2440.783,640.14752,
2437.872,645.73439,
2434.962,649.93836,
2432.051,660.45229,
2429.141,672.60729,
2426.230,660.60287,
2423.320,709.24023,
2420.409,673.02878,
2417.498,673.24016,
2414.588,694.14961,
2411.677,681.66086,
2408.767,684.90157,
2405.856,700.06781,
2402.946,694.56513,
2400.035,693.01937,
2397.124,678.78006,
2394.214,709.0298,
2391.303,700.94546,
2388.393,706.83665,
2385.482,710.58094,
2382.571,710.14421,
2379.661,705.60169,
2376.750,703.10042,
2373.840,721.15614,
2370.929,722.67915,
2368.019,733.66134,
2365.108,728.83442,
2362.197,738.37573,
2359.287,730.45675,
2356.376,755.57393,
2353.466,738.21574,
2350.555,744.18013,
2347.645,743.70448,
2344.734,746.71718,
2341.823,757.47575,
2338.913,753.46681,
2336.002,768.84986,
2333.092,763.05046,
2330.181,744.3079,
2327.270,786.92974,
2324.360,775.29716,
2321.449,779.625,
2318.539,777.07148,
2315.628,777.41477,
2312.718,770.67566,
2309.807,791.35175,
2306.896,783.5937,
2303.986,783.80693,
2301.075,799.00798,
2298.165,784.25935,
2295.254,791.38803,
2292.344,788.67896,
2289.433,793.36637,
2286.522,811.08483,
2283.612,794.44386,
2280.701,808.39626,
2277.791,837.18418,
2274.880,832.18889,
2271.969,841.40689,
2269.059,827.53509,
2266.148,838.65004,
2263.238,832.62887,
2260.327,857.48732,
2257.417,871.71278,
2254.506,841.88428,
2251.595,854.76315,
2248.685,840.94814,
2245.774,869.76725,
2242.864,852.98658,
2239.953,869.43885,
2237.043,862.13178,
2234.132,876.986,
2231.221,897.41576,
2228.311,880.87889,
2225.400,892.85016,
2222.490,905.26679,
2219.579,925.2831,
2216.669,915.66793,
2213.758,928.8028,
2210.847,960.77611,
2207.937,952.19505,
2205.026,939.51216,
2202.116,985.31396,
2199.205,993.17418,
2196.294,1005.129,
2193.384,1004.467,
2190.473,1014.2048,
2187.563,1045.8232,
2184.652,1090.5409,
2181.742,1118.5348,
2178.831,1157.6874,
2175.920,1218.7689,
2173.010,1262.8268,
2170.099,1318.4197,
2167.189,1385.2421,
2164.278,1483.6843,
2161.368,1573.3376,
2158.457,1638.1261,
2155.546,1708.7751,
2152.636,1781.7951,
2149.725,1874.3632,
2146.815,1906.991,
2143.904,1936.558,
2140.993,2004.7521,
2138.083,1977.6614,
2135.172,1991.6838,
2132.262,1980.2438,
2129.351,1958.7456,
2126.441,1888.1297,
2123.530,1780.0301,
2120.619,1716.0659,
2117.709,1612.5099,
2114.798,1505.4248,
2111.888,1436.7266,
2108.977,1347.5852,
2106.067,1260.505,
2103.156,1198.6332,
2100.245,1144.6106,
2097.335,1118.6145,
2094.424,1090.1626,
2091.514,1064.262,
2088.603,1055.5743,
2085.692,1063.1268,
2082.782,1052.0749,
2079.871,1021.8024,
2076.961,1033.4626,
2074.050,1007.5462,
2071.140,1021.7632,
2068.229,1006.2513,
2065.318,1019.0078,
2062.408,997.46541,
2059.497,977.02977,
2056.587,981.46216,
2053.676,945.87725,
2050.766,972.69974,
2047.855,964.08067,
2044.944,978.42789,
2042.034,968.25503,
2039.123,960.28493,
2036.213,965.81614,
2033.302,962.7556,
2030.391,978.74296,
2027.481,959.1497,
2024.570,972.91005,
2021.660,962.57107,
2018.749,985.59926,
2015.839,961.23917,
2012.928,972.54446,
2010.017,967.83346,
2007.107,960.41754,
2004.196,973.64881,
2001.286,961.93598,
1998.375,950.14567,
1995.465,914.8009,
1992.554,947.69522,
1989.643,933.35084,
1986.733,924.92939,
1983.822,915.7284,
1980.912,929.15921,
1978.001,908.74374,
1975.090,911.00058,
1972.180,906.62635,
1969.269,885.96406,
1966.359,879.03037,
1963.448,881.27758,
1960.538,893.98614,
1957.627,897.51664,
1954.716,883.0559,
1951.806,835.16502,
1948.895,866.02781,
1945.985,871.13153,
1943.074,855.86851,
1940.164,845.25925,
1937.253,816.91628,
1934.342,846.36028,
1931.432,858.03825,
1928.521,817.4022,
1925.611,807.39117,
1922.700,813.58218,
1919.790,803.42859,
1916.879,833.25352,
1913.968,807.65943,
1911.058,796.27666,
1908.147,817.89798,
1905.237,809.60296,
1902.326,817.66945,
1899.415,793.17498,
1896.505,786.76983,
1893.594,815.99084,
1890.684,795.61857,
1887.773,800.84001,
1884.863,827.74345,
1881.952,806.72528,
1879.041,785.54712,
1876.131,808.68512,
1873.220,794.57625,
1870.310,799.97925,
1867.399,811.44907,
1864.489,803.91014,
1861.578,828.62004,
1858.667,768.84051,
1855.757,817.02357,
1852.846,811.08656,
1849.936,786.81119,
1847.025,812.96559,
1844.114,851.72612,
1841.204,826.17395,
1838.293,825.625,
1835.383,834.91549,
1832.472,832.54326,
1829.562,844.78907,
1826.651,863.83033,
1823.740,866.89703,
1820.830,830.35696,
1817.919,865.23008,
1815.009,879.90617,
1812.098,853.69588,
1809.188,902.21403,
1806.277,884.1119,
1803.366,866.52518,
1800.456,863.42782,
1797.545,910.24209,
1794.635,898.30203,
1791.724,912.76088,
1788.813,919.21291,
1785.903,882.09399,
1782.992,889.52666,
1780.082,899.90101,
1777.171,879.62125,
1774.261,878.03525,
1771.350,899.625,
1768.439,903.45532,
1765.529,917.26299,
1762.618,929.5575,
1759.708,929.5815,
1756.797,942.68561,
1753.887,959.00984,
1750.976,934.50066,
1748.065,930.98598,
1745.155,956.59263,
1742.244,955.03081,
1739.334,958.52617,
1736.423,964.03808,
1733.512,952.98269,
1730.602,971.81353,
1727.691,965.80711,
1724.781,983.64914,
1721.870,1015.3775,
1718.960,993.66911,
1716.049,996.01475,
1713.138,969.41014,
1710.228,991.60421,
1707.317,975.27986,
1704.407,1004.9673,
1701.496,1051.4677,
1698.586,1055.625,
1695.675,1060.3035,
1692.764,1071.9857,
1689.854,1059.2313,
1686.943,1076.0179,
1684.033,1122.4577,
1681.122,1086.2707,
1678.211,1155.9493,
1675.301,1203.4801,
1672.390,1173.631,
1669.480,1176.1705,
1666.569,1244.7549,
1663.659,1332.9027,
1660.748,1349.5286,
1657.837,1345.6966,
1654.927,1393.0158,
1652.016,1369.6904,
1649.106,1451.8416,
1646.195,1422.687,
1643.285,1507.0579,
1640.374,1526.3776,
1637.463,1563.2283,
1634.553,1651.2604,
1631.642,1694.4936,
1628.732,1774.342,
1625.821,1894.678,
1622.911,1975.1686,
1620.000,2092.1384,
1617.089,2261.222,
1614.179,2414.282,
1611.268,2489.8738,
1608.358,2655.6182,
1605.447,2737.1685,
1602.536,2788.2194,
1599.626,2787.9453,
1596.715,2797.6086,
1593.805,2696.6712,
1590.894,2702.2384,
1587.984,2699.4284,
1585.073,2695.2217,
1582.162,2713.8274,
1579.252,2661.9805,
1576.341,2565.5133,
1573.431,2598.664,
1570.520,2589.9293,
1567.610,2568.4679,
1564.699,2478.0715,
1561.788,2430.1322,
1558.878,2411.3353,
1555.967,2363.3425,
1553.057,2335.2458,
1550.146,2269.5561,
1547.235,2211.1442,
1544.325,2156.3412,
1541.414,2107.3432,
1538.504,2060.2554,
1535.593,2008.6877,
1532.683,1975.1401,
1529.772,1927.5568,
1526.861,1894.6949,
1523.951,1901.4434,
1521.040,1848.0253,
1518.130,1787.2336,
1515.219,1794.5854,
1512.309,1774.1925,
1509.398,1755.7067,
1506.487,1768.2708,
1503.577,1757.0372,
1500.666,1747.0214,
1497.756,1692.6417,
1494.845,1667.8646,
1491.934,1649.3321,
1489.024,1559.8202,
1486.113,1616.894,
1483.203,1566.5586,
1480.292,1568.9586,
1477.382,1563.3508,
1474.471,1502.5368,
1471.560,1483.8993,
1468.650,1428.9631,
1465.739,1433.728,
1462.829,1422.5746,
1459.918,1399.7576,
1457.008,1447.9026,
1454.097,1425.9905,
1451.186,1351.7739,
1448.276,1389.3459,
1445.365,1416.8367,
1442.455,1385.3517,
1439.544,1381.2599,
1436.633,1363.1583,
1433.723,1330.7557,
1430.812,1314.0048,
1427.902,1268.2868,
1424.991,1254.0703,
1422.081,1232.523,
1419.170,1183.9657,
1416.259,1209.8376,
1413.349,1191.9468,
1410.438,1179.4263,
1407.528,1185.3499,
1404.617,1148.526,
1401.707,1155.661,
1398.796,1190.4572,
1395.885,1206.0267,
1392.975,1214.4163,
1390.064,1202.0396,
1387.154,1217.2982,
1384.243,1220.5538,
1381.332,1173.6915,
1378.422,1263.8326,
1375.511,1287.2521,
1372.601,1326.331,
1369.690,1393.9167,
1366.780,1492.5409,
1363.869,1532.334,
1360.958,1527.4013,
1358.048,1598.1622,
1355.137,1660.0873,
1352.227,1696.5337,
1349.316,1745.9558,
1346.406,1785.6747,
1343.495,1814.1302,
1340.584,1818.7315,
1337.674,1876.7051,
1334.763,2013.0244,
1331.853,2076.0761,
1328.942,2070.6198,
1326.032,2142.2152,
1323.121,2183.8178,
1320.210,2228.5847,
1317.300,2315.0919,
1314.389,2408.8759,
1311.479,2461.3628,
1308.568,2488.4294,
1305.657,2535.1682,
1302.747,2594.9586,
1299.836,2660.5785,
1296.926,2786.7098,
1294.015,2896.1093,
1291.105,2958.7408,
1288.194,3058.4804,
1285.283,3173.2734,
1282.373,3265.9451,
1279.462,3302.4681,
1276.552,3333.9637,
1273.641,3384.8461,
1270.731,3423.4459,
1267.820,3444.8327,
1264.909,3439.2178,
1261.999,3393.0577,
1259.088,3404.9153,
1256.178,3299.4244,
1253.267,3204.9055,
1250.356,3197.8791,
1247.446,3085.9327,
1244.535,2924.8172,
1241.625,2813.9251,
1238.714,2752.8592,
1235.804,2697.1009,
1232.893,2598.2506,
1229.982,2594.7971,
1227.072,2570.3536,
1224.161,2483.7341,
1221.251,2445.2897,
1218.340,2396.8128,
1215.430,2372.9734,
1212.519,2351.2508,
1209.608,2333.3581,
1206.698,2345.3697,
1203.787,2352.2582,
1200.877,2393.4578,
1197.966,2390.7604,
1195.055,2452.9121,
1192.145,2553.0349,
1189.234,2580.0298,
1186.324,2624.4476,
1183.413,2675.4321,
1180.503,2695.6721,
1177.592,2697.1198,
1174.681,2665.488,
1171.771,2595.1717,
1168.860,2575.5237,
1165.950,2549.4363,
1163.039,2519.1809,
1160.129,2495.0583,
1157.218,2472.6451,
1154.307,2454.1727,
1151.397,2436.1978,
1148.486,2405.8757,
1145.576,2400.3529,
1142.665,2371.0518,
1139.754,2352.3524,
1136.844,2338.8208,
1133.933,2317.6163,
1131.023,2288.1575,
1128.112,2271.1246,
1125.202,2278.282,
1122.291,2288.8811,
1119.380,2304.8935,
1116.470,2332.2519,
1113.559,2320.16,
1110.649,2330.0316,
1107.738,2322.0863,
1104.828,2297.8064,
1101.917,2292.0929,
1099.006,2318.1301,
1096.096,2336.7214,
1093.185,2370.9635,
1090.275,2341.2542,
1087.364,2340.4862,
1084.453,2327.876,
1081.543,2316.5014,
1078.632,2331.4144,
1075.722,2364.822,
1072.811,2376.0809,
1069.901,2340.2772,
1066.990,2343.2833,
1064.079,2369.1235,
1061.169,2391.1187,
1058.258,2408.9417,
1055.348,2440.4383,
1052.437,2491.2006,
1049.527,2519.9271,
1046.616,2527.7466,
1043.705,2523.2296,
1040.795,2535.6721,
1037.884,2546.1537,
1034.974,2554.2113,
1032.063,2559.0944,
1029.153,2548.1563,
1026.242,2577.5648,
1023.331,2589.4576,
1020.421,2624.3888,
1017.510,2663.8374,
1014.600,2695.89,
1011.689,2712.9101,
1008.778,2726.6734,
1005.868,2803.4127,
1002.957,2891.1688,
1000.047,2981.065,
997.136,3072.4689,
994.226,3144.7323,
991.315,3152.8329,
988.404,3083.8427,
985.494,3042.7427,
982.583,3003.3411,
979.673,2974.2123,
976.762,2970.9089,
973.852,2982.1392,
970.941,2992.8105,
968.030,2993.07,
965.120,2978.7897,
962.209,3018.0066,
959.299,3026.7497,
956.388,2988.4275,
953.477,2997.0836,
950.567,3046.828,
947.656,3033.4184,
944.746,3077.5953,
941.835,3055.3306,
938.925,3031.1996,
936.014,3006.956,
933.103,3008.1612,
930.193,3027.6359,
927.282,2990.3418,
924.372,2966.6648,
921.461,2888.5122,
918.551,2836.6449,
915.640,2819.4749,
912.729,2814.7212,
909.819,2794.7328,
906.908,2765.248,
903.998,2762.8296,
901.087,2797.6328,
898.176,2802.3548,
895.266,2822.7607,
892.355,2909.8498,
889.445,2948.456,
886.534,2990.3686,
883.624,2993.9152,
880.713,2990.6043,
877.802,2997.9624,
874.892,3011.235,
871.981,3000.5658,
869.071,2998.0596,
866.160,2985.2057,
863.250,2967.5683,
860.339,2972.0179,
857.428,2995.0336,
854.518,2974.9751,
851.607,2952.5092,
848.697,2908.7316,
845.786,2876.0939,
842.875,2868.9169,
839.965,2889.067,
837.054,2926.89,
834.144,2861.4186,
831.233,2861.2908,
828.323,2888.397,
825.412,2884.8339,
822.501,2831.4335,
819.591,2824.8223,
816.680,2775.7467,
813.770,2712.8783,
810.859,2696.6135,
807.949,2706.1835,
805.038,2688.6162,
802.127,2705.0787,
799.217,2685.0087,
796.306,2667.9763,
793.396,2666.4648,
790.485,2669.5182,
787.574,2647.6214,
784.664,2673.865,
781.753,2669.2312,
778.843,2696.4803,
775.932,2705.86,
773.022,2663.4028,
770.111,2732.8969,
767.200,2745.2381,
764.290,2741.8462,
761.379,2702.9647,
758.469,2663.4366,
755.558,2713.6313,
752.648,2646.8339,
749.737,2623.1804,
746.826,2647.9294,
743.916,2650.2349,
741.005,2561.4895,
738.095,2516.0244,
735.184,2382.6293,
732.274,2347.4019,
729.363,2398.2741,
726.452,2489.0434,
723.542,2591.0269,
720.631,2632.5583,
717.721,2640.1879,
714.810,2636.483,
711.899,2640.6448,
708.989,2666.4664,
706.078,2625.7586,
703.168,2605.9095,
700.257,2595.9119,
697.347,2589.5382,
694.436,2585.2758,
691.525,2572.415,
688.615,2574.0274,
685.704,2568.4228,
682.794,2561.6037,
679.883,2573.0751,
676.973,2538.6162,
674.062,2549.4913,
671.151,2547.7901,
668.241,2538.1047,
665.330,2555.4359,
662.420,2551.4423,
659.509,2572.8476,
656.598,2563.122,
653.688,2542.1366,
650.777,2570.787,
647.867,2575.565,
644.956,2596.4378,
642.046,2586.6513,
639.135,2552.0616,
636.224,2539.003,
633.314,2614.4271,
630.403,2622.392,
627.493,2632.2924,
624.582,2654.9747,
621.672,2629.6309,
618.761,2640.0241,
615.850,2657.9507,
612.940,2693.874,
610.029,2731.4184,
607.119,2676.1443,
604.208,2685.5353,
601.297,2709.5716,
598.387,2733.9309,
595.476,2746.8767,
592.566,2717.7551,
589.655,2687.3573,
586.745,2663.2098,
583.834,2652.6992,
580.923,2663.5302,
578.013,2647.8355,
575.102,2619.5343,
572.192,2632.3515,
569.281,2689.3122,
566.371,2698.7037,
563.460,2689.7484,
560.549,2695.3706,
557.639,2701.5966,
554.728,2691.2163,
551.818,2700.58,
548.907,2722.7356,
545.996,2743.012,
543.086,2757.9803,
540.175,2773.5532,
537.265,2778.9707,
534.354,2814.2383,
531.444,2850.6902,
528.533,2860.9978,
525.622,2894.3636,
522.712,2925.8951,
519.801,2935.5149,
516.891,2942.5275,
513.980,3026.1515,
511.070,3070.2511,
508.159,3102.8174,
505.248,3138.9,
502.338,3190.9865,
499.427,3203.3358,
496.517,3288.6451,
493.606,3349.2696,
490.695,3342.4853,
487.785,3327.0895,
484.874,3345.3042,
481.964,3330.4625,
479.053,3306.1273,
476.143,3358.3488,
473.232,3304.7921,
470.321,3286.5176,
467.411,3284.2935,
464.500,3265.8189,
461.590,3273.4763,
458.679,3280.0274,
455.769,3280.4744,
452.858,3284.5213,
449.947,3389.1799,
447.037,3371.7923,
444.126,3349.2129,
441.216,3358.652,
438.305,3387.6054,
435.395,3393.5919,
432.484,3381.2889,
429.573,3365.11,
426.663,3375.752,
423.752,3363.374,
420.842,3322.4602,
417.931,3299.8017,
415.020,3367.2956,
412.110,3393.0366,
409.199,3453.4587,
406.289,3502.4594,
403.378,3486.5943,
400.468,3477.5223,
397.557,3502.9032,
394.646,3531.5104,
391.736,3535.466,
388.825,3499.2629,
385.915,3489.6894,
383.004,3481.7732,
380.094,3463.4255,
377.183,3537.9207,
374.272,3577.6223,
371.362,3613.3449,
368.451,3664.1811,
365.541,3722.7229,
362.630,3716.7754,
359.719,3713.1274,
356.809,3748.5765,
353.898,3764.3013,
350.988,3767.54,
348.077,3779.6934,
345.167,3810.6033,
342.256,3790.4324,
339.345,3775.5906,
336.435,3782.615,
333.524,3822.4001,
330.614,3846.9902,
327.703,3855.1384,
324.793,3862.8432,
321.882,3883.6593,
318.971,3897.7847,
316.061,3917.7627,
313.150,3937.3202,
310.240,3949.1941,
307.329,3998.9349,
304.418,4045.9822,
301.508,4062.2803,
298.597,4000.8257,
295.687,4049.127,
292.776,4102.1251,
289.866,4170.5176,
286.955,4312.3529,
284.044,4448.3724,
281.134,4567.8356,
278.223,4668.912,
275.313,4752.9135,
272.402,4830.458,
269.492,4914.499,
266.581,5009.7193,
263.670,5108.9687,
260.760,5164.2665,
257.849,5231.2251,
254.939,5353.0496,
252.028,5373.445,
249.117,5363.7224,
246.207,5352.3379,
243.296,5386.0116,
240.386,5399.4199,
237.475,5364.2854,
234.565,5284.3255,
231.654,5187.1844,
228.743,5174.1048,
225.833,5135.415,
222.922,5034.1494,
220.012,5023.9496,
217.101,4992.6542,
214.191,4943.2989,
211.280,4875.6448,
208.369,4880.7172,
205.459,4895.207,
202.548,4910.1264,
199.638,4913.029,
196.727,4929.1828,
193.816,4917.4463,
190.906,4867.2819,
187.995,4971.5414,
185.085,5022.7564,
182.174,5037.6662,
179.264,5030.4385,
176.353,5065.5086,
173.442,5088.1629,
170.532,5083.9723,
167.621,5009.7118,
164.711,4955.4631,
161.800,4874.7348,
158.890,4728.6301,
155.979,4468.2816,
153.068,4143.7675,
150.158,3747.0909,
147.247,3220.8319,
144.337,2663.09,
141.426,2095.1134,
138.516,1525.1848,
135.605,1090.3198,
132.694,747.06563,
129.784,490.66051,
126.873,336.90759,
123.963,224.81704,
121.052,150.31041,
118.141,116.75701,
115.231,89.623327,
112.320,73.117733,
109.410,63.170605,
106.499,50.351811,
103.589,45.383982,
100.678,41.99527,
97.767,37.729644,
94.857,31.388099,
91.946,28.221889,
89.036,27.512102,
86.125,26.802897,
83.215,26.625,
80.304,24.470106,
77.393,18.096576,
74.483,16.31473,
71.572,16.712056,
68.662,18.209395,
65.751,13.970689,
62.840,16.478616,
59.930,17.815707,
57.019,7.2394772,
54.109,5.625,
51.198,6.5298278,
48.288,8.6419873,
45.377,10.752122,
42.466,10.388342,
39.556,9.0854743,
36.645,11.894235,
33.735,10.028758,
30.824,8.7294349,
27.914,12.235311,
25.003,6.3986252,
22.092,2.625,
19.182,3.1513058,
16.271,19.239579,
13.361,71.142461,
10.450,127.01456,
7.539,88.607218,
4.629,-174.89056,
1.718,-504.31634,
-1.192,-804.08849,
-4.103,-619.96797,
-7.013,-332.2684,
-9.924,-2.375,
