,PLFBCD~1,
Raman shift [1/cm],Intensity,
3014.167,1.75,
3011.256,0.60007516,
3008.346,72.268755,
3005.435,95.559189,
3002.525,99.579978,
2999.614,110.22533,
2996.704,114.47577,
2993.793,109.62615,
2990.882,109.31488,
2987.972,105.84585,
2985.061,122.53325,
2982.151,122.39202,
2979.240,127.28231,
2976.329,130.4959,
2973.419,148.45783,
2970.508,149.5333,
2967.598,148.98896,
2964.687,148.4966,
2961.777,143.65599,
2958.866,153.41865,
2955.955,164.40927,
2953.045,155.33615,
2950.134,174.53717,
2947.224,171.03469,
2944.313,184.79487,
2941.403,202.78604,
2938.492,182.04811,
2935.581,205.35733,
2932.671,198.26931,
2929.760,190.47307,
2926.850,216.13007,
2923.939,208.46962,
2921.028,212.06179,
2918.118,193.3898,
2915.207,208.23122,
2912.297,204.81347,
2909.386,224.95438,
2906.476,213.85114,
2903.565,224.2826,
2900.654,215.07963,
2897.744,225.43569,
2894.833,207.76018,
2891.923,190.99029,
2889.012,217.29335,
2886.102,210.54189,
2883.191,206.75283,
2880.280,204.61124,
2877.370,200.53488,
2874.459,204.81904,
2871.549,206.07925,
2868.638,213.29434,
2865.727,230.69616,
2862.817,240.59357,
2859.906,216.23148,
2856.996,232.22962,
2854.085,217.38442,
2851.175,229.72887,
2848.264,236.68617,
2845.353,230.8794,
2842.443,227.96532,
2839.532,220.95892,
2836.622,226.59831,
2833.711,212.07651,
2830.801,218.63456,
2827.890,234.64686,
2824.979,235.25603,
2822.069,242.72726,
2819.158,244.9306,
2816.248,246.52026,
2813.337,238.11097,
2810.427,242.05855,
2807.516,228.85797,
2804.605,240.72836,
2801.695,232.22367,
2798.784,235.23254,
2795.874,237.75,
2792.963,231.96415,
2790.052,251.74507,
2787.142,230.68419,
2784.231,228.75,
2781.321,238.63004,
2778.410,247.60026,
2775.500,243.28172,
2772.589,240.3662,
2769.678,240.6818,
2766.768,247.04129,
2763.857,252.592,
2760.947,242.69326,
2758.036,242.22139,
2755.126,251.17949,
2752.215,254.06825,
2749.304,254.38849,
2746.394,247.57463,
2743.483,249.49994,
2740.573,247.44242,
2737.662,248.99408,
2734.751,258.16756,
2731.841,244.83058,
2728.930,259.19914,
2726.020,265.75521,
2723.109,259.111,
2720.199,256.57173,
2717.288,272.31204,
2714.377,269.49164,
2711.467,260.32363,
2708.556,266.22874,
2705.646,263.21478,
2702.735,274.72937,
2699.825,261.10821,
2696.914,267.75,
2694.003,272.03455,
2691.093,279.41065,
2688.182,257.13,
2685.272,262.30761,
2682.361,269.1441,
2679.450,271.87345,
2676.540,268.8313,
2673.629,271.75449,
2670.719,273.60398,
2667.808,275.75,
2664.898,276.37354,
2661.987,287.1504,
2659.076,268.70908,
2656.166,287.62017,
2653.255,282.56293,
2650.345,282.2618,
2647.434,295.92148,
2644.524,293.50298,
2641.613,290.86439,
2638.702,307.51328,
2635.792,293.84273,
2632.881,293.08943,
2629.971,295.47489,
2627.060,289.58344,
2624.149,294.26249,
2621.239,300.75,
2618.328,305.87716,
2615.418,313.06364,
2612.507,304.37457,
2609.597,302.83184,
2606.686,300.50302,
2603.775,299.5873,
2600.865,308.33367,
2597.954,310.46871,
2595.044,326.40191,
2592.133,316.29763,
2589.223,319.34054,
2586.312,313.65449,
2583.401,323.70984,
2580.491,315.84616,
2577.580,331.74505,
2574.670,329.58021,
2571.759,329.54795,
2568.848,323.63396,
2565.938,315.13093,
2563.027,317.28637,
2560.117,332.54443,
2557.206,332.80535,
2554.296,329.03375,
2551.385,320.312,
2548.474,326.78718,
2545.564,304.57304,
2542.653,337.92784,
2539.743,345.45332,
2536.832,352.15936,
2533.922,329.22308,
2531.011,345.55112,
2528.100,327.80929,
2525.190,346.70287,
2522.279,358.85894,
2519.369,343.16495,
2516.458,346.5262,
2513.548,350.41356,
2510.637,357.62703,
2507.726,358.87268,
2504.816,359.56172,
2501.905,357.18476,
2498.995,346.34719,
2496.084,354.52351,
2493.173,350.09205,
2490.263,367.09805,
2487.352,364.83187,
2484.442,346.59796,
2481.531,355.85636,
2478.621,355.44667,
2475.710,361.75767,
2472.799,364.72307,
2469.889,360.08516,
2466.978,353.8015,
2464.068,396.93004,
2461.157,362.51998,
2458.247,375.13246,
2455.336,385.11203,
2452.425,379.29245,
2449.515,388.87266,
2446.604,386.57721,
2443.694,391.7969,
2440.783,380.31757,
2437.872,369.80748,
2434.962,393.54724,
2432.051,386.62663,
2429.141,386.76771,
2426.230,381.94557,
2423.320,395.36382,
2420.409,415.1282,
2417.498,401.39043,
2414.588,408.09974,
2411.677,385.21616,
2408.767,398.50886,
2405.856,396.52859,
2402.946,409.54803,
2400.035,409.65844,
2397.124,401.66977,
2394.214,419.55961,
2391.303,404.99865,
2388.393,392.79184,
2385.482,396.44157,
2382.571,415.2436,
2379.661,410.68036,
2376.750,419.58731,
2373.840,415.92509,
2370.929,426.57672,
2368.019,401.79739,
2365.108,421.12173,
2362.197,424.75,
2359.287,419.1617,
2356.376,411.76057,
2353.466,437.67287,
2350.555,444.71453,
2347.645,432.44668,
2344.734,441.6901,
2341.823,445.70025,
2338.913,434.95445,
2336.002,418.68296,
2333.092,441.14059,
2330.181,453.76789,
2327.270,455.69499,
2324.360,464.3467,
2321.449,459.81122,
2318.539,455.2393,
2315.628,462.42186,
2312.718,467.51652,
2309.807,438.88663,
2306.896,443.01761,
2303.986,456.27603,
2301.075,461.6649,
2298.165,462.94237,
2295.254,457.87926,
2292.344,465.43465,
2289.433,467.78091,
2286.522,480.88389,
2283.612,468.4987,
2280.701,467.67375,
2277.791,485.11067,
2274.880,486.90213,
2271.969,471.42079,
2269.059,482.83991,
2266.148,489.23414,
2263.238,488.25193,
2260.327,510.81871,
2257.417,480.71722,
2254.506,475.8412,
2251.595,494.60087,
2248.685,494.59425,
2245.774,497.25542,
2242.864,510.58294,
2239.953,498.07406,
2237.043,508.85358,
2234.132,514.86423,
2231.221,517.64402,
2228.311,513.01031,
2225.400,513.66556,
2222.490,514.83478,
2219.579,529.67286,
2216.669,537.18561,
2213.758,544.8794,
2210.847,553.03462,
2207.937,529.84938,
2205.026,560.52843,
2202.116,548.78077,
2199.205,562.03776,
2196.294,557.874,
2193.384,569.40752,
2190.473,575.46596,
2187.563,573.84184,
2184.652,593.65367,
2181.742,600.81844,
2178.831,617.18195,
2175.920,634.66439,
2173.010,651.25113,
2170.099,703.54466,
2167.189,727.03702,
2164.278,765.8696,
2161.368,771.60583,
2158.457,828.82752,
2155.546,887.12792,
2152.636,922.351,
2149.725,957.54864,
2146.815,989.81567,
2143.904,1023.5641,
2140.993,1059.3796,
2138.083,1062.9263,
2135.172,1057.7668,
2132.262,1075.7782,
2129.351,1082.4638,
2126.441,1067.4975,
2123.530,1008.0317,
2120.619,940.62173,
2117.709,902.88406,
2114.798,846.05358,
2111.888,792.35072,
2108.977,741.14733,
2106.067,713.16622,
2103.156,683.47511,
2100.245,655.74686,
2097.335,647.37828,
2094.424,622.98935,
2091.514,622.31988,
2088.603,617.85139,
2085.692,599.79099,
2082.782,595.11141,
2079.871,605.14323,
2076.961,609.55627,
2074.050,572.13788,
2071.140,578.62365,
2068.229,579.55337,
2065.318,587.79849,
2062.408,589.9701,
2059.497,591.91664,
2056.587,577.91284,
2053.676,560.41766,
2050.766,582.59454,
2047.855,543.54741,
2044.944,571.94711,
2042.034,570.98109,
2039.123,546.49074,
2036.213,551.53888,
2033.302,547.66306,
2030.391,567.35961,
2027.481,549.73807,
2024.570,571.77773,
2021.660,569.28216,
2018.749,566.42033,
2015.839,534.09515,
2012.928,537.46308,
2010.017,528.51548,
2007.107,550.09954,
2004.196,550.14284,
2001.286,552.39663,
1998.375,547.00787,
1995.465,538.81696,
1992.554,535.12061,
1989.643,532.81913,
1986.733,532.12456,
1983.822,538.04468,
1980.912,530.33388,
1978.001,520.00418,
1975.090,537.09505,
1972.180,541.85508,
1969.269,516.95687,
1966.359,503.31746,
1963.448,498.01948,
1960.538,492.88094,
1957.627,463.21747,
1954.716,494.71583,
1951.806,510.62028,
1948.895,454.44832,
1945.985,484.85621,
1943.074,503.34781,
1940.164,491.9229,
1937.253,451.49404,
1934.342,432.38261,
1931.432,457.56388,
1928.521,449.16451,
1925.611,445.07463,
1922.700,469.70165,
1919.790,449.91214,
1916.879,452.26175,
1913.968,453.74877,
1911.058,438.26953,
1908.147,454.70178,
1905.237,427.90445,
1902.326,448.53075,
1899.415,436.75,
1896.505,434.40057,
1893.594,440.28967,
1890.684,432.12922,
1887.773,418.37057,
1884.863,403.89123,
1881.952,432.11212,
1879.041,455.55841,
1876.131,449.60621,
1873.220,428.57293,
1870.310,429.463,
1867.399,398.26179,
1864.489,416.87936,
1861.578,445.77739,
1858.667,452.08236,
1855.757,434.5364,
1852.846,447.48847,
1849.936,435.00626,
1847.025,434.09791,
1844.114,460.77354,
1841.204,452.31644,
1838.293,442.7367,
1835.383,461.13349,
1832.472,454.92391,
1829.562,454.97084,
1826.651,496.9902,
1823.740,477.35147,
1820.830,472.23826,
1817.919,467.42061,
1815.009,452.05026,
1812.098,465.90747,
1809.188,496.82745,
1806.277,484.08198,
1803.366,471.08272,
1800.456,489.65086,
1797.545,472.50168,
1794.635,496.2001,
1791.724,529.51713,
1788.813,480.5536,
1785.903,500.89529,
1782.992,522.16577,
1780.082,492.72475,
1777.171,481.75161,
1774.261,503.81032,
1771.350,510.77524,
1768.439,485.55946,
1765.529,503.84262,
1762.618,511.85124,
1759.708,512.837,
1756.797,506.5303,
1753.887,503.95554,
1750.976,508.75,
1748.065,506.90668,
1745.155,485.31143,
1742.244,521.42384,
1739.334,518.36177,
1736.423,512.81541,
1733.512,510.65649,
1730.602,531.93853,
1727.691,552.03257,
1724.781,540.01847,
1721.870,549.43103,
1718.960,537.12759,
1716.049,539.62282,
1713.138,554.42993,
1710.228,522.80842,
1707.317,548.71,
1704.407,572.51474,
1701.496,574.75,
1698.586,621.87321,
1695.675,568.67177,
1692.764,612.08609,
1689.854,606.13976,
1686.943,589.32334,
1684.033,599.4768,
1681.122,602.69902,
1678.211,597.79759,
1675.301,645.602,
1672.390,657.92047,
1669.480,714.35692,
1666.569,666.18166,
1663.659,700.02765,
1660.748,716.40293,
1657.837,699.27487,
1654.927,723.26544,
1652.016,744.6771,
1649.106,741.75,
1646.195,742.08567,
1643.285,758.16538,
1640.374,861.47822,
1637.463,849.07426,
1634.553,867.7549,
1631.642,935.1626,
1628.732,973.35439,
1625.821,1074.7873,
1622.911,1131.4288,
1620.000,1202.8429,
1617.089,1283.1381,
1614.179,1405.2531,
1611.268,1443.4116,
1608.358,1542.9272,
1605.447,1652.408,
1602.536,1666.2051,
1599.626,1667.6699,
1596.715,1656.8588,
1593.805,1606.5617,
1590.894,1644.7835,
1587.984,1597.9184,
1585.073,1537.8502,
1582.162,1523.7407,
1579.252,1557.1186,
1576.341,1543.1213,
1573.431,1530.7014,
1570.520,1484.4161,
1567.610,1461.8087,
1564.699,1447.1495,
1561.788,1432.8909,
1558.878,1367.9841,
1555.967,1335.786,
1553.057,1298.6641,
1550.146,1262.1573,
1547.235,1202.1626,
1544.325,1197.1577,
1541.414,1199.7679,
1538.504,1144.7286,
1535.593,1111.1846,
1532.683,1078.3766,
1529.772,1047.9623,
1526.861,1042.2312,
1523.951,1031.5042,
1521.040,1021.9286,
1518.130,942.2427,
1515.219,962.86887,
1512.309,988.61933,
1509.398,956.05406,
1506.487,985.82858,
1503.577,991.96148,
1500.666,940.70606,
1497.756,893.43653,
1494.845,899.26864,
1491.934,839.82244,
1489.024,861.95978,
1486.113,919.31015,
1483.203,851.80842,
1480.292,817.29466,
1477.382,829.72321,
1474.471,803.82222,
1471.560,760.64369,
1468.650,736.13435,
1465.739,742.27882,
1462.829,760.08953,
1459.918,754.49022,
1457.008,749.33469,
1454.097,737.18799,
1451.186,734.21615,
1448.276,754.69134,
1445.365,733.92615,
1442.455,688.35082,
1439.544,657.31318,
1436.633,705.81852,
1433.723,727.13292,
1430.812,704.76034,
1427.902,655.20099,
1424.991,674.15624,
1422.081,658.23541,
1419.170,591.08141,
1416.259,618.82296,
1413.349,576.39361,
1410.438,565.34824,
1407.528,556.80639,
1404.617,555.44703,
1401.707,581.0075,
1398.796,604.05419,
1395.885,608.57678,
1392.975,602.66637,
1390.064,592.39878,
1387.154,605.52616,
1384.243,616.36858,
1381.332,567.5046,
1378.422,616.45508,
1375.511,668.91482,
1372.601,730.57364,
1369.690,710.89055,
1366.780,742.39158,
1363.869,801.15044,
1360.958,848.79952,
1358.048,891.04234,
1355.137,893.97948,
1352.227,901.2534,
1349.316,954.35686,
1346.406,992.3217,
1343.495,1006.6595,
1340.584,1094.3922,
1337.674,1140.7868,
1334.763,1157.4324,
1331.853,1149.0874,
1328.942,1216.3493,
1326.032,1204.3595,
1323.121,1281.2561,
1320.210,1307.0863,
1317.300,1344.1151,
1314.389,1385.1392,
1311.479,1437.1963,
1308.568,1496.4482,
1305.657,1515.9977,
1302.747,1539.7449,
1299.836,1615.7869,
1296.926,1655.9802,
1294.015,1746.9932,
1291.105,1842.3263,
1288.194,1868.3286,
1285.283,1924.0182,
1282.373,2023.8513,
1279.462,2067.005,
1276.552,2105.6321,
1273.641,2157.3053,
1270.731,2165.6321,
1267.820,2173.1512,
1264.909,2193.1455,
1261.999,2188.8499,
1259.088,2191.5862,
1256.178,2172.908,
1253.267,2134.459,
1250.356,2072.956,
1247.446,1975.9958,
1244.535,1894.0269,
1241.625,1816.3242,
1238.714,1729.0683,
1235.804,1671.1482,
1232.893,1609.7531,
1229.982,1593.3582,
1227.072,1522.7439,
1224.161,1539.6031,
1221.251,1521.4147,
1218.340,1456.0947,
1215.430,1422.5479,
1212.519,1430.7107,
1209.608,1433.8906,
1206.698,1433.5802,
1203.787,1478.8153,
1200.877,1476.5918,
1197.966,1522.4489,
1195.055,1546.0812,
1192.145,1567.0309,
1189.234,1619.463,
1186.324,1651.8416,
1183.413,1674.9734,
1180.503,1688.9931,
1177.592,1665.1539,
1174.681,1633.5822,
1171.771,1611.5233,
1168.860,1601.6994,
1165.950,1586.2368,
1163.039,1565.2899,
1160.129,1567.1877,
1157.218,1567.5004,
1154.307,1555.1846,
1151.397,1541.5791,
1148.486,1524.8047,
1145.576,1496.75,
1142.665,1496.75,
1139.754,1482.9183,
1136.844,1516.1657,
1133.933,1493.6271,
1131.023,1470.9989,
1128.112,1461.4664,
1125.202,1439.3732,
1122.291,1451.6274,
1119.380,1457.802,
1116.470,1463.0971,
1113.559,1474.5755,
1110.649,1471.8564,
1107.738,1471.4291,
1104.828,1474.1661,
1101.917,1490.1353,
1099.006,1515.8843,
1096.096,1466.3088,
1093.185,1491.7709,
1090.275,1484.848,
1087.364,1490.2974,
1084.453,1503.3119,
1081.543,1512.5029,
1078.632,1505.0348,
1075.722,1480.741,
1072.811,1470.5423,
1069.901,1509.8391,
1066.990,1517.6,
1064.079,1557.5393,
1061.169,1563.0471,
1058.258,1550.6326,
1055.348,1559.2144,
1052.437,1591.9976,
1049.527,1618.8171,
1046.616,1620.5548,
1043.705,1668.5374,
1040.795,1680.8345,
1037.884,1675.1984,
1034.974,1673.7294,
1032.063,1683.996,
1029.153,1701.5809,
1026.242,1708.5005,
1023.331,1709.5833,
1020.421,1702.0819,
1017.510,1716.6788,
1014.600,1725.6748,
1011.689,1734.1438,
1008.778,1778.028,
1005.868,1809.5763,
1002.957,1901.6342,
1000.047,1922.302,
997.136,1990.5305,
994.226,2054.5959,
991.315,2061.8317,
988.404,2026.453,
985.494,2018.7526,
982.583,1974.2117,
979.673,1969.2133,
976.762,1970.3371,
973.852,1985.7783,
970.941,2004.1572,
968.030,1999.7442,
965.120,1982.8538,
962.209,2007.5775,
959.299,2055.6614,
956.388,2036.7924,
953.477,2011.8603,
950.567,2018.0114,
947.656,2020.3097,
944.746,2032.2035,
941.835,2031.9402,
938.925,2026.4856,
936.014,2031.3374,
933.103,2034.866,
930.193,2012.169,
927.282,1949.3375,
924.372,1941.7271,
921.461,1914.976,
918.551,1886.5792,
915.640,1852.7776,
912.729,1835.4108,
909.819,1859.6371,
906.908,1843.631,
903.998,1822.8659,
901.087,1854.6674,
898.176,1865.2517,
895.266,1874.3809,
892.355,1922.6765,
889.445,1943.6582,
886.534,1927.8874,
883.624,1977.2309,
880.713,1994.5843,
877.802,1994.0452,
874.892,2004.2569,
871.981,1988.5133,
869.071,1978.4883,
866.160,1986.4094,
863.250,1984.4596,
860.339,1991.6371,
857.428,2000.0192,
854.518,1938.1111,
851.607,1950.5921,
848.697,1933.4911,
845.786,1916.9655,
842.875,1908.0023,
839.965,1907.2646,
837.054,1918.5732,
834.144,1902.8269,
831.233,1901.0832,
828.323,1881.9671,
825.412,1854.0229,
822.501,1836.4095,
819.591,1828.9719,
816.680,1808.7179,
813.770,1805.003,
810.859,1791.3103,
807.949,1775.1281,
805.038,1778.9491,
802.127,1780.5954,
799.217,1760.6244,
796.306,1758.8581,
793.396,1767.0325,
790.485,1756.693,
787.574,1694.2757,
784.664,1734.4612,
781.753,1776.6412,
778.843,1786.3988,
775.932,1764.2441,
773.022,1741.3866,
770.111,1803.5226,
767.200,1794.0464,
764.290,1787.4385,
761.379,1779.842,
758.469,1775.3539,
755.558,1790.5375,
752.648,1716.4086,
749.737,1682.1663,
746.826,1678.7433,
743.916,1686.4708,
741.005,1676.121,
738.095,1590.8739,
735.184,1498.5181,
732.274,1448.3954,
729.363,1490.5816,
726.452,1625.361,
723.542,1739.4855,
720.631,1699.8777,
717.721,1708.6638,
714.810,1718.1364,
711.899,1717.2253,
708.989,1766.4477,
706.078,1733.0953,
703.168,1719.285,
700.257,1705.0231,
697.347,1698.01,
694.436,1726.9208,
691.525,1696.3762,
688.615,1668.367,
685.704,1662.6571,
682.794,1677.601,
679.883,1695.7047,
676.973,1672.465,
674.062,1657.5407,
671.151,1667.9682,
668.241,1693.7532,
665.330,1709.5987,
662.420,1706.4038,
659.509,1716.5438,
656.598,1709.3348,
653.688,1684.6187,
650.777,1661.9651,
647.867,1697.7999,
644.956,1697.0819,
642.046,1693.4084,
639.135,1697.4269,
636.224,1703.6744,
633.314,1688.5896,
630.403,1713.1281,
627.493,1733.1341,
624.582,1740.8129,
621.672,1772.4926,
618.761,1767.6705,
615.850,1771.8109,
612.940,1781.5315,
610.029,1790.0924,
607.119,1786.1442,
604.208,1797.1102,
601.297,1803.2456,
598.387,1795.5778,
595.476,1774.607,
592.566,1794.2837,
589.655,1786.088,
586.745,1774.9763,
583.834,1761.0646,
580.923,1733.84,
578.013,1748.75,
575.102,1728.0857,
572.192,1730.4725,
569.281,1764.0944,
566.371,1743.7462,
563.460,1729.0516,
560.549,1730.5719,
557.639,1739.0928,
554.728,1746.3961,
551.818,1804.1395,
548.907,1809.437,
545.996,1817.5801,
543.086,1834.898,
540.175,1821.6611,
537.265,1812.7829,
534.354,1853.3971,
531.444,1874.736,
528.533,1822.2198,
525.622,1885.0715,
522.712,1898.1432,
519.801,1922.1903,
516.891,1956.1158,
513.980,1928.2412,
511.070,1978.5761,
508.159,2013.1667,
505.248,2038.2667,
502.338,2073.7666,
499.427,2108.4991,
496.517,2156.7803,
493.606,2193.4798,
490.695,2202.8986,
487.785,2175.1861,
484.874,2170.75,
481.964,2166.1819,
479.053,2159.9339,
476.143,2160.7018,
473.232,2143.4843,
470.321,2135.7768,
467.411,2128.1652,
464.500,2109.5063,
461.590,2139.3702,
458.679,2134.5429,
455.769,2144.2292,
452.858,2191.4542,
449.947,2217.4279,
447.037,2236.0987,
444.126,2252.1439,
441.216,2265.676,
438.305,2271.0095,
435.395,2267.1605,
432.484,2271.8348,
429.573,2284.945,
426.663,2298.6276,
423.752,2303.2371,
420.842,2307.0334,
417.931,2308.2417,
415.020,2302.9332,
412.110,2409.5655,
409.199,2425.2781,
406.289,2401.242,
403.378,2402.8294,
400.468,2426.2652,
397.557,2445.5754,
394.646,2441.3973,
391.736,2401.2711,
388.825,2448.7877,
385.915,2427.6252,
383.004,2407.6006,
380.094,2435.9017,
377.183,2458.476,
374.272,2495.6885,
371.362,2517.0408,
368.451,2505.8412,
365.541,2507.3423,
362.630,2520.8598,
359.719,2538.8532,
356.809,2558.7857,
353.898,2608.9552,
350.988,2609.1878,
348.077,2588.7473,
345.167,2569.2475,
342.256,2618.554,
339.345,2604.5841,
336.435,2578.362,
333.524,2573.7635,
330.614,2542.467,
327.703,2549.6924,
324.793,2563.4299,
321.882,2556.8131,
318.971,2582.8336,
316.061,2615.1891,
313.150,2641.1357,
310.240,2645.5884,
307.329,2661.472,
304.418,2653.6154,
301.508,2629.8577,
298.597,2603.9431,
295.687,2624.0989,
292.776,2652.2501,
289.866,2700.1036,
286.955,2810.9124,
284.044,2891.8974,
281.134,2956.4107,
278.223,3010.3725,
275.313,3069.3209,
272.402,3113.1188,
269.492,3150.0084,
266.581,3184.376,
263.670,3235.1034,
260.760,3308.7793,
257.849,3354.7946,
254.939,3332.0442,
252.028,3369.3899,
249.117,3381.9227,
246.207,3371.9842,
243.296,3341.9706,
240.386,3346.5859,
237.475,3329.2355,
234.565,3289.5735,
231.654,3256.7062,
228.743,3237.0919,
225.833,3200.9191,
222.922,3139.4782,
220.012,3133.6498,
217.101,3116.5378,
214.191,3090.0405,
211.280,3054.3949,
208.369,3046.3675,
205.459,3041.3545,
202.548,3035.1177,
199.638,3019.879,
196.727,3053.6278,
193.816,3049.4436,
190.906,2979.5434,
187.995,3059.1861,
185.085,3111.8114,
182.174,3127.0176,
179.264,3080.0378,
176.353,3088.8471,
173.442,3098.9253,
170.532,3102.33,
167.621,3098.7251,
164.711,3071.4716,
161.800,3026.1227,
158.890,2962.7867,
155.979,2769.4001,
153.068,2547.349,
150.158,2297.2038,
147.247,1994.2279,
144.337,1670.2359,
141.426,1329.3213,
138.516,970.87568,
135.605,699.85571,
132.694,478.2866,
129.784,307.37761,
126.873,207.97456,
123.963,141.65532,
121.052,96.551588,
118.141,70.851116,
115.231,53.696311,
112.320,43.784549,
109.410,37.977382,
106.499,28.719364,
103.589,30.111527,
100.678,29.49054,
97.767,20.959289,
94.857,19.364022,
91.946,20.765554,
89.036,23.411306,
86.125,21.28369,
83.215,20.75,
80.304,19.073971,
77.393,14.116782,
74.483,17.025675,
71.572,14.764127,
68.662,7.888535,
65.751,9.3014372,
62.840,9.268298,
59.930,10.061003,
57.019,14.996577,
54.109,6.7925873,
51.198,4.9725299,
48.288,14.682051,
45.377,6.2415139,
42.466,9.3455094,
39.556,18.059289,
36.645,13.846147,
33.735,5.9997699,
30.824,1.0753218,
27.914,5.2823733,
25.003,0.7689002,
22.092,-0.63547721,
19.182,2.7042343,
16.271,1.305254,
13.361,6.6504117,
10.450,-13.374404,
7.539,-176.7802,
4.629,-388.60459,
1.718,-600.27663,
-1.192,-773.16848,
-4.103,-588.64237,
-7.013,-317.52787,
-9.924,-2.25,
