,PL605E~1,
Wavenumbers [1/cm],Intensity,
3014.167,1.75,
3011.256,2.6499785,
3008.346,232.10433,
3005.435,253.48145,
3002.525,280.52517,
2999.614,283.61103,
2996.704,279.47577,
2993.793,281.36924,
2990.882,290.26906,
2987.972,288.82063,
2985.061,302.75,
2982.151,314.19875,
2979.240,327.59885,
2976.329,320.97679,
2973.419,320.07272,
2970.508,342.14996,
2967.598,313.08815,
2964.687,337.36209,
2961.777,340.18595,
2958.866,350.40528,
2955.955,358.92036,
2953.045,361.28243,
2950.134,353.53717,
2947.224,355.51866,
2944.313,383.54772,
2941.403,373.58303,
2938.492,371.33537,
2935.581,374.93283,
2932.671,374.71139,
2929.760,381.21538,
2926.850,373.16805,
2923.939,381.59113,
2921.028,392.39132,
2918.118,388.12909,
2915.207,380.75,
2912.297,379.75423,
2909.386,380.896,
2906.476,364.39325,
2903.565,342.58852,
2900.654,337.18581,
2897.744,329.2974,
2894.833,283.02855,
2891.923,277.4808,
2889.012,229.46676,
2886.102,169.13111,
2883.191,61.831185,
2880.280,-367.4224,
2877.370,-1146.888,
2874.459,-1440.6441,
2871.549,-686.19247,
2868.638,-33.806992,
2865.727,125.10757,
2862.817,195.42244,
2859.906,268.48503,
2856.996,292.23868,
2854.085,324.67863,
2851.175,353.39159,
2848.264,349.31867,
2845.353,346.44014,
2842.443,375.75348,
2839.532,375.07834,
2836.622,399.10938,
2833.711,382.43132,
2830.801,391.14559,
2827.890,396.00176,
2824.979,400.25603,
2822.069,401.90921,
2819.158,418.03033,
2816.248,403.81948,
2813.337,418.43048,
2810.427,418.97039,
2807.516,407.85797,
2804.605,438.2548,
2801.695,406.60523,
2798.784,436.49738,
2795.874,410.19065,
2792.963,407.75021,
2790.052,396.75343,
2787.142,406.43431,
2784.231,396.17083,
2781.321,423.98991,
2778.410,398.16497,
2775.500,394.15483,
2772.589,423.21025,
2769.678,400.50087,
2766.768,402.43156,
2763.857,412.27601,
2760.947,424.34141,
2758.036,418.41867,
2755.126,433.65812,
2752.215,417.30445,
2749.304,436.04673,
2746.394,450.99802,
2743.483,434.15003,
2740.573,434.07303,
2737.662,433.54733,
2734.751,437.81809,
2731.841,424.50641,
2728.930,421.16084,
2726.020,439.52025,
2723.109,448.82191,
2720.199,429.80942,
2717.288,426.01278,
2714.377,430.49164,
2711.467,443.34011,
2708.556,443.14368,
2705.646,444.97536,
2702.735,455.567,
2699.825,445.13002,
2696.914,457.22637,
2694.003,456.28172,
2691.093,437.66094,
2688.182,464.37,
2685.272,444.35171,
2682.361,438.56769,
2679.450,439.58126,
2676.540,461.36384,
2673.629,445.73653,
2670.719,451.10767,
2667.808,463.11774,
2664.898,472.12646,
2661.987,463.61631,
2659.076,452.36853,
2656.166,467.15263,
2653.255,474.67007,
2650.345,467.22913,
2647.434,478.12182,
2644.524,491.20563,
2641.613,492.17866,
2638.702,498.67109,
2635.792,484.40802,
2632.881,463.82155,
2629.971,489.2871,
2627.060,483.08375,
2624.149,479.29063,
2621.239,479.50148,
2618.328,482.13148,
2615.418,489.75454,
2612.507,495.81716,
2609.597,497.11727,
2606.686,507.41264,
2603.775,503.99207,
2600.865,516.10155,
2597.954,504.32497,
2595.044,517.40191,
2592.133,523.80736,
2589.223,532.88264,
2586.312,512.65449,
2583.401,524.95437,
2580.491,519.84616,
2577.580,514.74505,
2574.670,515.34758,
2571.759,513.18922,
2568.848,486.46262,
2565.938,510.32125,
2563.027,524.87052,
2560.117,522.36685,
2557.206,521.70941,
2554.296,535.48913,
2551.385,516.24596,
2548.474,520.19461,
2545.564,532.4651,
2542.653,542.72987,
2539.743,530.15758,
2536.832,553.60795,
2533.922,559.51346,
2531.011,549.14963,
2528.100,553.81967,
2525.190,569.09549,
2522.279,535.6562,
2519.369,529.52384,
2516.458,520.30595,
2513.548,518.32276,
2510.637,525.47152,
2507.726,556.12176,
2504.816,561.81201,
2501.905,565.24268,
2498.995,546.16803,
2496.084,553.66987,
2493.173,559.61854,
2490.263,573.91838,
2487.352,569.8752,
2484.442,579.0155,
2481.531,586.32455,
2478.621,590.26663,
2475.710,574.84201,
2472.799,584.77693,
2469.889,586.99101,
2466.978,595.75,
2464.068,594.79232,
2461.157,596.28996,
2458.247,602.75,
2455.336,587.58168,
2452.425,585.99057,
2449.515,617.60863,
2446.604,621.28228,
2443.694,613.2615,
2440.783,617.22748,
2437.872,621.56768,
2434.962,618.06336,
2432.051,618.82402,
2429.141,627.84985,
2426.230,649.57656,
2423.320,637.10684,
2420.409,645.21163,
2417.498,633.56179,
2414.588,652.82215,
2411.677,636.64243,
2408.767,638.80905,
2405.856,654.68809,
2402.946,645.4819,
2400.035,655.13499,
2397.124,639.18851,
2394.214,629.88401,
2391.303,624.57317,
2388.393,596.64992,
2385.482,520.7462,
2382.571,436.42094,
2379.661,480.14453,
2376.750,619.26193,
2373.840,659.2594,
2370.929,684.4576,
2368.019,694.5936,
2365.108,699.23691,
2362.197,712.55547,
2359.287,699.77507,
2356.376,714.7183,
2353.466,720.34074,
2350.555,727.88518,
2347.645,719.76459,
2344.734,723.72239,
2341.823,746.43492,
2338.913,747.73058,
2336.002,730.41271,
2333.092,735.45096,
2330.181,724.13369,
2327.270,731.92492,
2324.360,743.54011,
2321.449,739.30443,
2318.539,752.87845,
2315.628,785.2528,
2312.718,769.36893,
2309.807,778.86193,
2306.896,765.23826,
2303.986,767.27603,
2301.075,757.85645,
2298.165,768.29848,
2295.254,776.68537,
2292.344,767.27277,
2289.433,779.74227,
2286.522,788.53116,
2283.612,791.84948,
2280.701,782.69172,
2277.791,819.18708,
2274.880,787.31389,
2271.969,811.61831,
2269.059,818.30858,
2266.148,834.80008,
2263.238,832.65348,
2260.327,826.16385,
2257.417,841.4761,
2254.506,853.73567,
2251.595,832.60087,
2248.685,828.91157,
2245.774,837.46408,
2242.864,869.45326,
2239.953,850.52242,
2237.043,853.25678,
2234.132,855.99677,
2231.221,848.06522,
2228.311,850.96907,
2225.400,863.31291,
2222.490,888.32015,
2219.579,913.77571,
2216.669,902.812,
2213.758,902.79577,
2210.847,934.73737,
2207.937,919.64579,
2205.026,939.75029,
2202.116,926.50585,
2199.205,934.02342,
2196.294,979.23796,
2193.384,969.14547,
2190.473,995.92724,
2187.563,984.85634,
2184.652,1010.0635,
2181.742,1033.4779,
2178.831,1064.9758,
2175.920,1109.4021,
2173.010,1156.1026,
2170.099,1229.4097,
2167.189,1251.1088,
2164.278,1312.9289,
2161.368,1408.6041,
2158.457,1489.3896,
2155.546,1561.278,
2152.636,1655.5849,
2149.725,1722.3607,
2146.815,1773.2818,
2143.904,1872.7723,
2140.993,1935.5965,
2138.083,1968.3974,
2135.172,1972.271,
2132.262,1982.2676,
2129.351,1972.3809,
2126.441,1895.1867,
2123.530,1815.9194,
2120.619,1730.3652,
2117.709,1644.8394,
2114.798,1561.3724,
2111.888,1420.6769,
2108.977,1340.6043,
2106.067,1275.5225,
2103.156,1234.4751,
2100.245,1171.7136,
2097.335,1111.1008,
2094.424,1079.3038,
2091.514,1035.1021,
2088.603,1025.8007,
2085.692,1027.7054,
2082.782,1030.4568,
2079.871,1016.785,
2076.961,1010.0083,
2074.050,998.67121,
2071.140,1016.5891,
2068.229,1003.7761,
2065.318,975.19475,
2062.408,976.81052,
2059.497,965.5357,
2056.587,987.70305,
2053.676,963.63548,
2050.766,971.44133,
2047.855,959.18042,
2044.944,941.34615,
2042.034,949.85402,
2039.123,948.51094,
2036.213,946.25217,
2033.302,945.33675,
2030.391,953.52975,
2027.481,930.17703,
2024.570,925.2785,
2021.660,948.3309,
2018.749,942.06617,
2015.839,924.07743,
2012.928,924.57718,
2010.017,940.42535,
2007.107,945.193,
2004.196,954.28572,
2001.286,941.8525,
1998.375,925.79134,
1995.465,891.28572,
1992.554,884.50293,
1989.643,865.44127,
1986.733,882.08772,
1983.822,903.21086,
1980.912,889.34419,
1978.001,889.41975,
1975.090,886.91489,
1972.180,881.44152,
1969.269,856.22125,
1966.359,850.15537,
1963.448,853.13309,
1960.538,836.08528,
1957.627,850.47447,
1954.716,868.29037,
1951.806,825.44549,
1948.895,835.43426,
1945.985,809.27778,
1943.074,809.21104,
1940.164,818.13404,
1937.253,803.6015,
1934.342,844.74144,
1931.432,812.5765,
1928.521,785.85363,
1925.611,779.42537,
1922.700,760.3384,
1919.790,759.19505,
1916.879,742.07524,
1913.968,774.70819,
1911.058,741.06232,
1908.147,772.95291,
1905.237,753.45579,
1902.326,685.20187,
1899.415,628.84996,
1896.505,546.34003,
1893.594,582.3387,
1890.684,680.36436,
1887.773,709.16315,
1884.863,749.43565,
1881.952,757.56504,
1879.041,766.34086,
1876.131,781.1513,
1873.220,708.78509,
1870.310,713.53024,
1867.399,721.63804,
1864.489,742.98366,
1861.578,749.1236,
1858.667,751.13624,
1855.757,742.74642,
1852.846,755.04228,
1849.936,774.61087,
1847.025,747.22691,
1844.114,740.87949,
1841.204,791.79195,
1838.293,791.78659,
1835.383,768.1105,
1832.472,795.80913,
1829.562,790.83671,
1826.651,763.75823,
1823.740,823.99533,
1820.830,816.34027,
1817.919,792.9056,
1815.009,797.45611,
1812.098,796.95473,
1809.188,834.26929,
1806.277,789.81233,
1803.366,823.86645,
1800.456,831.57436,
1797.545,841.97005,
1794.635,810.42609,
1791.724,843.96366,
1788.813,815.74486,
1785.903,773.48662,
1782.992,642.68279,
1780.082,408.88541,
1777.171,103.72427,
1774.261,67.976215,
1771.350,379.72734,
1768.439,750.6513,
1765.529,847.02692,
1762.618,889.69316,
1759.708,889.38026,
1756.797,887.27273,
1753.887,883.95408,
1750.976,890.6191,
1748.065,928.94201,
1745.155,920.4792,
1742.244,949.12674,
1739.334,946.7853,
1736.423,923.03226,
1733.512,955.5875,
1730.602,963.01785,
1727.691,959.21468,
1724.781,978.41441,
1721.870,976.5071,
1718.960,991.19464,
1716.049,1020.7582,
1713.138,1025.75,
1710.228,1043.1559,
1707.317,1047.5191,
1704.407,1045.0548,
1701.496,1049.3077,
1698.586,1084.8614,
1695.675,1074.6501,
1692.764,1087.9508,
1689.854,1113.624,
1686.943,1103.1547,
1684.033,1135.9056,
1681.122,1159.3592,
1678.211,1168.6643,
1675.301,1250.4972,
1672.390,1244.9324,
1669.480,1305.8703,
1666.569,1321.2832,
1663.659,1362.5377,
1660.748,1351.5046,
1657.837,1441.0124,
1654.927,1454.3198,
1652.016,1519.3612,
1649.106,1506.0757,
1646.195,1599.9009,
1643.285,1645.998,
1640.374,1615.4643,
1637.463,1696.5426,
1634.553,1740.5776,
1631.642,1797.0312,
1628.732,1914.3959,
1625.821,2022.8337,
1622.911,2150.0287,
1620.000,2293.9232,
1617.089,2421.2027,
1614.179,2652.1228,
1611.268,2819.5413,
1608.358,2930.5995,
1605.447,2996.0933,
1602.536,3091.0749,
1599.626,3127.1879,
1596.715,3004.501,
1593.805,2973.8634,
1590.894,2928.5972,
1587.984,2902.8299,
1585.073,2801.0553,
1582.162,2770.3918,
1579.252,2712.1055,
1576.341,2710.1638,
1573.431,2654.7951,
1570.520,2600.5311,
1567.610,2640.1626,
1564.699,2614.9732,
1561.788,2563.5391,
1558.878,2492.7634,
1555.967,2443.6267,
1553.057,2368.5955,
1550.146,2327.8336,
1547.235,2283.4271,
1544.325,2207.8109,
1541.414,2166.3494,
1538.504,2142.7393,
1535.593,2114.0379,
1532.683,2043.4881,
1529.772,1968.5751,
1526.861,1950.8871,
1523.951,1935.4954,
1521.040,1928.1857,
1518.130,1930.7568,
1515.219,1939.4325,
1512.309,1843.3446,
1509.398,1816.691,
1506.487,1814.2865,
1503.577,1719.1048,
1500.666,1707.2197,
1497.756,1731.3936,
1494.845,1689.5093,
1491.934,1659.6461,
1489.024,1627.8838,
1486.113,1592.443,
1483.203,1571.0985,
1480.292,1508.5057,
1477.382,1478.352,
1474.471,1431.5442,
1471.560,1422.3783,
1468.650,1385.4867,
1465.739,1368.3905,
1462.829,1340.1028,
1459.918,1322.4075,
1457.008,1312.5806,
1454.097,1309.1445,
1451.186,1342.7016,
1448.276,1383.2845,
1445.365,1381.8195,
1442.455,1350.2771,
1439.544,1338.7428,
1436.633,1362.9427,
1433.723,1298.1239,
1430.812,1296.6865,
1427.902,1246.2686,
1424.991,1268.0672,
1422.081,1257.7403,
1419.170,1236.0126,
1416.259,1286.2142,
1413.349,1289.6871,
1410.438,1283.9509,
1407.528,1252.4941,
1404.617,1234.5757,
1401.707,1218.3817,
1398.796,1174.5403,
1395.885,1156.0454,
1392.975,1167.4787,
1390.064,1184.95,
1387.154,1263.3382,
1384.243,1248.3385,
1381.332,1311.9593,
1378.422,1338.1364,
1375.511,1345.6307,
1372.601,1436.0639,
1369.690,1418.0333,
1366.780,1445.4314,
1363.869,1468.2795,
1360.958,1539.1114,
1358.048,1557.9172,
1355.137,1580.3424,
1352.227,1655.9594,
1349.316,1726.3032,
1346.406,1771.8246,
1343.495,1825.4695,
1340.584,1867.2846,
1337.674,1936.1772,
1334.763,1917.1494,
1331.853,1980.2011,
1328.942,2074.3648,
1326.032,2105.3249,
1323.121,2117.9006,
1320.210,2175.3555,
1317.300,2260.0025,
1314.389,2354.7372,
1311.479,2460.9244,
1308.568,2531.8276,
1305.657,2561.5648,
1302.747,2647.9143,
1299.836,2724.7035,
1296.926,2848.5274,
1294.015,2908.2834,
1291.105,3074.5308,
1288.194,3113.5236,
1285.283,3242.3345,
1282.373,3346.8045,
1279.462,3447.9251,
1276.552,3505.6791,
1273.641,3513.9625,
1270.731,3501.6395,
1267.820,3422.9761,
1264.909,3353.4213,
1261.999,3425.6474,
1259.088,3477.6383,
1256.178,3464.4773,
1253.267,3378.8929,
1250.356,3309.0512,
1247.446,3202.6746,
1244.535,3044.1387,
1241.625,2898.1316,
1238.714,2836.6659,
1235.804,2816.5463,
1232.893,2684.5204,
1229.982,2591.9953,
1227.072,2599.2378,
1224.161,2526.6262,
1221.251,2532.1072,
1218.340,2494.6988,
1215.430,2444.3243,
1212.519,2407.8089,
1209.608,2373.4487,
1206.698,2339.4095,
1203.787,2321.9208,
1200.877,2297.9231,
1197.966,2332.9903,
1195.055,2444.8191,
1192.145,2543.3924,
1189.234,2586.6186,
1186.324,2634.481,
1183.413,2679.9987,
1180.503,2696.4127,
1177.592,2682.275,
1174.681,2639.7774,
1171.771,2653.2349,
1168.860,2630.9076,
1165.950,2613.4305,
1163.039,2594.3851,
1160.129,2593.6486,
1157.218,2599.6729,
1154.307,2598.0397,
1151.397,2581.3228,
1148.486,2558.9431,
1145.576,2597.707,
1142.665,2550.6476,
1139.754,2555.6999,
1136.844,2539.5421,
1133.933,2503.5977,
1131.023,2488.9431,
1128.112,2495.4642,
1125.202,2490.7114,
1122.291,2472.3767,
1119.380,2477.0445,
1116.470,2507.0504,
1113.559,2487.5525,
1110.649,2504.9793,
1107.738,2526.8589,
1104.828,2519.7704,
1101.917,2488.9863,
1099.006,2471.5334,
1096.096,2498.8575,
1093.185,2500.6135,
1090.275,2528.2652,
1087.364,2529.261,
1084.453,2553.7483,
1081.543,2584.3909,
1078.632,2596.1232,
1075.722,2599.6396,
1072.811,2622.5495,
1069.901,2647.8741,
1066.990,2607.7168,
1064.079,2597.0695,
1061.169,2586.2563,
1058.258,2580.2909,
1055.348,2587.2775,
1052.437,2597.8818,
1049.527,2610.9654,
1046.616,2668.3081,
1043.705,2653.9393,
1040.795,2668.1821,
1037.884,2666.6008,
1034.974,2671.2539,
1032.063,2709.0959,
1029.153,2737.2041,
1026.242,2749.3135,
1023.331,2750.5833,
1020.421,2760.5094,
1017.510,2769.2322,
1014.600,2788.3984,
1011.689,2788.9399,
1008.778,2729.8593,
1005.868,2689.2481,
1002.957,2633.325,
1000.047,2857.7101,
997.136,3064.5644,
994.226,3186.6725,
991.315,3227.9654,
988.404,3213.9393,
985.494,3208.9636,
982.583,3173.8448,
979.673,3208.2589,
976.762,3239.776,
973.852,3239.3737,
970.941,3231.1595,
968.030,3242.2875,
965.120,3205.9004,
962.209,3241.7071,
959.299,3252.7077,
956.388,3267.0692,
953.477,3287.0257,
950.567,3306.4556,
947.656,3321.9782,
944.746,3338.9693,
941.835,3317.0752,
938.925,3310.4339,
936.014,3302.6684,
933.103,3294.6907,
930.193,3284.9595,
927.282,3250.7711,
924.372,3195.8067,
921.461,3149.7208,
918.551,3108.4461,
915.640,3066.6529,
912.729,3043.9956,
909.819,3052.4071,
906.908,2966.4798,
903.998,3029.356,
901.087,3006.6501,
898.176,3027.1747,
895.266,3094.1113,
892.355,3136.3782,
889.445,3139.7353,
886.534,3191.5121,
883.624,3223.9535,
880.713,3195.4526,
877.802,3081.6712,
874.892,2836.5313,
871.981,2375.1547,
869.071,2053.5208,
866.160,2252.3451,
863.250,2691.7557,
860.339,3048.3216,
857.428,3150.3324,
854.518,3107.5525,
851.607,2858.7638,
848.697,2553.0039,
845.786,2393.2706,
842.875,2500.8126,
839.965,2827.3293,
837.054,3085.5732,
834.144,3069.8269,
831.233,3083.4155,
828.323,3090.7609,
825.412,3084.2766,
822.501,3069.1754,
819.591,3049.3419,
816.680,3045.5449,
813.770,2978.9672,
810.859,2936.5913,
807.949,2928.6158,
805.038,2918.646,
802.127,2926.0542,
799.217,2877.5542,
796.306,2865.2906,
793.396,2878.0936,
790.485,2901.1732,
787.574,2933.3728,
784.664,2949.775,
781.753,2967.5116,
778.843,3024.7384,
775.932,3077.3673,
773.022,3075.9605,
770.111,3057.9737,
767.200,3033.1493,
764.290,2995.7003,
761.379,2977.6887,
758.469,2983.9593,
755.558,2984.3124,
752.648,2969.6495,
749.737,2996.1255,
746.826,2985.1754,
743.916,2967.0359,
741.005,2993.8896,
738.095,2950.8602,
735.184,2941.4596,
732.274,2935.0169,
729.363,2937.4746,
726.452,2949.7268,
723.542,2944.061,
720.631,2994.9741,
717.721,3027.9354,
714.810,3032.7557,
711.899,3024.0767,
708.989,3042.636,
706.078,3066.7891,
703.168,3022.3507,
700.257,2990.9877,
697.347,3000.1405,
694.436,3026.4008,
691.525,3013.54,
688.615,2997.5429,
685.704,2993.2035,
682.794,3010.3882,
679.883,3051.2093,
676.973,3039.1888,
674.062,3047.5974,
671.151,3028.7652,
668.241,2999.3707,
665.330,3007.3718,
662.420,2999.3845,
659.509,2997.1151,
656.598,3001.943,
653.688,3029.6839,
650.777,3098.3459,
647.867,3056.9368,
644.956,2958.5924,
642.046,2820.0012,
639.135,2712.4401,
636.224,2753.4105,
633.314,2885.2043,
630.403,2980.8271,
627.493,3023.3659,
624.582,3027.8706,
621.672,3050.8384,
618.761,3060.8693,
615.850,3095.1563,
612.940,3113.9193,
610.029,3101.4076,
607.119,3105.3558,
604.208,3127.0504,
601.297,3098.8597,
598.387,3071.2089,
595.476,3092.9673,
592.566,3074.0777,
589.655,3075.9331,
586.745,3058.3535,
583.834,3035.4829,
580.923,3048.5841,
578.013,3021.1184,
575.102,3031.5312,
572.192,3041.1772,
569.281,3039.3898,
566.371,3065.2164,
563.460,3091.0305,
560.549,3107.0846,
557.639,3108.1102,
554.728,3095.0658,
551.818,3131.7406,
548.907,3167.783,
545.996,3188.8603,
543.086,3200.125,
540.175,3229.7135,
537.265,3233.9228,
534.354,3225.7196,
531.444,3223.4378,
528.533,3247.5926,
525.622,3343.8101,
522.712,3352.0082,
519.801,3348.7144,
516.891,3365.8273,
513.980,3410.7365,
511.070,3465.463,
508.159,3509.1956,
505.248,3536.2536,
502.338,3547.1614,
499.427,3663.708,
496.517,3715.1136,
493.606,3764.7357,
490.695,3833.1408,
487.785,3843.1481,
484.874,3842.1651,
481.964,3863.5903,
479.053,3874.7902,
476.143,3787.2424,
473.232,3789.6634,
470.321,3809.7802,
467.411,3811.2881,
464.500,3763.6227,
461.590,3798.081,
458.679,3831.4127,
455.769,3886.6673,
452.858,3964.9091,
449.947,3966.4369,
447.037,3977.6717,
444.126,4012.4773,
441.216,4055.2522,
438.305,4029.3465,
435.395,4078.2009,
432.484,4104.9165,
429.573,4065.0545,
426.663,3899.3439,
423.752,3220.4122,
420.842,2378.2466,
417.931,1756.1642,
415.020,1884.3267,
412.110,2893.9865,
409.199,3555.6592,
406.289,3837.644,
403.378,3763.0226,
400.468,3548.3202,
397.557,3639.1364,
394.646,3895.0641,
391.736,4184.1786,
388.825,4291.2794,
385.915,4351.4885,
383.004,4362.7584,
380.094,4330.4756,
377.183,4383.9014,
374.272,4440.5441,
371.362,4471.6294,
368.451,4462.6162,
365.541,4476.8764,
362.630,4524.9955,
359.719,4531.8573,
356.809,4462.9701,
353.898,4499.6613,
350.988,4516.2598,
348.077,4520.0075,
345.167,4514.8418,
342.256,4496.9122,
339.345,4524.6988,
336.435,4547.3654,
333.524,4531.1963,
330.614,4545.3542,
327.703,4550.2634,
324.793,4559.5149,
321.882,4584.7644,
318.971,4590.712,
316.061,4641.0931,
313.150,4700.7571,
310.240,4729.6996,
307.329,4814.3625,
304.418,4883.7703,
301.508,4942.307,
298.597,5000.7999,
295.687,5000.3321,
292.776,5057.7503,
289.866,5151.2471,
286.955,5196.3094,
284.044,5281.8124,
281.134,5358.1136,
278.223,5421.8215,
275.313,5504.3492,
272.402,5513.0365,
269.492,5414.5458,
266.581,5207.0791,
263.670,5085.7744,
260.760,5262.3152,
257.849,5518.6237,
254.939,5698.4249,
252.028,5745.6284,
249.117,5828.0763,
246.207,5954.2392,
243.296,6141.6406,
240.386,6255.7808,
237.475,6329.9538,
234.565,6375.1919,
231.654,6416.0934,
228.743,6494.3695,
225.833,6558.2508,
222.922,6589.6378,
220.012,6651.565,
217.101,6755.1717,
214.191,6858.5791,
211.280,6914.5938,
208.369,6984.6857,
205.459,7032.72,
202.548,7074.5495,
199.638,7177.5917,
196.727,7256.3716,
193.816,7316.8114,
190.906,7361.4927,
187.995,7439.6873,
185.085,7529.6398,
182.174,7591.7188,
179.264,7562.0854,
176.353,7601.6822,
173.442,7633.7263,
170.532,7637.9212,
167.621,7553.567,
164.711,7374.6564,
161.800,7092.6811,
158.890,6679.5575,
155.979,6247.5535,
153.068,5799.8453,
150.158,5298.9234,
147.247,4594.6122,
144.337,3828.8079,
141.426,3053.3017,
138.516,2290.5294,
135.605,1632.5668,
132.694,1110.4609,
129.784,714.01941,
126.873,453.71215,
123.963,302.30087,
121.052,205.37015,
118.141,148.97189,
115.231,118.19547,
112.320,95.582738,
109.410,80.386447,
106.499,73.264895,
103.589,63.906437,
100.678,54.762161,
97.767,46.941848,
94.857,44.671033,
91.946,42.540667,
89.036,39.621021,
86.125,32.528968,
83.215,28.626319,
80.304,26.75,
77.393,26.75,
74.483,31.335945,
71.572,29.764127,
68.662,22.75,
65.751,22.75,
62.840,20.823192,
59.930,19.499145,
57.019,22.319473,
54.109,22.152839,
51.198,19.940344,
48.288,15.75,
45.377,15.75,
42.466,19.872193,
39.556,24.713933,
36.645,18.394221,
33.735,24.538727,
30.824,29.762017,
27.914,23.45144,
25.003,22.75,
22.092,25.979046,
19.182,33.894143,
16.271,68.86865,
13.361,261.44818,
10.450,666.00143,
7.539,1591.2693,
4.629,2433.2686,
1.718,2881.9302,
-1.192,2507.5636,
-4.103,1528.8003,
-7.013,645.31322,
-9.924,-1.25,
