,PLACEA~1,
Raman shift [1/cm],Intensity,
3014.167,2.625,
3011.256,-0.92501074,
3008.346,200.10931,
3005.435,241.93242,
3002.525,223.98238,
2999.614,248.19902,
2996.704,255.20953,
2993.793,271.88191,
2990.882,272.83871,
2987.972,282.64518,
2985.061,289.2851,
2982.151,288.22163,
2979.240,314.79039,
2976.329,322.37637,
2973.419,323.20934,
2970.508,335.24166,
2967.598,356.71697,
2964.687,345.78872,
2961.777,355.43698,
2958.866,383.96972,
2955.955,367.86615,
2953.045,373.74358,
2950.134,402.78538,
2947.224,403.96663,
2944.313,419.22044,
2941.403,408.85082,
2938.492,438.38112,
2935.581,445.65202,
2932.671,452.46621,
2929.760,442.58651,
2926.850,457.05733,
2923.939,472.82594,
2921.028,468.8544,
2918.118,471.70561,
2915.207,485.45422,
2912.297,477.68424,
2909.386,508.36954,
2906.476,485.625,
2903.565,478.12351,
2900.654,493.44908,
2897.744,491.47413,
2894.833,488.697,
2891.923,488.65059,
2889.012,484.28974,
2886.102,502.10202,
2883.191,493.6401,
2880.280,440.85466,
2877.370,439.89239,
2874.459,438.7949,
2871.549,480.78323,
2868.638,516.89921,
2865.727,531.96731,
2862.817,520.23865,
2859.906,511.01815,
2856.996,527.13632,
2854.085,536.94855,
2851.175,540.23953,
2848.264,531.39483,
2845.353,536.32306,
2842.443,519.82987,
2839.532,515.625,
2836.622,504.32161,
2833.711,503.67681,
2830.801,510.91985,
2827.890,502.89598,
2824.979,511.32895,
2822.069,516.46579,
2819.158,504.14522,
2816.248,523.80842,
2813.337,528.8311,
2810.427,521.66908,
2807.516,518.09984,
2804.605,512.07693,
2801.695,522.75658,
2798.784,515.29031,
2795.874,518.92053,
2792.963,523.12532,
2790.052,519.62736,
2787.142,519.0065,
2784.231,504.94799,
2781.321,532.11059,
2778.410,506.24427,
2775.500,518.79569,
2772.589,509.70146,
2769.678,515.15736,
2766.768,511.76866,
2763.857,526.83695,
2760.947,536.10924,
2758.036,524.30647,
2755.126,533.75962,
2752.215,544.98851,
2749.304,546.09261,
2746.394,552.35485,
2743.483,546.525,
2740.573,550.94803,
2737.662,540.6457,
2734.751,551.83378,
2731.841,527.32646,
2728.930,560.17586,
2726.020,561.40567,
2723.109,562.73842,
2720.199,564.88137,
2717.288,550.34398,
2714.377,563.94566,
2711.467,562.54259,
2708.556,581.06121,
2705.646,588.9208,
2702.735,597.96521,
2699.825,597.7777,
2696.914,577.67226,
2694.003,606.77135,
2691.093,579.7321,
2688.182,600.77241,
2685.272,569.97919,
2682.361,591.14247,
2679.450,598.91718,
2676.540,596.80792,
2673.629,603.30214,
2670.719,614.68324,
2667.808,604.59771,
2664.898,611.88473,
2661.987,616.59174,
2659.076,611.7694,
2656.166,611.8674,
2653.255,610.8869,
2650.345,618.52155,
2647.434,621.71074,
2644.524,623.01109,
2641.613,641.45404,
2638.702,648.64078,
2635.792,628.15541,
2632.881,647.32717,
2629.971,655.75251,
2627.060,627.12219,
2624.149,648.24688,
2621.239,652.63686,
2618.328,629.21842,
2615.418,638.31136,
2612.507,652.58539,
2609.597,680.24776,
2606.686,657.56072,
2603.775,656.79168,
2600.865,665.62837,
2597.954,659.43954,
2595.044,675.29462,
2592.133,669.73323,
2589.223,704.96293,
2586.312,684.38375,
2583.401,697.23812,
2580.491,685.54328,
2577.580,688.65966,
2574.670,704.64373,
2571.759,705.38783,
2568.848,704.27687,
2565.938,698.86301,
2563.027,713.91816,
2560.117,711.3633,
2557.206,715.66559,
2554.296,728.08038,
2551.385,708.79888,
2548.474,704.88448,
2545.564,725.11851,
2542.653,711.55117,
2539.743,733.88471,
2536.832,741.54275,
2533.922,754.26231,
2531.011,738.49942,
2528.100,739.03261,
2525.190,743.38934,
2522.279,731.79745,
2519.369,755.92687,
2516.458,753.28931,
2513.548,757.90672,
2510.637,773.39535,
2507.726,748.37963,
2504.816,742.50099,
2501.905,758.36402,
2498.995,767.3709,
2496.084,749.77135,
2493.173,748.54586,
2490.263,768.35498,
2487.352,785.41633,
2484.442,782.04898,
2481.531,792.99727,
2478.621,789.64392,
2475.710,799.57133,
2472.799,793.3649,
2469.889,801.92695,
2466.978,784.81079,
2464.068,795.73618,
2461.157,799.35746,
2458.247,802.36024,
2455.336,804.5389,
2452.425,807.73349,
2449.515,821.44622,
2446.604,838.80474,
2443.694,834.20642,
2440.783,829.76689,
2437.872,836.51561,
2434.962,831.52362,
2432.051,823.18668,
2429.141,820.625,
2426.230,856.14774,
2423.320,864.01118,
2420.409,846.13779,
2417.498,857.59973,
2414.588,880.79223,
2411.677,872.69672,
2408.767,871.33662,
2405.856,870.53686,
2402.946,882.67862,
2400.035,875.53344,
2397.124,874.43247,
2394.214,895.6518,
2391.303,890.94546,
2388.393,888.625,
2385.482,887.66906,
2382.571,894.59938,
2379.661,914.67133,
2376.750,913.68176,
2373.840,903.76249,
2370.929,913.52753,
2368.019,912.01047,
2365.108,925.08835,
2362.197,934.26332,
2359.287,930.22166,
2356.376,942.60387,
2353.466,944.21574,
2350.555,948.60007,
2347.645,948.07269,
2344.734,956.65728,
2341.823,964.54208,
2338.913,940.44739,
2336.002,956.31146,
2333.092,986.87783,
2330.181,987.87053,
2327.270,992.34997,
2324.360,948.31365,
2321.449,968.53317,
2318.539,976.15711,
2315.628,1007.615,
2312.718,986.17785,
2309.807,994.23982,
2306.896,1000.8613,
2303.986,1010.4173,
2301.075,1020.9867,
2298.165,1008.4422,
2295.254,1044.7848,
2292.344,1018.8324,
2289.433,1037.0073,
2286.522,1041.4108,
2283.612,1042.5957,
2280.701,1074.32,
2277.791,1044.7434,
2274.880,1034.1108,
2271.969,1079.588,
2269.059,1072.7503,
2266.148,1076.1342,
2263.238,1091.6211,
2260.327,1073.7286,
2257.417,1088.8622,
2254.506,1085.984,
2251.595,1098.3231,
2248.685,1088.7924,
2245.774,1108.5586,
2242.864,1093.9965,
2239.953,1140.3492,
2237.043,1138.08,
2234.132,1131.2069,
2231.221,1119.3356,
2228.311,1133.5425,
2225.400,1154.019,
2222.490,1167.9963,
2219.579,1177.1469,
2216.669,1196.6012,
2213.758,1211.4093,
2210.847,1234.358,
2207.937,1228.0729,
2205.026,1247.402,
2202.116,1277.7534,
2199.205,1289.4883,
2196.294,1284.303,
2193.384,1317.4925,
2190.473,1347.3586,
2187.563,1340.8667,
2184.652,1396.3483,
2181.742,1439.8537,
2178.831,1463.1075,
2175.920,1499.4265,
2173.010,1588.8047,
2170.099,1627.2232,
2167.189,1693.8977,
2164.278,1741.4562,
2161.368,1829.4784,
2158.457,1922.2992,
2155.546,1969.9722,
2152.636,2062.3961,
2149.725,2131.9068,
2146.815,2162.8241,
2143.904,2257.1194,
2140.993,2247.117,
2138.083,2262.6371,
2135.172,2271.6082,
2132.262,2251.0933,
2129.351,2236.8698,
2126.441,2194.2171,
2123.530,2119.3904,
2120.619,2002.5061,
2117.709,1931.8484,
2114.798,1843.6054,
2111.888,1765.4886,
2108.977,1677.6846,
2106.067,1575.6461,
2103.156,1532.6291,
2100.245,1487.6093,
2097.335,1459.1329,
2094.424,1426.4445,
2091.514,1400.4072,
2088.603,1384.1826,
2085.692,1386.2197,
2082.782,1373.7135,
2079.871,1358.0532,
2076.961,1358.4958,
2074.050,1359.8311,
2071.140,1329.774,
2068.229,1347.1003,
2065.318,1331.1938,
2062.408,1339.2385,
2059.497,1337.0357,
2056.587,1327.1485,
2053.676,1337.1407,
2050.766,1315.7035,
2047.855,1331.3117,
2044.944,1320.226,
2042.034,1320.232,
2039.123,1323.8641,
2036.213,1313.7406,
2033.302,1305.0164,
2030.391,1311.506,
2027.481,1343.9174,
2024.570,1323.1258,
2021.660,1321.3885,
2018.749,1337.4988,
2015.839,1358.1453,
2012.928,1354.8314,
2010.017,1366.5349,
2007.107,1345.1128,
2004.196,1330.3631,
2001.286,1341.3776,
1998.375,1354.9291,
1995.465,1349.1188,
1992.554,1319.5782,
1989.643,1355.2079,
1986.733,1304.3206,
1983.822,1315.4965,
1980.912,1315.0018,
1978.001,1343.2094,
1975.090,1349.2571,
1972.180,1317.3165,
1969.269,1328.8923,
1966.359,1338.7059,
1963.448,1317.4757,
1960.538,1329.6667,
1957.627,1319.3587,
1954.716,1313.7399,
1951.806,1299.0721,
1948.895,1315.1492,
1945.985,1356.8211,
1943.074,1312.7358,
1940.164,1301.5385,
1937.253,1312.4988,
1934.342,1301.9924,
1931.432,1290.666,
1928.521,1291.6768,
1925.611,1303.5989,
1922.700,1279.3419,
1919.790,1294.8791,
1916.879,1264.2057,
1913.968,1280.6016,
1911.058,1267.5139,
1908.147,1331.3111,
1905.237,1295.2353,
1902.326,1294.108,
1899.415,1306.297,
1896.505,1293.4863,
1893.594,1283.7104,
1890.684,1282.2329,
1887.773,1300.0812,
1884.863,1326.7275,
1881.952,1292.6579,
1879.041,1298.5632,
1876.131,1309.6969,
1873.220,1321.9569,
1870.310,1283.7103,
1867.399,1305.2252,
1864.489,1318.9504,
1861.578,1280.1468,
1858.667,1307.5591,
1855.757,1327.6143,
1852.846,1343.8968,
1849.936,1351.1836,
1847.025,1345.3282,
1844.114,1352.3944,
1841.204,1355.4502,
1838.293,1358.6416,
1835.383,1352.4505,
1832.472,1360.3693,
1829.562,1398.1203,
1826.651,1388.9063,
1823.740,1376.353,
1820.830,1386.6566,
1817.919,1389.625,
1815.009,1409.3184,
1812.098,1432.373,
1809.188,1381.16,
1806.277,1437.275,
1803.366,1433.6749,
1800.456,1434.3718,
1797.545,1398.8518,
1794.635,1429.077,
1791.724,1423.4113,
1788.813,1443.0191,
1785.903,1436.1152,
1782.992,1459.1391,
1780.082,1428.9641,
1777.171,1441.9537,
1774.261,1423.53,
1771.350,1441.0168,
1768.439,1477.4345,
1765.529,1475.7139,
1762.618,1487.2644,
1759.708,1498.2988,
1756.797,1493.3068,
1753.887,1503.3174,
1750.976,1489.8835,
1748.065,1491.2993,
1745.155,1511.3991,
1742.244,1516.6386,
1739.334,1549.1756,
1736.423,1559.6792,
1733.512,1559.0803,
1730.602,1575.3334,
1727.691,1566.0394,
1724.781,1556.9055,
1721.870,1578.1585,
1718.960,1605.8253,
1716.049,1617.3368,
1713.138,1604.0901,
1710.228,1597.2735,
1707.317,1633.777,
1704.407,1625.149,
1701.496,1641.856,
1698.586,1683.3563,
1695.675,1683.8179,
1692.764,1695.9324,
1689.854,1720.5423,
1686.943,1715.8274,
1684.033,1726.3518,
1681.122,1730.557,
1678.211,1762.3204,
1675.301,1775.5849,
1672.390,1834.6998,
1669.480,1860.2427,
1666.569,1936.8154,
1663.659,1951.7393,
1660.748,1958.9528,
1657.837,1977.5495,
1654.927,2063.789,
1652.016,2070.8194,
1649.106,2080.8038,
1646.195,2169.3753,
1643.285,2241.0579,
1640.374,2258.3916,
1637.463,2203.3632,
1634.553,2354.1915,
1631.642,2459.5696,
1628.732,2546.0161,
1625.821,2611.7434,
1622.911,2791.605,
1620.000,2910.1258,
1617.089,3040.018,
1614.179,3195.1974,
1611.268,3365.2304,
1608.358,3547.9627,
1605.447,3636.7685,
1602.536,3674.241,
1599.626,3740.1004,
1596.715,3747.4402,
1593.805,3739.576,
1590.894,3659.3647,
1587.984,3671.1434,
1585.073,3620.1727,
1582.162,3593.9273,
1579.252,3563.6211,
1576.341,3537.5984,
1573.431,3529.4923,
1570.520,3540.855,
1567.610,3523.7619,
1564.699,3451.3723,
1561.788,3409.0195,
1558.878,3332.6659,
1555.967,3267.5918,
1553.057,3200.229,
1550.146,3156.2614,
1547.235,3104.7118,
1544.325,3046.7829,
1541.414,3028.9455,
1538.504,3021.3213,
1535.593,2995.0437,
1532.683,2951.9801,
1529.772,2909.4127,
1526.861,2851.9782,
1523.951,2806.8883,
1521.040,2818.0985,
1518.130,2767.2268,
1515.219,2742.9446,
1512.309,2745.2286,
1509.398,2720.0773,
1506.487,2752.0897,
1503.577,2732.6895,
1500.666,2680.3572,
1497.756,2631.8455,
1494.845,2646.9052,
1491.934,2653.3415,
1489.024,2566.7172,
1486.113,2556.2073,
1483.203,2490.7888,
1480.292,2478.3824,
1477.382,2454.1858,
1474.471,2423.3015,
1471.560,2412.7223,
1468.650,2399.3261,
1465.739,2378.8937,
1462.829,2356.8982,
1459.918,2337.6802,
1457.008,2374.3025,
1454.097,2392.6685,
1451.186,2355.3078,
1448.276,2350.2664,
1445.365,2360.0176,
1442.455,2344.5989,
1439.544,2318.4579,
1436.633,2346.4899,
1433.723,2386.3667,
1430.812,2393.2127,
1427.902,2239.3162,
1424.991,2310.3984,
1422.081,2236.4744,
1419.170,2209.7516,
1416.259,2245.508,
1413.349,2207.0448,
1410.438,2207.7199,
1407.528,2226.8561,
1404.617,2220.7082,
1401.707,2217.4543,
1398.796,2211.2964,
1395.885,2192.4242,
1392.975,2203.4592,
1390.064,2232.2673,
1387.154,2195.6985,
1384.243,2114.8284,
1381.332,2038.9008,
1378.422,2160.9191,
1375.511,2302.373,
1372.601,2387.5663,
1369.690,2433.2,
1366.780,2586.1515,
1363.869,2582.4893,
1360.958,2598.9756,
1358.048,2632.831,
1355.137,2683.5256,
1352.227,2745.6186,
1349.316,2824.6733,
1346.406,2922.5734,
1343.495,2968.6424,
1340.584,2967.5526,
1337.674,3033.4474,
1334.763,3051.5537,
1331.853,3128.5139,
1328.942,3175.2087,
1326.032,3196.9374,
1323.121,3273.9805,
1320.210,3319.6026,
1317.300,3309.5571,
1314.389,3349.5844,
1311.479,3372.664,
1308.568,3384.3974,
1305.657,3488.7301,
1302.747,3543.8929,
1299.836,3579.1902,
1296.926,3659.8807,
1294.015,3772.9575,
1291.105,3816.3688,
1288.194,3989.361,
1285.283,4076.0172,
1282.373,4099.3203,
1279.462,4175.0942,
1276.552,4271.7905,
1273.641,4306.2737,
1270.731,4285.5683,
1267.820,4271.1179,
1264.909,4272.7671,
1261.999,4217.9884,
1259.088,4282.749,
1256.178,4175.2857,
1253.267,4124.4028,
1250.356,4070.6035,
1247.446,3964.5496,
1244.535,3888.2724,
1241.625,3861.9361,
1238.714,3806.5252,
1235.804,3695.7465,
1232.893,3623.5017,
1229.982,3612.5893,
1227.072,3522.9634,
1224.161,3527.5515,
1221.251,3422.4157,
1218.340,3339.6304,
1215.430,3294.2552,
1212.519,3248.1956,
1209.608,3202.3481,
1206.698,3201.7531,
1203.787,3248.5496,
1200.877,3221.0857,
1197.966,3309.2033,
1195.055,3396.3901,
1192.145,3491.7701,
1189.234,3567.9332,
1186.324,3640.9931,
1183.413,3699.0565,
1180.503,3718.2289,
1177.592,3702.7461,
1174.681,3681.1764,
1171.771,3641.6469,
1168.860,3555.9103,
1165.950,3502.4728,
1163.039,3480.4506,
1160.129,3450.8511,
1157.218,3406.223,
1154.307,3379.5932,
1151.397,3364.292,
1148.486,3309.0227,
1145.576,3319.9652,
1142.665,3258.6992,
1139.754,3253.625,
1136.844,3196.9005,
1133.933,3177.317,
1131.023,3190.0669,
1128.112,3213.4803,
1125.202,3234.4511,
1122.291,3227.3743,
1119.380,3225.6683,
1116.470,3230.0809,
1113.559,3266.1945,
1110.649,3263.5281,
1107.738,3241.0863,
1104.828,3256.752,
1101.917,3284.9026,
1099.006,3256.027,
1096.096,3261.9262,
1093.185,3250.5122,
1090.275,3334.5984,
1087.364,3277.7792,
1084.453,3249.937,
1081.543,3260.8837,
1078.632,3275.4599,
1075.722,3304.8489,
1072.811,3352.7849,
1069.901,3284.6706,
1066.990,3307.9166,
1064.079,3329.5963,
1061.169,3391.3028,
1058.258,3430.5432,
1055.348,3435.6773,
1052.437,3456.4256,
1049.527,3417.5788,
1046.616,3494.0358,
1043.705,3513.4157,
1040.795,3504.4934,
1037.884,3511.2799,
1034.974,3522.3905,
1032.063,3523.1556,
1029.153,3540.637,
1026.242,3565.7207,
1023.331,3563.2919,
1020.421,3562.625,
1017.510,3578.873,
1014.600,3610.2339,
1011.689,3644.4622,
1008.778,3680.2598,
1005.868,3760.5594,
1002.957,3864.6622,
1000.047,4031.3211,
997.136,4156.3421,
994.226,4198.8251,
991.315,4170.922,
988.404,4114.5457,
985.494,4065.8221,
982.583,3985.3058,
979.673,3937.7743,
976.762,3871.1987,
973.852,3864.1237,
970.941,3895.8082,
968.030,3878.2724,
965.120,3870.557,
962.209,3854.3587,
959.299,3909.7014,
956.388,3911.7864,
953.477,3908.1889,
950.567,3937.2977,
947.656,3964.7364,
944.746,3965.586,
941.835,3965.625,
938.925,3967.5992,
936.014,3971.66,
933.103,3964.0322,
930.193,3945.424,
927.282,3945.6461,
924.372,3890.6817,
921.461,3822.5038,
918.551,3793.6538,
915.640,3762.2785,
912.729,3731.9921,
909.819,3743.4001,
906.908,3718.9697,
903.998,3726.374,
901.087,3736.8996,
898.176,3776.9374,
895.266,3816.8946,
892.355,3833.7604,
889.445,3909.2944,
886.534,3938.8455,
883.624,3952.0262,
880.713,3952.5629,
877.802,3949.2776,
874.892,3943.2934,
871.981,3918.6189,
869.071,3876.0128,
866.160,3896.9133,
863.250,3941.6014,
860.339,3968.8351,
857.428,3949.7464,
854.518,3882.6731,
851.607,3884.3373,
848.697,3869.493,
845.786,3839.2715,
842.875,3851.5312,
839.965,3919.1154,
837.054,3939.6901,
834.144,3945.4914,
831.233,3958.6241,
828.323,3934.4561,
825.412,3911.996,
822.501,3919.0503,
819.591,3860.3759,
816.680,3794.5223,
813.770,3769.854,
810.859,3733.4894,
807.949,3692.0421,
805.038,3689.6936,
802.127,3748.1357,
799.217,3735.7356,
796.306,3701.2464,
793.396,3671.06,
790.485,3662.6789,
787.574,3681.1891,
784.664,3669.7075,
781.753,3734.0524,
778.843,3734.2796,
775.932,3715.4396,
773.022,3750.2734,
770.111,3760.9019,
767.200,3727.3659,
764.290,3727.6047,
761.379,3723.809,
758.469,3702.6953,
755.558,3690.5552,
752.648,3654.7127,
749.737,3633.2636,
746.826,3610.2397,
743.916,3550.462,
741.005,3420.8997,
738.095,3237.4155,
735.184,3012.548,
732.274,2953.7127,
729.363,3093.9955,
726.452,3364.5149,
723.542,3546.6284,
720.631,3585.6775,
717.721,3633.0057,
714.810,3676.0908,
711.899,3696.6151,
708.989,3683.7043,
706.078,3649.169,
703.168,3641.2322,
700.257,3622.2341,
697.347,3593.9729,
694.436,3591.254,
691.525,3577.5893,
688.615,3604.1838,
685.704,3595.7234,
682.794,3565.6037,
679.883,3580.9678,
676.973,3633.0569,
674.062,3612.9971,
671.151,3604.8299,
668.241,3612.3365,
665.330,3600.5914,
662.420,3642.1255,
659.509,3632.212,
656.598,3607.3443,
653.688,3608.1786,
650.777,3674.084,
647.867,3687.6216,
644.956,3693.7208,
642.046,3676.9681,
639.135,3646.2232,
636.224,3629.812,
633.314,3667.1271,
630.403,3694.3613,
627.493,3698.5594,
624.582,3700.2804,
621.672,3766.0159,
618.761,3757.2259,
615.850,3775.1135,
612.940,3795.3573,
610.029,3795.3641,
607.119,3763.7789,
604.208,3752.1048,
601.297,3761.5865,
598.387,3789.8165,
595.476,3824.6538,
592.566,3793.1711,
589.655,3806.4138,
586.745,3807.0777,
583.834,3781.0108,
580.923,3732.4591,
578.013,3704.9934,
575.102,3667.7984,
572.192,3678.1379,
569.281,3740.5618,
566.371,3762.4753,
563.460,3790.7273,
560.549,3811.8579,
557.639,3814.2995,
554.728,3794.0393,
551.818,3832.2748,
548.907,3868.0486,
545.996,3908.5636,
543.086,3941.6053,
540.175,3927.5896,
537.265,3888.9625,
534.354,3897.7028,
531.444,3920.0677,
528.533,3919.3976,
525.622,3930.2608,
522.712,3939.2993,
519.801,3978.758,
516.891,4047.8324,
513.980,4108.2275,
511.070,4127.7119,
508.159,4140.7885,
505.248,4171.1576,
502.338,4240.3872,
499.427,4300.5901,
496.517,4327.9381,
493.606,4337.971,
490.695,4345.6533,
487.785,4381.8334,
484.874,4400.5495,
481.964,4379.8014,
479.053,4336.2124,
476.143,4317.7813,
473.232,4350.437,
470.321,4342.7022,
467.411,4331.5152,
464.500,4363.2953,
461.590,4350.2777,
458.679,4347.7256,
455.769,4332.2417,
452.858,4299.1701,
449.947,4323.6159,
447.037,4358.963,
444.126,4377.5159,
441.216,4378.4031,
438.305,4394.4036,
435.395,4425.473,
432.484,4405.6178,
429.573,4360.7075,
426.663,4378.1908,
423.752,4358.005,
420.842,4296.5628,
417.931,4248.8459,
415.020,4298.8976,
412.110,4394.2715,
409.199,4464.3218,
406.289,4503.3469,
403.378,4508.689,
400.468,4527.5889,
397.557,4504.8326,
394.646,4459.3095,
391.736,4407.8624,
388.825,4352.8035,
385.915,4312.1441,
383.004,4318.8938,
380.094,4397.4564,
377.183,4550.9615,
374.272,4616.4218,
371.362,4641.5115,
368.451,4658.0413,
365.541,4697.8197,
362.630,4708.0788,
359.719,4718.8718,
356.809,4748.0264,
353.898,4787.7127,
350.988,4790.4877,
348.077,4781.3017,
345.167,4776.571,
342.256,4795.2477,
339.345,4811.7851,
336.435,4830.2304,
333.524,4852.2022,
330.614,4838.7894,
327.703,4863.8891,
324.793,4892.6562,
321.882,4895.7314,
318.971,4939.5945,
316.061,4961.9497,
313.150,4971.7036,
310.240,4978.3826,
307.329,5050.8033,
304.418,5085.5524,
301.508,5084.945,
298.597,5056.0687,
295.687,5048.2071,
292.776,5140.2088,
289.866,5304.5416,
286.955,5455.9803,
284.044,5641.4423,
281.134,5831.789,
278.223,6021.648,
275.313,6213.2304,
272.402,6310.5535,
269.492,6400.7372,
266.581,6512.8785,
263.670,6600.365,
260.760,6697.7139,
257.849,6806.4817,
254.939,6929.0401,
252.028,6962.4742,
249.117,6942.1902,
246.207,6908.5497,
243.296,6927.5826,
240.386,6879.3446,
237.475,6817.2798,
234.565,6751.4223,
231.654,6692.9916,
228.743,6617.3345,
225.833,6538.0011,
222.922,6461.1789,
220.012,6408.7229,
217.101,6299.8612,
214.191,6217.9572,
211.280,6262.3324,
208.369,6179.5049,
205.459,6106.0842,
202.548,6055.742,
199.638,6039.0521,
196.727,6057.5212,
193.816,6101.3191,
190.906,6163.822,
187.995,6112.4162,
185.085,6094.1521,
182.174,6096.3674,
179.264,6106.4861,
176.353,6115.3143,
173.442,6123.2506,
170.532,6122.0644,
167.621,6057.1766,
164.711,5953.9575,
161.800,5791.8362,
158.890,5543.5302,
155.979,5196.1162,
153.068,4801.8826,
150.158,4342.5782,
147.247,3725.1393,
144.337,3065.117,
141.426,2416.4465,
138.516,1805.6552,
135.605,1283.2429,
132.694,883.7225,
129.784,587.95345,
126.873,374.12963,
123.963,254.3696,
121.052,182.46054,
118.141,146.76544,
115.231,102.56964,
112.320,82.930456,
109.410,78.306961,
106.499,66.200322,
103.589,55.221183,
100.678,48.353378,
97.767,47.642441,
94.857,42.774077,
91.946,34.981448,
89.036,27.866877,
86.125,35.668135,
83.215,36.563159,
80.304,34.427837,
77.393,30.886987,
74.483,24.728785,
71.572,23.436761,
68.662,25.79379,
65.751,17.316377,
62.840,20.887126,
59.930,25.377566,
57.019,16.916582,
54.109,16.819322,
51.198,17.323391,
48.288,16.709937,
45.377,27.260608,
42.466,26.678368,
39.556,19.625,
36.645,19.625,
33.735,19.625,
30.824,20.287661,
27.914,22.391187,
25.003,24.492912,
22.092,25.302095,
19.182,25.26572,
16.271,44.851444,
13.361,177.79802,
10.450,415.60918,
7.539,798.98431,
4.629,983.81862,
1.718,922.50574,
-1.192,462.39034,
-4.103,220.71648,
-7.013,71.614718,
-9.924,0.625,
