,PLFB5D~1,
Raman shift [1/cm],Intensity,
3014.167,-3.625,
3011.256,-0.17501074,
3008.346,364.48328,
3005.435,404.56581,
3002.525,409.26258,
2999.614,444.52304,
2996.704,453.09252,
2993.793,462.61348,
2990.882,482.10777,
2987.972,466.55157,
2985.061,502.70505,
2982.151,508.77837,
2979.240,542.9577,
2976.329,550.88319,
2973.419,554.5596,
2970.508,567.70827,
2967.598,614.13604,
2964.687,615.58356,
2961.777,635.05889,
2958.866,630.71972,
2955.955,640.417,
2953.045,648.99697,
2950.134,715.87652,
2947.224,714.34653,
2944.313,718.31873,
2941.403,752.18522,
2938.492,770.22595,
2935.581,745.54192,
2932.671,778.41794,
2929.760,788.56345,
2926.850,788.16598,
2923.939,803.37029,
2921.028,825.53977,
2918.118,826.33722,
2915.207,851.43838,
2912.297,851.39616,
2909.386,870.58668,
2906.476,862.47614,
2903.565,866.9076,
2900.654,864.43364,
2897.744,865.41272,
2894.833,860.12773,
2891.923,843.5096,
2889.012,831.78541,
2886.102,851.16689,
2883.191,853.37217,
2880.280,809.02093,
2877.370,808.51453,
2874.459,806.43784,
2871.549,831.32279,
2868.638,895.56054,
2865.727,908.42121,
2862.817,896.84692,
2859.906,918.89352,
2856.996,906.37953,
2854.085,916.8183,
2851.175,916.04364,
2848.264,917.38467,
2845.353,906.69851,
2842.443,907.79867,
2839.532,882.71831,
2836.622,883.94792,
2833.711,878.26355,
2830.801,873.68456,
2827.890,887.14951,
2824.979,897.67105,
2822.069,910.86326,
2819.158,881.57717,
2816.248,909.36342,
2813.337,921.22013,
2810.427,908.19869,
2807.516,905.64125,
2804.605,912.21395,
2801.695,911.45393,
2798.784,909.07931,
2795.874,906.23516,
2792.963,897.58915,
2790.052,904.37286,
2787.142,891.45369,
2784.231,879.27716,
2781.321,919.79773,
2778.410,900.87877,
2775.500,909.99432,
2772.589,936.52639,
2769.678,910.05072,
2766.768,917.50509,
2763.857,950.31912,
2760.947,930.41913,
2758.036,949.23494,
2755.126,935.36859,
2752.215,965.13879,
2749.304,961.54588,
2746.394,980.39713,
2743.483,970.6251,
2740.573,953.03652,
2737.662,975.15163,
2734.751,972.14202,
2731.841,957.88782,
2728.930,996.26931,
2726.020,959.7066,
2723.109,996.49808,
2720.199,1010.9251,
2717.288,979.88593,
2714.377,1011.3993,
2711.467,1029.5717,
2708.556,1027.2474,
2705.646,1026.0651,
2702.735,1032.375,
2699.825,1022.104,
2696.914,1032.4232,
2694.003,1036.1181,
2691.093,1043.304,
2688.182,1040.6283,
2685.272,1057.6936,
2682.361,1055.4634,
2679.450,1048.4984,
2676.540,1056.3547,
2673.629,1053.384,
2670.719,1048.0903,
2667.808,1073.0618,
2664.898,1054.6347,
2661.987,1062.7418,
2659.076,1081.4677,
2656.166,1103.518,
2653.255,1084.0757,
2650.345,1119.816,
2647.434,1116.5465,
2644.524,1114.9002,
2641.613,1118.2895,
2638.702,1132.2172,
2635.792,1103.9662,
2632.881,1147.6246,
2629.971,1131.3479,
2627.060,1124.7081,
2624.149,1131.8875,
2621.239,1121.0909,
2618.328,1139.7392,
2615.418,1132.675,
2612.507,1149.8572,
2609.597,1145.0177,
2606.686,1157.2324,
2603.775,1155.0972,
2600.865,1169.2556,
2597.954,1187.5605,
2595.044,1186.2421,
2592.133,1205.3685,
2589.223,1209.9655,
2586.312,1215.179,
2583.401,1208.0283,
2580.491,1211.4567,
2577.580,1209.4179,
2574.670,1233.1611,
2571.759,1228.476,
2568.848,1248.3088,
2565.938,1229.6607,
2563.027,1237.1318,
2560.117,1243.4685,
2557.206,1287.5779,
2554.296,1263.2331,
2551.385,1259.0529,
2548.474,1254.7085,
2545.564,1275.7735,
2542.653,1274.6602,
2539.743,1282.4992,
2536.832,1311.1096,
2533.922,1310.4223,
2531.011,1310.0753,
2528.100,1322.166,
2525.190,1318.2389,
2522.279,1290.8288,
2519.369,1321.8843,
2516.458,1321.4834,
2513.548,1321.6113,
2510.637,1318.6824,
2507.726,1323.0627,
2504.816,1328.0007,
2501.905,1328.3171,
2498.995,1336.4944,
2496.084,1340.828,
2493.173,1335.8747,
2490.263,1365.6666,
2487.352,1381.7907,
2484.442,1366.3814,
2481.531,1379.2791,
2478.621,1399.9817,
2475.710,1395.4287,
2472.799,1397.1957,
2469.889,1396.8875,
2466.978,1401.1071,
2464.068,1404.0364,
2461.157,1404.6849,
2458.247,1406.272,
2455.336,1434.285,
2452.425,1420.4976,
2449.515,1421.5164,
2446.604,1422.4256,
2443.694,1443.5148,
2440.783,1480.143,
2437.872,1452.3806,
2434.962,1499.5962,
2432.051,1486.7886,
2429.141,1495.3573,
2426.230,1520.7452,
2423.320,1525.4616,
2420.409,1497.8299,
2417.498,1520.5548,
2414.588,1561.3444,
2411.677,1516.8412,
2408.767,1525.8337,
2405.856,1524.2869,
2402.946,1525.476,
2400.035,1560.0347,
2397.124,1572.2627,
2394.214,1573.3214,
2391.303,1575.7673,
2388.393,1581.8401,
2385.482,1607.3175,
2382.571,1605.6913,
2379.661,1628.3747,
2376.750,1641.4835,
2373.840,1612.5501,
2370.929,1619.245,
2368.019,1624.8442,
2365.108,1653.2101,
2362.197,1654.0681,
2359.287,1644.3666,
2356.376,1651.3644,
2353.466,1635.1164,
2350.555,1658.2753,
2347.645,1693.465,
2344.734,1693.6146,
2341.823,1704.1263,
2338.913,1693.1706,
2336.002,1718.3415,
2333.092,1729.5703,
2330.181,1730.6026,
2327.270,1714.2551,
2324.360,1728.4574,
2321.449,1778.511,
2318.539,1746.3536,
2315.628,1773.9701,
2312.718,1800.5072,
2309.807,1779.7907,
2306.896,1816.8007,
2303.986,1796.2062,
2301.075,1800.8218,
2298.165,1796.5769,
2295.254,1813.0088,
2292.344,1768.4745,
2289.433,1810.5296,
2286.522,1843.1876,
2283.612,1828.0944,
2280.701,1839.9534,
2277.791,1849.6173,
2274.880,1877.449,
2271.969,1869.6013,
2269.059,1875.078,
2266.148,1901.5319,
2263.238,1921.9696,
2260.327,1944.5473,
2257.417,1939.3056,
2254.506,1959.9932,
2251.595,1957.2368,
2248.685,1941.5904,
2245.774,1930.1663,
2242.864,1976.0059,
2239.953,2022.6855,
2237.043,2004.5439,
2234.132,2005.2737,
2231.221,2007.2174,
2228.311,2019.683,
2225.400,2020.3319,
2222.490,2051.704,
2219.579,2061.1283,
2216.669,2090.3893,
2213.758,2087.375,
2210.847,2142.9921,
2207.937,2165.0085,
2205.026,2186.0415,
2202.116,2197.1436,
2199.205,2221.2119,
2196.294,2232.937,
2193.384,2273.1631,
2190.473,2341.7119,
2187.563,2353.8004,
2184.652,2451.1648,
2181.742,2514.3533,
2178.831,2575.1456,
2175.920,2665.0963,
2173.010,2790.7078,
2170.099,2875.1697,
2167.189,2996.1858,
2164.278,3129.9449,
2161.368,3307.6544,
2158.457,3476.5014,
2155.546,3607.4165,
2152.636,3721.6355,
2149.725,3855.8917,
2146.815,3924.7733,
2143.904,4076.8917,
2140.993,4121.7982,
2138.083,4118.5028,
2135.172,4083.4086,
2132.262,4090.6408,
2129.351,4022.6125,
2126.441,3947.1321,
2123.530,3828.5107,
2120.619,3727.4678,
2117.709,3523.9112,
2114.798,3333.1051,
2111.888,3171.1656,
2108.977,3020.4544,
2106.067,2899.5707,
2103.156,2793.6705,
2100.245,2701.3336,
2097.335,2628.5111,
2094.424,2566.4075,
2091.514,2526.9449,
2088.603,2498.2691,
2085.692,2481.7876,
2082.782,2469.8771,
2079.871,2480.2688,
2076.961,2449.7644,
2074.050,2446.7629,
2071.140,2456.3059,
2068.229,2456.8503,
2065.318,2430.2267,
2062.408,2420.0036,
2059.497,2402.9583,
2056.587,2387.4449,
2053.676,2392.3578,
2050.766,2374.0686,
2047.855,2428.7549,
2044.944,2345.7596,
2042.034,2391.641,
2039.123,2413.5366,
2036.213,2424.0683,
2033.302,2409.223,
2030.391,2414.612,
2027.481,2410.9605,
2024.570,2443.6169,
2021.660,2434.3802,
2018.749,2449.6789,
2015.839,2457.2405,
2012.928,2456.1451,
2010.017,2460.5694,
2007.107,2459.6516,
2004.196,2449.5179,
2001.286,2440.269,
1998.375,2428.9833,
1995.465,2459.0527,
1992.554,2436.6988,
1989.643,2425.6169,
1986.733,2422.6259,
1983.822,2412.6195,
1980.912,2431.0086,
1978.001,2417.5958,
1975.090,2402.3597,
1972.180,2426.7181,
1969.269,2462.2256,
1966.359,2468.5371,
1963.448,2459.5309,
1960.538,2446.0139,
1957.627,2453.1831,
1954.716,2533.0481,
1951.806,2437.2821,
1948.895,2427.5975,
1945.985,2489.4649,
1943.074,2437.8251,
1940.164,2455.0866,
1937.253,2467.9965,
1934.342,2458.1611,
1931.432,2428.7567,
1928.521,2463.6893,
1925.611,2440.4079,
1922.700,2413.0863,
1919.790,2434.4903,
1916.879,2482.0968,
1913.968,2419.4562,
1911.058,2470.9125,
1908.147,2466.2349,
1905.237,2480.3603,
1902.326,2491.2757,
1899.415,2491.1738,
1896.505,2475.1581,
1893.594,2474.5579,
1890.684,2475.473,
1887.773,2493.9694,
1884.863,2500.2725,
1881.952,2498.0725,
1879.041,2476.4368,
1876.131,2509.2796,
1873.220,2496.5829,
1870.310,2473.8818,
1867.399,2488.1191,
1864.489,2506.1942,
1861.578,2458.5394,
1858.667,2520.869,
1855.757,2538.7628,
1852.846,2542.575,
1849.936,2521.8395,
1847.025,2545.6086,
1844.114,2553.375,
1841.204,2569.6128,
1838.293,2586.38,
1835.383,2590.4795,
1832.472,2578.5837,
1829.562,2593.8435,
1826.651,2609.375,
1823.740,2623.2064,
1820.830,2665.4147,
1817.919,2647.8718,
1815.009,2652.506,
1812.098,2650.7845,
1809.188,2626.9254,
1806.277,2671.3348,
1803.366,2733.3935,
1800.456,2674.3308,
1797.545,2658.9564,
1794.635,2683.601,
1791.724,2688.7729,
1788.813,2739.3724,
1785.903,2730.6715,
1782.992,2721.1321,
1780.082,2715.8356,
1777.171,2745.3729,
1774.261,2751.6103,
1771.350,2775.1877,
1768.439,2802.7408,
1765.529,2840.1018,
1762.618,2816.6006,
1759.708,2800.5055,
1756.797,2812.2917,
1753.887,2838.8123,
1750.976,2849.4784,
1748.065,2854.5916,
1745.155,2849.517,
1742.244,2850.6585,
1739.334,2897.5115,
1736.423,2909.603,
1733.512,2918.745,
1730.602,2971.9961,
1727.691,2990.678,
1724.781,3009.4663,
1721.870,2999.0844,
1718.960,3013.4641,
1716.049,3046.7391,
1713.138,3086.5748,
1710.228,3074.0988,
1707.317,3065.183,
1704.407,3078.7494,
1701.496,3142.3602,
1698.586,3139.1352,
1695.675,3183.289,
1692.764,3199.6291,
1689.854,3208.9852,
1686.943,3242.2283,
1684.033,3258.0025,
1681.122,3268.2051,
1678.211,3361.4804,
1675.301,3395.2732,
1672.390,3413.6651,
1669.480,3511.3136,
1666.569,3627.7305,
1663.659,3656.2569,
1660.748,3709.9149,
1657.837,3738.9715,
1654.927,3813.5145,
1652.016,3943.9862,
1649.106,3931.0434,
1646.195,4039.4609,
1643.285,4124.2839,
1640.374,4121.8593,
1637.463,4194.1492,
1634.553,4347.0745,
1631.642,4461.8517,
1628.732,4597.2757,
1625.821,4748.5019,
1622.911,4941.2818,
1620.000,5207.9859,
1617.089,5422.0964,
1614.179,5780.1098,
1611.268,6091.7383,
1608.358,6295.9167,
1605.447,6464.7191,
1602.536,6621.6132,
1599.626,6720.6886,
1596.715,6766.4942,
1593.805,6721.1867,
1590.894,6607.0526,
1587.984,6576.7853,
1585.073,6479.0835,
1582.162,6493.2658,
1579.252,6457.6416,
1576.341,6388.2952,
1573.431,6341.2649,
1570.520,6353.7776,
1567.610,6267.9814,
1564.699,6239.2751,
1561.788,6160.0941,
1558.878,6016.4501,
1555.967,5983.2129,
1553.057,5873.721,
1550.146,5778.106,
1547.235,5714.3295,
1544.325,5618.4699,
1541.414,5561.8142,
1538.504,5553.8336,
1535.593,5525.1078,
1532.683,5475.2429,
1529.772,5403.8007,
1526.861,5316.2236,
1523.951,5250.1664,
1521.040,5224.2441,
1518.130,5202.2387,
1515.219,5061.8156,
1512.309,5042.1273,
1509.398,5042.4491,
1506.487,5033.3363,
1503.577,4972.9055,
1500.666,4959.0026,
1497.756,4913.3238,
1494.845,4877.4156,
1491.934,4901.997,
1489.024,4786.4979,
1486.113,4784.2294,
1483.203,4700.8872,
1480.292,4669.1622,
1477.382,4683.9647,
1474.471,4610.8697,
1471.560,4578.667,
1468.650,4566.4924,
1465.739,4500.2475,
1462.829,4485.6668,
1459.918,4477.8279,
1457.008,4490.3292,
1454.097,4511.5183,
1451.186,4508.6129,
1448.276,4521.0647,
1445.365,4509.0504,
1442.455,4480.4878,
1439.544,4508.048,
1436.633,4507.0542,
1433.723,4494.4906,
1430.812,4508.2479,
1427.902,4406.4201,
1424.991,4408.3156,
1422.081,4352.4089,
1419.170,4351.6953,
1416.259,4318.3524,
1413.349,4311.1302,
1410.438,4320.4721,
1407.528,4321.1563,
1404.617,4304.6968,
1401.707,4289.6055,
1398.796,4297.1757,
1395.885,4337.2453,
1392.975,4350.5823,
1390.064,4305.375,
1387.154,4300.2345,
1384.243,4260.0948,
1381.332,4156.6749,
1378.422,4233.8572,
1375.511,4437.1387,
1372.601,4577.689,
1369.690,4723.1017,
1366.780,4862.5962,
1363.869,4912.2634,
1360.958,4995.2999,
1358.048,5102.0125,
1355.137,5224.0735,
1352.227,5324.4013,
1349.316,5400.0914,
1346.406,5472.7861,
1343.495,5535.2566,
1340.584,5652.3739,
1337.674,5732.6311,
1334.763,5829.6918,
1331.853,5916.8515,
1328.942,5903.4752,
1326.032,5994.3558,
1323.121,6023.5256,
1320.210,6070.3258,
1317.300,6105.3601,
1314.389,6196.0849,
1311.479,6292.1613,
1308.568,6330.7426,
1305.657,6360.3084,
1302.747,6385.5393,
1299.836,6472.7708,
1296.926,6674.528,
1294.015,6806.9106,
1291.105,6941.8146,
1288.194,7127.111,
1285.283,7238.1113,
1282.373,7297.0155,
1279.462,7403.2164,
1276.552,7492.0995,
1273.641,7523.902,
1270.731,7565.2511,
1267.820,7597.094,
1264.909,7512.8681,
1261.999,7409.7051,
1259.088,7473.5536,
1256.178,7417.4231,
1253.267,7349.0681,
1250.356,7227.7552,
1247.446,7109.1412,
1244.535,6984.0627,
1241.625,6850.2603,
1238.714,6750.5615,
1235.804,6675.3655,
1232.893,6532.0114,
1229.982,6476.3887,
1227.072,6358.6981,
1224.161,6294.0612,
1221.251,6182.1218,
1218.340,6076.7635,
1215.430,6001.4891,
1212.519,5926.5518,
1209.608,5867.7681,
1206.698,5846.3534,
1203.787,5827.0685,
1200.877,5927.2606,
1197.966,5909.2774,
1195.055,6119.1274,
1192.145,6283.8547,
1189.234,6439.2649,
1186.324,6547.8341,
1183.413,6599.2989,
1180.503,6622.4691,
1177.592,6615.1422,
1174.681,6533.1798,
1171.771,6493.9545,
1168.860,6345.7017,
1165.950,6251.5523,
1163.039,6217.0101,
1160.129,6154.3388,
1157.218,6127.3934,
1154.307,6107.7248,
1151.397,6000.2392,
1148.486,5857.0206,
1145.576,5882.3728,
1142.665,5859.287,
1139.754,5809.3709,
1136.844,5750.7544,
1133.933,5759.1138,
1131.023,5755.7702,
1128.112,5734.0172,
1125.202,5728.6069,
1122.291,5688.0071,
1119.380,5706.7994,
1116.470,5750.0433,
1113.559,5797.1304,
1110.649,5836.2237,
1107.738,5845.0168,
1104.828,5833.3013,
1101.917,5813.9071,
1099.006,5793.1275,
1096.096,5801.375,
1093.185,5801.375,
1090.275,5856.4054,
1087.364,5828.8938,
1084.453,5824.9991,
1081.543,5843.8248,
1078.632,5864.3438,
1075.722,5883.6735,
1072.811,5866.2294,
1069.901,5906.3994,
1066.990,5865.7251,
1064.079,5888.0397,
1061.169,5966.8896,
1058.258,6029.8091,
1055.348,6065.6581,
1052.437,6111.9152,
1049.527,6102.6981,
1046.616,6188.7122,
1043.705,6266.9731,
1040.795,6242.6797,
1037.884,6213.8348,
1034.974,6228.6237,
1032.063,6250.0753,
1029.153,6227.9569,
1026.242,6291.0988,
1023.331,6311.7072,
1020.421,6287.4909,
1017.510,6293.8641,
1014.600,6365.4706,
1011.689,6470.4567,
1008.778,6546.5852,
1005.868,6596.5218,
1002.957,6835.7003,
1000.047,7090.7751,
997.136,7266.9344,
994.226,7342.7441,
991.315,7305.0533,
988.404,7174.8649,
985.494,7082.0734,
982.583,6979.2867,
979.673,6902.9167,
976.762,6861.5877,
973.852,6839.5348,
970.941,6820.9655,
968.030,6799.0166,
965.120,6774.3893,
962.209,6777.7995,
959.299,6859.1154,
956.388,6863.2569,
953.477,6832.1545,
950.567,6847.8245,
947.656,6925.5978,
944.746,6927.2969,
941.835,6981.6325,
938.925,6990.4267,
936.014,7017.2071,
933.103,7006.1815,
930.193,6925.9852,
927.282,6889.3961,
924.372,6834.4317,
921.461,6784.6638,
918.551,6718.8338,
915.640,6662.8276,
912.729,6621.0787,
909.819,6576.0389,
906.908,6550.7661,
903.998,6577.2127,
901.087,6624.4749,
898.176,6653.1013,
895.266,6679.0537,
892.355,6751.3734,
889.445,6911.6734,
886.534,6868.9617,
883.624,6921.6027,
880.713,6994.7553,
877.802,7041.9333,
874.892,7033.9903,
871.981,6952.4342,
869.071,6954.9404,
866.160,6986.4232,
863.250,6994.0846,
860.339,6994.4606,
857.428,6990.6442,
854.518,6927.2196,
851.607,6887.2802,
848.697,6874.8725,
845.786,6871.856,
842.875,6912.2722,
839.965,6981.1903,
837.054,6949.4635,
834.144,7046.4275,
831.233,7049.3762,
828.323,7021.0976,
825.412,6975.2619,
822.501,6924.6091,
819.591,6937.0051,
816.680,6836.4133,
813.770,6803.2305,
810.859,6738.36,
807.949,6661.2408,
805.038,6640.4192,
802.127,6558.1065,
799.217,6609.2609,
796.306,6574.8881,
793.396,6541.1613,
790.485,6550.2163,
787.574,6540.1498,
784.664,6586.8962,
781.753,6566.5227,
778.843,6562.1766,
775.932,6574.2268,
773.022,6590.1672,
770.111,6666.2019,
767.200,6631.0254,
764.290,6594.1041,
761.379,6598.0377,
758.469,6623.6321,
755.558,6592.1382,
752.648,6517.1947,
749.737,6481.4857,
746.826,6436.8071,
743.916,6350.0691,
741.005,6192.6363,
738.095,5902.7963,
735.184,5618.8192,
732.274,5566.7058,
729.363,5752.2729,
726.452,6084.3677,
723.542,6361.1802,
720.631,6439.8317,
717.721,6479.9974,
714.810,6507.1761,
711.899,6528.8206,
708.989,6539.3106,
706.078,6522.5476,
703.168,6466.7612,
700.257,6442.8642,
697.347,6447.4629,
694.436,6413.6074,
691.525,6348.4992,
688.615,6342.5508,
685.704,6369.3914,
682.794,6403.0558,
679.883,6418.339,
676.973,6417.5376,
674.062,6421.2035,
671.151,6435.2099,
668.241,6454.9017,
665.330,6463.7026,
662.420,6343.8928,
659.509,6375.8839,
656.598,6438.6675,
653.688,6495.3982,
650.777,6552.807,
647.867,6565.5483,
644.956,6559.0877,
642.046,6540.5225,
639.135,6527.6152,
636.224,6547.3352,
633.314,6539.3958,
630.403,6549.7904,
627.493,6602.5436,
624.582,6679.555,
621.672,6707.2748,
618.761,6679.4973,
615.850,6660.4572,
612.940,6698.8237,
610.029,6786.7967,
607.119,6777.3212,
604.208,6712.4738,
601.297,6749.6868,
598.387,6826.8467,
595.476,6862.0834,
592.566,6880.186,
589.655,6873.0088,
586.745,6844.3747,
583.834,6799.0041,
580.923,6744.1618,
578.013,6708.8487,
575.102,6737.2318,
572.192,6743.5806,
569.281,6722.2312,
566.371,6821.6244,
563.460,6840.5461,
560.549,6850.2223,
557.639,6866.0433,
554.728,6894.6415,
551.818,6930.536,
548.907,6994.441,
545.996,7007.0476,
543.086,6968.0263,
540.175,6957.1253,
537.265,7048.3585,
534.354,7040.2296,
531.444,7017.9957,
528.533,7073.8582,
525.622,7108.7758,
522.712,7128.5101,
519.801,7147.8314,
516.891,7195.3284,
513.980,7338.5732,
511.070,7421.1054,
508.159,7498.6092,
505.248,7564.3938,
502.338,7604.1657,
499.427,7631.1798,
496.517,7765.0819,
493.606,7829.7353,
490.695,7769.6544,
487.785,7800.446,
484.874,7875.8134,
481.964,7863.7111,
479.053,7794.5813,
476.143,7803.7968,
473.232,7802.2168,
470.321,7776.073,
467.411,7774.1945,
464.500,7845.8623,
461.590,7786.1346,
458.679,7790.2862,
455.769,7791.6218,
452.858,7758.0908,
449.947,7764.9662,
447.037,7816.1294,
444.126,7856.5083,
441.216,7871.301,
438.305,7876.6345,
435.395,7859.6728,
432.484,7857.043,
429.573,7864.6,
426.663,7856.9986,
423.752,7864.744,
420.842,7820.423,
417.931,7779.5352,
415.020,7836.412,
412.110,7902.0253,
409.199,7982.0987,
406.289,8054.6579,
403.378,8095.3904,
400.468,8099.9263,
397.557,8065.8987,
394.646,7998.1681,
391.736,7904.3368,
388.825,7871.9048,
385.915,7827.2502,
383.004,7809.7955,
380.094,7854.0472,
377.183,8063.2356,
374.272,8219.6183,
371.362,8334.751,
368.451,8411.2352,
365.541,8392.4718,
362.630,8437.6291,
359.719,8464.8726,
356.809,8436.673,
353.898,8540.7559,
350.988,8557.4403,
348.077,8563.0571,
345.167,8604.1374,
342.256,8658.6734,
339.345,8687.1294,
336.435,8708.9235,
333.524,8735.5294,
330.614,8708.7038,
327.703,8731.6927,
324.793,8762.1484,
321.882,8764.5985,
318.971,8856.7854,
316.061,8911.3258,
313.150,8952.2345,
310.240,9006.4089,
307.329,9017.6653,
304.418,9087.0323,
301.508,9151.1965,
298.597,9097.8865,
295.687,9101.5019,
292.776,9169.542,
289.866,9326.789,
286.955,9646.6571,
284.044,9945.3747,
281.134,10224.197,
278.223,10486.098,
275.313,10743.998,
272.402,11002.272,
269.492,11196.586,
266.581,11305.89,
263.670,11411.021,
260.760,11541.15,
257.849,11686.78,
254.939,11842.363,
252.028,11927.617,
249.117,11983.13,
246.207,12011.564,
243.296,12012.296,
240.386,11959.483,
237.475,11917.928,
234.565,11885.217,
231.654,11814.369,
228.743,11736.66,
225.833,11612.017,
222.922,11430.453,
220.012,11367.798,
217.101,11279.166,
214.191,11200.07,
211.280,11172.426,
208.369,11198.633,
205.459,11153.685,
202.548,11060.361,
199.638,11031.335,
196.727,11017.884,
193.816,11032.242,
190.906,11081.6,
187.995,11173.551,
185.085,11205.375,
182.174,11191.859,
179.264,11141.988,
176.353,11219.676,
173.442,11204.378,
170.532,11093.107,
167.621,11073.64,
164.711,10871.287,
161.800,10535.84,
158.890,10074.495,
155.979,9443.6662,
153.068,8663.7099,
150.158,7743.0089,
147.247,6671.1061,
144.337,5472.1201,
141.426,4276.9249,
138.516,3146.3874,
135.605,2296.5871,
132.694,1580.1129,
129.784,1010.0106,
126.873,674.6147,
123.963,473.78166,
121.052,337.68056,
118.141,247.72891,
115.231,191.95051,
112.320,153.70047,
109.410,129.64789,
106.499,115.40479,
103.589,104.53144,
100.678,94.029053,
97.767,82.654052,
94.857,75.44511,
91.946,68.343891,
89.036,62.375,
86.125,62.375,
83.215,58.658558,
80.304,54.177837,
77.393,50.636987,
74.483,44.478785,
71.572,39.563239,
68.662,36.236465,
65.751,34.823563,
62.840,37.746914,
59.930,39.314852,
57.019,31.55895,
54.109,29.180678,
51.198,28.978219,
48.288,30.437287,
45.377,38.174446,
42.466,39.313903,
39.556,36.605237,
36.645,38.009618,
33.735,36.817255,
30.824,33.607904,
27.914,27.998502,
25.003,31.110825,
22.092,34.020809,
19.182,35.649594,
16.271,44.043476,
13.361,149.78929,
10.450,348.66703,
7.539,687.34998,
4.629,797.06065,
1.718,699.34798,
-1.192,314.5242,
-4.103,115.28064,
-7.013,14.118687,
-9.924,4.375,
