,PLDF5C~1,
Wavenumbers [1/cm],Intensity,
3014.167,2.375,
3011.256,-1.2249141,
3008.346,371.06974,
3005.435,433.52694,
3002.525,441.81012,
2999.614,480.98024,
2996.704,493.79047,
2993.793,499.48963,
2990.882,516.978,
2987.972,539.44058,
2985.061,555.9218,
2982.151,579.74981,
2979.240,579.66964,
2976.329,609.12637,
2973.419,621.95934,
2970.508,650.64157,
2967.598,655.08464,
2964.687,640.83696,
2961.777,666.96488,
2958.866,680.38539,
2955.955,687.62276,
2953.045,724.41081,
2950.134,739.94934,
2947.224,756.286,
2944.313,778.3864,
2941.403,777.80383,
2938.492,804.23679,
2935.581,810.60076,
2932.671,802.45656,
2929.760,821.06732,
2926.850,821.8453,
2923.939,831.25349,
2921.028,855.6399,
2918.118,884.63571,
2915.207,880.36855,
2912.297,870.38769,
2909.386,867.96624,
2906.476,876.46768,
2903.565,844.56759,
2900.654,875.05647,
2897.744,848.26185,
2894.833,834.01427,
2891.923,840.97121,
2889.012,823.4617,
2886.102,785.1926,
2883.191,738.40238,
2880.280,561.82949,
2877.370,273.70112,
2874.459,137.66517,
2871.549,438.9296,
2868.638,770.4408,
2865.727,817.50959,
2862.817,862.34823,
2859.906,846.54024,
2856.996,870.3433,
2854.085,928.42971,
2851.175,913.65817,
2848.264,922.85082,
2845.353,930.72799,
2842.443,912.95481,
2839.532,928.04666,
2836.622,930.19531,
2833.711,939.32319,
2830.801,946.46838,
2827.890,927.375,
2824.979,967.82072,
2822.069,980.40912,
2819.158,981.85478,
2816.248,983.11053,
2813.337,992.5811,
2810.427,991.15461,
2807.516,998.90016,
2804.605,988.39664,
2801.695,987.84867,
2798.784,980.67069,
2795.874,998.10061,
2792.963,994.4466,
2790.052,974.38015,
2787.142,973.08554,
2784.231,973.66537,
2781.321,966.75216,
2778.410,971.96003,
2775.500,983.62879,
2772.589,971.68386,
2769.678,996.33742,
2766.768,1013.3032,
2763.857,1011.585,
2760.947,1010.8971,
2758.036,1027.0821,
2755.126,1006.7981,
2752.215,1031.4797,
2749.304,1030.7797,
2746.394,1024.879,
2743.483,1032.1751,
2740.573,1000.97,
2737.662,1051.4815,
2734.751,1035.5354,
2731.841,1041.43,
2728.930,1052.3327,
2726.020,1053.9468,
2723.109,1055.736,
2720.199,1064.2782,
2717.288,1076.5648,
2714.377,1081.0878,
2711.467,1085.8827,
2708.556,1106.2899,
2705.646,1103.5299,
2702.735,1103.1868,
2699.825,1099.0042,
2696.914,1100.9936,
2694.003,1096.8888,
2691.093,1109.7504,
2688.182,1101.5187,
2685.272,1105.3309,
2682.361,1123.4689,
2679.450,1135.0828,
2676.540,1120.4563,
2673.629,1125.3705,
2670.719,1131.229,
2667.808,1127.6668,
2664.898,1137.4791,
2661.987,1157.5423,
2659.076,1149.9526,
2656.166,1177.8598,
2653.255,1176.8614,
2650.345,1167.2951,
2647.434,1198.1458,
2644.524,1178.622,
2641.613,1190.8609,
2638.702,1198.2961,
2635.792,1194.6272,
2632.881,1183.7261,
2629.971,1190.9925,
2627.060,1171.5397,
2624.149,1195.1844,
2621.239,1226.168,
2618.328,1184.7989,
2615.418,1198.025,
2612.507,1228.3354,
2609.597,1234.2013,
2606.686,1246.5577,
2603.775,1226.0575,
2600.865,1246.6071,
2597.954,1271.8,
2595.044,1267.6434,
2592.133,1293.3815,
2589.223,1264.7118,
2586.312,1279.5409,
2583.401,1273.3094,
2580.491,1315.8125,
2577.580,1299.3618,
2574.670,1294.6958,
2571.759,1322.643,
2568.848,1323.5572,
2565.938,1299.8987,
2563.027,1315.1068,
2560.117,1319.5526,
2557.206,1301.4857,
2554.296,1339.8899,
2551.385,1337.557,
2548.474,1337.0047,
2545.564,1354.8685,
2542.653,1348.8482,
2539.743,1364.3257,
2536.832,1366.1096,
2533.922,1376.7062,
2531.011,1396.825,
2528.100,1373.5178,
2525.190,1389.1602,
2522.279,1375.5626,
2519.369,1379.375,
2516.458,1383.8226,
2513.548,1373.6206,
2510.637,1420.8217,
2507.726,1412.6873,
2504.816,1415.6253,
2501.905,1410.8823,
2498.995,1426.0764,
2496.084,1416.1624,
2493.173,1403.8224,
2490.263,1433.6892,
2487.352,1461.4183,
2484.442,1474.8376,
2481.531,1457.327,
2478.621,1460.0006,
2475.710,1473.2216,
2472.799,1458.8009,
2469.889,1463.7406,
2466.978,1491.0653,
2464.068,1484.3485,
2461.157,1497.99,
2458.247,1497.228,
2455.336,1494.418,
2452.425,1507.5307,
2449.515,1502.3189,
2446.604,1526.5478,
2443.694,1526.5608,
2440.783,1523.1847,
2437.872,1535.5783,
2434.962,1573.6791,
2432.051,1595.2763,
2429.141,1593.681,
2426.230,1577.3529,
2423.320,1569.6746,
2420.409,1601.7465,
2417.498,1603.8356,
2414.588,1612.2646,
2411.677,1599.128,
2408.767,1629.4931,
2405.856,1640.6132,
2402.946,1596.7852,
2400.035,1619.6403,
2397.124,1626.7119,
2394.214,1630.6726,
2391.303,1630.1596,
2388.393,1612.4447,
2385.482,1586.3444,
2382.571,1546.8814,
2379.661,1570.049,
2376.750,1640.0005,
2373.840,1659.375,
2370.929,1689.0501,
2368.019,1694.9169,
2365.108,1723.5111,
2362.197,1756.7777,
2359.287,1755.5767,
2356.376,1737.4067,
2353.466,1728.4367,
2350.555,1721.8553,
2347.645,1751.7684,
2344.734,1779.7114,
2341.823,1746.0217,
2338.913,1765.1511,
2336.002,1787.095,
2333.092,1810.375,
2330.181,1817.9197,
2327.270,1818.485,
2324.360,1837.6864,
2321.449,1824.5757,
2318.539,1828.268,
2315.628,1844.2983,
2312.718,1838.3596,
2309.807,1859.5552,
2306.896,1851.9024,
2303.986,1858.8944,
2301.075,1850.0559,
2298.165,1879.2987,
2295.254,1866.8274,
2292.344,1875.7983,
2289.433,1868.3827,
2286.522,1874.4821,
2283.612,1903.2169,
2280.701,1930.8189,
2277.791,1949.0525,
2274.880,1928.9308,
2271.969,1977.9511,
2269.059,1969.3831,
2266.148,1986.4752,
2263.238,1966.8885,
2260.327,2023.8229,
2257.417,1995.78,
2254.506,2011.1157,
2251.595,2003.9459,
2248.685,2002.1654,
2245.774,2052.7368,
2242.864,1997.4872,
2239.953,2045.106,
2237.043,2043.465,
2234.132,2042.8944,
2231.221,2072.7188,
2228.311,2088.0734,
2225.400,2090.1498,
2222.490,2091.4729,
2219.579,2151.2054,
2216.669,2156.0348,
2213.758,2179.7764,
2210.847,2174.9091,
2207.937,2191.3163,
2205.026,2223.1525,
2202.116,2233.0459,
2199.205,2259.4614,
2196.294,2303.7309,
2193.384,2321.796,
2190.473,2330.9548,
2187.563,2343.5973,
2184.652,2403.6831,
2181.742,2482.8975,
2178.831,2521.5853,
2175.920,2629.5827,
2173.010,2740.8807,
2170.099,2858.498,
2167.189,3011.4513,
2164.278,3175.6353,
2161.368,3330.367,
2158.457,3566.968,
2155.546,3774.8088,
2152.636,3985.4066,
2149.725,4180.8514,
2146.815,4354.3697,
2143.904,4526.4084,
2140.993,4625.7663,
2138.083,4715.1894,
2135.172,4773.8036,
2132.262,4800.5255,
2129.351,4748.6953,
2126.441,4677.1321,
2123.530,4525.3547,
2120.619,4324.9448,
2117.709,4117.1347,
2114.798,3849.351,
2111.888,3607.5551,
2108.977,3366.408,
2106.067,3214.7788,
2103.156,3022.3265,
2100.245,2884.3223,
2097.335,2787.9719,
2094.424,2688.7584,
2091.514,2611.3208,
2088.603,2529.9187,
2085.692,2513.3677,
2082.782,2487.5999,
2079.871,2459.7309,
2076.961,2484.3085,
2074.050,2464.0962,
2071.140,2417.1223,
2068.229,2410.5456,
2065.318,2407.534,
2062.408,2396.1329,
2059.497,2373.2976,
2056.587,2377.1652,
2053.676,2366.5097,
2050.766,2368.7592,
2047.855,2325.0365,
2044.944,2286.5577,
2042.034,2333.612,
2039.123,2331.6545,
2036.213,2313.1083,
2033.302,2332.244,
2030.391,2344.9856,
2027.481,2336.8628,
2024.570,2346.6462,
2021.660,2392.5959,
2018.749,2390.8934,
2015.839,2355.7963,
2012.928,2373.2139,
2010.017,2378.4011,
2007.107,2368.0012,
2004.196,2371.7322,
2001.286,2385.1665,
1998.375,2367.6742,
1995.465,2340.7098,
1992.554,2332.7456,
1989.643,2329.4787,
1986.733,2318.9838,
1983.822,2296.9141,
1980.912,2306.4537,
1978.001,2291.0782,
1975.090,2301.375,
1972.180,2287.8591,
1969.269,2299.4153,
1966.359,2305.7532,
1963.448,2338.5534,
1960.538,2311.1765,
1957.627,2297.8084,
1954.716,2276.007,
1951.806,2339.9969,
1948.895,2278.6907,
1945.985,2298.107,
1943.074,2279.7662,
1940.164,2258.971,
1937.253,2231.4493,
1934.342,2231.5547,
1931.432,2237.9428,
1928.521,2228.6738,
1925.611,2216.4011,
1922.700,2224.8294,
1919.790,2240.4327,
1916.879,2171.676,
1913.968,2231.2951,
1911.058,2203.1768,
1908.147,2203.2977,
1905.237,2214.4338,
1902.326,2186.0668,
1899.415,2191.7823,
1896.505,2144.001,
1893.594,2135.2532,
1890.684,2215.9958,
1887.773,2243.0386,
1884.863,2219.3978,
1881.952,2253.292,
1879.041,2229.9856,
1876.131,2223.5188,
1873.220,2240.1936,
1870.310,2196.8908,
1867.399,2211.0871,
1864.489,2271.2846,
1861.578,2248.9516,
1858.667,2282.6655,
1855.757,2231.7342,
1852.846,2271.5955,
1849.936,2251.6543,
1847.025,2257.3701,
1844.114,2287.4221,
1841.204,2325.9869,
1838.293,2360.8708,
1835.383,2333.864,
1832.472,2332.5037,
1829.562,2353.4854,
1826.651,2352.2723,
1823.740,2348.1911,
1820.830,2351.2333,
1817.919,2362.9619,
1815.009,2397.0557,
1812.098,2413.1466,
1809.188,2398.4293,
1806.277,2369.0168,
1803.366,2396.741,
1800.456,2419.5841,
1797.545,2441.0204,
1794.635,2446.859,
1791.724,2446.3458,
1788.813,2465.5804,
1785.903,2452.3597,
1782.992,2333.9875,
1780.082,2197.0341,
1777.171,1999.0367,
1774.261,2037.3161,
1771.350,2232.938,
1768.439,2427.6157,
1765.529,2494.1028,
1762.618,2505.5881,
1759.708,2523.5707,
1756.797,2504.4053,
1753.887,2537.9173,
1750.976,2549.9437,
1748.065,2535.9771,
1745.155,2540.0976,
1742.244,2551.2935,
1739.334,2592.295,
1736.423,2598.4834,
1733.512,2629.3019,
1730.602,2692.4921,
1727.691,2707.072,
1724.781,2681.9911,
1721.870,2697.1037,
1718.960,2744.3088,
1716.049,2735.7565,
1713.138,2797.3547,
1710.228,2768.3413,
1707.317,2811.0264,
1704.407,2798.5087,
1701.496,2880.2374,
1698.586,2879.1352,
1695.675,2911.1248,
1692.764,2966.3914,
1689.854,2897.623,
1686.943,2893.4087,
1684.033,3036.7241,
1681.122,3004.9867,
1678.211,3115.3091,
1675.301,3117.3719,
1672.390,3169.5604,
1669.480,3231.9205,
1666.569,3299.7178,
1663.659,3327.2569,
1660.748,3382.3032,
1657.837,3480.9874,
1654.927,3509.6636,
1652.016,3565.5619,
1649.106,3655.2845,
1646.195,3734.1563,
1643.285,3848.3776,
1640.374,3893.0893,
1637.463,3976.4915,
1634.553,4149.3601,
1631.642,4351.1763,
1628.732,4607.7319,
1625.821,4835.566,
1622.911,5125.7295,
1620.000,5417.671,
1617.089,5834.977,
1614.179,6105.7607,
1611.268,6541.8308,
1608.358,6883.4083,
1605.447,7114.3482,
1602.536,7265.2943,
1599.626,7285.4943,
1596.715,7327.2171,
1593.805,7260.7228,
1590.894,7149.3366,
1587.984,7073.8825,
1585.073,7018.4309,
1582.162,6936.0701,
1579.252,6888.643,
1576.341,6837.3165,
1573.431,6732.3941,
1570.520,6767.5252,
1567.610,6650.7651,
1564.699,6622.5007,
1561.788,6522.3338,
1558.878,6455.5266,
1555.967,6317.206,
1553.057,6191.4101,
1550.146,6052.288,
1547.235,5915.5358,
1544.325,5846.5814,
1541.414,5702.3013,
1538.504,5604.1925,
1535.593,5573.0134,
1532.683,5465.438,
1529.772,5342.2133,
1526.861,5279.789,
1523.951,5305.3655,
1521.040,5322.1633,
1518.130,5267.7957,
1515.219,5231.6951,
1512.309,5192.6902,
1509.398,5078.1375,
1506.487,5019.7464,
1503.577,4905.289,
1500.666,4880.9953,
1497.756,4827.3238,
1494.845,4786.9331,
1491.934,4704.2585,
1489.024,4668.6462,
1486.113,4571.8718,
1483.203,4519.9666,
1480.292,4438.8575,
1477.382,4360.7151,
1474.471,4268.6371,
1471.560,4253.3573,
1468.650,4187.3644,
1465.739,4153.4535,
1462.829,4154.1655,
1459.918,4131.0654,
1457.008,4098.1748,
1454.097,4065.5022,
1451.186,4061.5046,
1448.276,4109.0373,
1445.365,4160.1278,
1442.455,4139.8044,
1439.544,4002.5349,
1436.633,4035.7553,
1433.723,4102.5177,
1430.812,4057.4592,
1427.902,4008.9613,
1424.991,4033.6031,
1422.081,4076.5789,
1419.170,4143.4514,
1416.259,4159.0454,
1413.349,4130.9206,
1410.438,4140.9688,
1407.528,4130.7065,
1404.617,4066.9463,
1401.707,4032.5546,
1398.796,4007.0534,
1395.885,3997.2846,
1392.975,4009.9576,
1390.064,3990.7962,
1387.154,4008.7851,
1384.243,3963.3422,
1381.332,4010.4696,
1378.422,4048.4953,
1375.511,4147.7941,
1372.601,4283.0027,
1369.690,4341.5222,
1366.780,4480.0608,
1363.869,4605.9111,
1360.958,4688.5708,
1358.048,4809.4915,
1355.137,4891.1455,
1352.227,4977.663,
1349.316,5106.535,
1346.406,5198.962,
1343.495,5267.3193,
1340.584,5338.4091,
1337.674,5454.5591,
1334.763,5544.2444,
1331.853,5672.2023,
1328.942,5672.9277,
1326.032,5791.4556,
1323.121,5875.4293,
1320.210,5991.2676,
1317.300,6063.5745,
1314.389,6204.2246,
1311.479,6362.8795,
1308.568,6471.6904,
1305.657,6637.8048,
1302.747,6843.9386,
1299.836,7004.3851,
1296.926,7210.2716,
1294.015,7337.1383,
1291.105,7612.7013,
1288.194,7883.4067,
1285.283,8086.2916,
1282.373,8238.2965,
1279.462,8422.3921,
1276.552,8592.4855,
1273.641,8695.2251,
1270.731,8755.9004,
1267.820,8774.4565,
1264.909,8725.4853,
1261.999,8752.6787,
1259.088,8678.7969,
1256.178,8593.0116,
1253.267,8381.4386,
1250.356,8136.4847,
1247.446,7863.556,
1244.535,7590.1656,
1241.625,7295.8125,
1238.714,7009.1208,
1235.804,6800.3026,
1232.893,6571.8958,
1229.982,6470.8129,
1227.072,6277.0761,
1224.161,6154.95,
1221.251,6058.4351,
1218.340,5952.0463,
1215.430,5830.199,
1212.519,5783.1271,
1209.608,5771.1268,
1206.698,5714.4176,
1203.787,5712.586,
1200.877,5679.1232,
1197.966,5820.2912,
1195.055,5997.1715,
1192.145,6127.055,
1189.234,6273.2649,
1186.324,6438.5668,
1183.413,6525.375,
1180.503,6525.7123,
1177.592,6508.2534,
1174.681,6444.1935,
1171.771,6413.8296,
1168.860,6346.8479,
1165.950,6316.1863,
1163.039,6357.8664,
1160.129,6363.0388,
1157.218,6324.4923,
1154.307,6244.6576,
1151.397,6141.8668,
1148.486,6099.2655,
1145.576,6151.1348,
1142.665,6053.4643,
1139.754,5997.3709,
1136.844,5991.2771,
1133.933,5941.176,
1131.023,5897.2936,
1128.112,5870.0921,
1125.202,5833.4426,
1122.291,5831.2605,
1119.380,5858.349,
1116.470,5855.7014,
1113.559,5868.5202,
1110.649,5825.881,
1107.738,5756.3663,
1104.828,5710.7174,
1101.917,5717.9438,
1099.006,5747.7361,
1096.096,5702.0525,
1093.185,5696.7845,
1090.275,5738.4571,
1087.364,5805.3232,
1084.453,5862.873,
1081.543,5939.5233,
1078.632,6020.4777,
1075.722,6052.6914,
1072.811,6054.6519,
1069.901,6002.2562,
1066.990,5970.8917,
1064.079,5946.0011,
1061.169,5948.421,
1058.258,5922.2257,
1055.348,5885.5454,
1052.437,5919.5905,
1049.527,5957.8519,
1046.616,5996.0804,
1043.705,6036.601,
1040.795,6048.652,
1037.884,6057.4668,
1034.974,6077.2925,
1032.063,6097.8519,
1029.153,6105.6067,
1026.242,6157.5041,
1023.331,6188.5398,
1020.421,6188.1011,
1017.510,6257.6506,
1014.600,6342.2884,
1011.689,6390.9226,
1008.778,6421.0403,
1005.868,6444.3828,
1002.957,6668.0749,
1000.047,6906.9431,
997.136,7194.8123,
994.226,7366.5746,
991.315,7383.1968,
988.404,7340.1347,
985.494,7260.7996,
982.583,7235.1029,
979.673,7261.3725,
976.762,7257.6974,
973.852,7274.3376,
970.941,7312.5243,
968.030,7320.7218,
965.120,7311.5468,
962.209,7352.4689,
959.299,7359.375,
956.388,7350.4156,
953.477,7371.3249,
950.567,7391.2454,
947.656,7346.7416,
944.746,7441.0423,
941.835,7414.6021,
938.925,7397.5042,
936.014,7397.4333,
933.103,7382.6017,
930.193,7334.7891,
927.282,7284.2046,
924.372,7207.2544,
921.461,7104.5886,
918.551,6956.3502,
915.640,6838.9546,
912.729,6757.757,
909.819,6657.4811,
906.908,6612.8326,
903.998,6608.7843,
901.087,6645.2924,
898.176,6695.4839,
895.266,6748.3233,
892.355,6810.6516,
889.445,6902.971,
886.534,6948.4581,
883.624,7031.3865,
880.713,7096.4653,
877.802,7077.1297,
874.892,6924.5802,
871.981,6635.1015,
869.071,6369.4402,
866.160,6489.6553,
863.250,6735.2651,
860.339,6917.2231,
857.428,6958.8705,
854.518,6926.6329,
851.607,6762.7152,
848.697,6537.6593,
845.786,6441.6284,
842.875,6521.3639,
839.965,6723.9442,
837.054,6918.2354,
834.144,6905.8042,
831.233,6911.3744,
828.323,6872.8418,
825.412,6814.2427,
822.501,6766.4384,
819.591,6678.0137,
816.680,6591.2402,
813.770,6449.46,
810.859,6318.7137,
807.949,6250.4067,
805.038,6252.9989,
802.127,6208.55,
799.217,6139.526,
796.306,6145.7536,
793.396,6130.3899,
790.485,6084.3781,
787.574,6132.2085,
784.664,6206.8387,
781.753,6268.6858,
778.843,6346.2841,
775.932,6393.1159,
773.022,6379.7293,
770.111,6427.1488,
767.200,6391.5481,
764.290,6301.9394,
761.379,6228.8326,
758.469,6209.0252,
755.558,6228.3327,
752.648,6159.906,
749.737,6099.3742,
746.826,6071.5777,
743.916,6037.1018,
741.005,5936.7501,
738.095,5763.0085,
735.184,5598.648,
732.274,5528.2276,
729.363,5628.3397,
726.452,5871.7402,
723.542,5995.5773,
720.631,6132.3466,
717.721,6212.4742,
714.810,6257.9829,
711.899,6272.6522,
708.989,6226.6575,
706.078,6286.4727,
703.168,6266.1562,
700.257,6212.4321,
697.347,6168.1576,
694.436,6168.1606,
691.525,6197.0976,
688.615,6148.0308,
685.704,6152.5006,
682.794,6205.5877,
679.883,6220.8528,
676.973,6253.709,
674.062,6268.6701,
671.151,6271.1833,
668.241,6252.6506,
665.330,6201.3918,
662.420,6180.6248,
659.509,6190.9784,
656.598,6218.8487,
653.688,6273.8205,
650.777,6372.78,
647.867,6384.725,
644.956,6324.8408,
642.046,6206.3576,
639.135,6098.196,
636.224,6116.4068,
633.314,6122.7583,
630.403,6146.841,
627.493,6162.7591,
624.582,6162.3156,
621.672,6157.5636,
618.761,6136.8566,
615.850,6164.5362,
612.940,6206.7195,
610.029,6224.7739,
607.119,6167.1308,
604.208,6145.7547,
601.297,6179.2564,
598.387,6214.7889,
595.476,6201.5923,
592.566,6182.7027,
589.655,6120.417,
586.745,6088.375,
583.834,6081.3483,
580.923,6056.0907,
578.013,6009.0066,
575.102,6083.5604,
572.192,6128.7244,
569.281,6100.6862,
566.371,6141.3826,
563.460,6149.6078,
560.549,6165.9934,
557.639,6178.4208,
554.728,6175.8441,
551.818,6262.4592,
548.907,6312.4551,
545.996,6356.48,
543.086,6391.3553,
540.175,6377.3396,
537.265,6393.7577,
534.354,6404.3885,
531.444,6422.3079,
528.533,6462.1274,
525.622,6514.8918,
522.712,6580.376,
519.801,6637.9059,
516.891,6680.3222,
513.980,6709.7454,
511.070,6807.4619,
508.159,6901.8176,
505.248,7000.9323,
502.338,7124.2097,
499.427,7289.3817,
496.517,7376.3649,
493.606,7433.9389,
490.695,7494.1433,
487.785,7578.8203,
484.874,7545.2007,
481.964,7530.5875,
479.053,7539.94,
476.143,7513.0613,
473.232,7501.3033,
470.321,7485.2106,
467.411,7471.362,
464.500,7470.004,
461.590,7534.3262,
458.679,7659.6825,
455.769,7771.95,
452.858,7827.9201,
449.947,7852.3659,
447.037,7922.2984,
444.126,7995.7992,
441.216,8064.1913,
438.305,8149.5276,
435.395,8137.1164,
432.484,8162.2994,
429.573,8198.3348,
426.663,8125.3613,
423.752,7732.3074,
420.842,7237.8445,
417.931,6881.9108,
415.020,6996.4229,
412.110,7800.7598,
409.199,8326.1596,
406.289,8529.2643,
403.378,8408.9703,
400.468,8289.5232,
397.557,8361.403,
394.646,8531.0953,
391.736,8709.5199,
388.825,8714.0453,
385.915,8733.4696,
383.004,8761.0823,
380.094,8796.0566,
377.183,8907.4231,
374.272,8992.1103,
371.362,9063.5701,
368.451,9126.5118,
365.541,9128.7634,
362.630,9132.6524,
359.719,9153.725,
356.809,9201.7247,
353.898,9273.6093,
350.988,9234.7864,
348.077,9203.3803,
345.167,9245.1045,
342.256,9200.2804,
339.345,9216.6038,
336.435,9252.9235,
333.524,9280.6803,
330.614,9290.3674,
327.703,9346.7691,
324.793,9399.1795,
321.882,9404.5859,
318.971,9491.5687,
316.061,9592.6689,
313.150,9679.6154,
310.240,9718.9476,
307.329,9851.8682,
304.418,9871.5464,
301.508,9820.5596,
298.597,9776.1346,
295.687,9807.5915,
292.776,9847.2918,
289.866,9892.9201,
286.955,9957.1892,
284.044,10094.14,
281.134,10202.441,
278.223,10274.602,
275.313,10371.867,
272.402,10444.075,
269.492,10439.55,
266.581,10348.429,
263.670,10335.196,
260.760,10456.225,
257.849,10615.028,
254.939,10742.724,
252.028,10764.643,
249.117,10805.267,
246.207,10869.756,
243.296,10967.849,
240.386,11026.696,
237.475,11066.974,
234.565,11087.614,
231.654,11070.085,
228.743,11014.592,
225.833,11029.122,
222.922,11149.579,
220.012,11153.95,
217.101,11156.356,
214.191,11172.019,
211.280,11220.759,
208.369,11258.016,
205.459,11301.125,
202.548,11319.94,
199.638,11195.854,
196.727,11240.673,
193.816,11271.905,
190.906,11227.956,
187.995,11330.043,
185.085,11377.669,
182.174,11417.232,
179.264,11512.637,
176.353,11456.734,
173.442,11462.882,
170.532,11534.503,
167.621,11492.686,
164.711,11269.571,
161.800,10921.577,
158.890,10462.391,
155.979,9923.4176,
153.068,9204.2758,
150.158,8319.5592,
147.247,7297.9131,
144.337,6083.3534,
141.426,4828.17,
138.516,3596.5508,
135.605,2587.7159,
132.694,1759.0694,
129.784,1124.035,
126.873,783.6332,
123.963,531.70349,
121.052,351.16491,
118.141,244.79351,
115.231,202.45135,
112.320,163.76957,
109.410,130.55705,
106.499,110.61671,
103.589,103.01347,
100.678,97.387161,
97.767,89.566848,
94.857,81.059131,
91.946,73.747002,
89.036,67.471817,
86.125,61.798175,
83.215,52.942115,
80.304,46.853865,
77.393,48.270205,
74.483,49.68527,
71.572,47.476183,
68.662,42.444267,
65.751,43.150719,
62.840,40.96649,
59.930,37.438569,
57.019,33.913159,
54.109,32.180678,
51.198,31.375,
48.288,31.369338,
45.377,30.665959,
42.466,27.077245,
39.556,22.375,
36.645,22.375,
33.735,21.336503,
30.824,20.154113,
27.914,19.452938,
25.003,21.242912,
22.092,21.406286,
19.182,18.940226,
16.271,5.6499131,
13.361,-53.150163,
10.450,-174.46052,
7.539,-452.39004,
4.629,-716.69789,
1.718,-860.48992,
-1.192,-742.67249,
-4.103,-494.27992,
-7.013,-240.56142,
-9.924,-4.625,
