,PL93DE~1,
Raman shift [1/cm],Intensity,
3014.167,3.75,
3011.256,-1.5999678,
3008.346,158.5759,
3005.435,180.90548,
3002.525,181.61745,
2999.614,186.07729,
2996.704,196.06856,
2993.793,210.77765,
2990.882,209.52089,
2987.972,203.81558,
2985.061,217.19335,
2982.151,220.39202,
2979.240,234.81463,
2976.329,241.99317,
2973.419,246.22676,
2970.508,255.83332,
2967.598,278.79418,
2964.687,268.82405,
2961.777,280.56198,
2958.866,274.74703,
2955.955,272.67921,
2953.045,286.40101,
2950.134,319.82586,
2947.224,338.43684,
2944.313,324.60399,
2941.403,323.35721,
2938.492,356.62264,
2935.581,346.14267,
2932.671,355.58688,
2929.760,347.23463,
2926.850,351.85451,
2923.939,358.30605,
2921.028,376.37358,
2918.118,379.45151,
2915.207,401.75645,
2912.297,383.85578,
2909.386,388.53832,
2906.476,386.16854,
2903.565,385.37889,
2900.654,388.36173,
2897.744,404.53627,
2894.833,388.57473,
2891.923,379.2083,
2889.012,380.03902,
2886.102,380.29325,
2883.191,362.76133,
2880.280,352.15669,
2877.370,329.47095,
2874.459,311.45442,
2871.549,349.26358,
2868.638,404.38915,
2865.727,395.2731,
2862.817,410.25132,
2859.906,413.78705,
2856.996,408.66848,
2854.085,415.3067,
2851.175,401.96386,
2848.264,410.66683,
2845.353,396.24604,
2842.443,410.76393,
2839.532,401.07834,
2836.622,394.29492,
2833.711,393.32771,
2830.801,385.75735,
2827.890,386.31118,
2824.979,393.23191,
2822.069,397.77274,
2819.158,389.10848,
2816.248,380.71526,
2813.337,413.06952,
2810.427,396.7569,
2807.516,382.22484,
2804.605,384.22357,
2801.695,393.22367,
2798.784,417.53231,
2795.874,411.04024,
2792.963,403.53564,
2790.052,395.75129,
2787.142,399.57881,
2784.231,380.49224,
2781.321,395.86419,
2778.410,379.78424,
2775.500,389.09138,
2772.589,397.9419,
2769.678,401.96155,
2766.768,421.86652,
2763.857,406.64403,
2760.947,393.70587,
2758.036,396.91567,
2755.126,408.32051,
2752.215,413.94095,
2749.304,417.6223,
2746.394,414.50198,
2743.483,413.20005,
2740.573,404.63717,
2737.662,414.66419,
2734.751,432.86649,
2731.841,404.31592,
2728.930,423.87285,
2726.020,434.97975,
2723.109,438.97683,
2720.199,430.65323,
2717.288,416.83759,
2714.377,444.74542,
2711.467,442.04452,
2708.556,454.71842,
2705.646,442.75,
2702.735,436.59279,
2699.825,443.79363,
2696.914,430.41635,
2694.003,456.08009,
2691.093,447.4287,
2688.182,453.80482,
2685.272,446.34317,
2682.361,461.59716,
2679.450,458.16563,
2676.540,446.01421,
2673.629,457.75449,
2670.719,458.96165,
2667.808,452.18772,
2664.898,456.71109,
2661.987,453.75,
2659.076,458.11422,
2656.166,471.57251,
2653.255,476.04422,
2650.345,485.67015,
2647.434,478.35017,
2644.524,486.68046,
2641.613,495.92159,
2638.702,473.16031,
2635.792,468.62239,
2632.881,485.86314,
2629.971,482.87751,
2627.060,494.08437,
2624.149,484.83125,
2621.239,486.75593,
2618.328,482.49568,
2615.418,484.05001,
2612.507,498.12945,
2609.597,501.38273,
2606.686,486.55522,
2603.775,487.19048,
2600.865,488.75,
2597.954,513.36669,
2595.044,502.44619,
2592.133,503.08765,
2589.223,519.34054,
2586.312,527.1621,
2583.401,517.38141,
2580.491,521.66828,
2577.580,502.79126,
2574.670,524.70589,
2571.759,519.50257,
2568.848,537.39096,
2565.938,527.51185,
2563.027,530.72503,
2560.117,525.02103,
2557.206,528.46218,
2554.296,553.60812,
2551.385,543.29586,
2548.474,528.26859,
2545.564,545.24351,
2542.653,530.99161,
2539.743,550.6391,
2536.832,540.11635,
2533.922,561.71846,
2531.011,560.84991,
2528.100,560.01828,
2525.190,564.65574,
2522.279,558.03139,
2519.369,562.84439,
2516.458,561.8619,
2513.548,562.75,
2510.637,570.68852,
2507.726,565.69051,
2504.816,564.06342,
2501.905,575.4311,
2498.995,564.57084,
2496.084,566.65595,
2493.173,566.69702,
2490.263,572.10934,
2487.352,584.1256,
2484.442,587.90847,
2481.531,588.91476,
2478.621,582.32339,
2475.710,600.69633,
2472.799,588.81732,
2469.889,585.86914,
2466.978,603.8015,
2464.068,597.13092,
2461.157,591.05994,
2458.247,602.02943,
2455.336,597.81457,
2452.425,578.70281,
2449.515,611.62734,
2446.604,608.28228,
2443.694,615.95974,
2440.783,611.79504,
2437.872,616.89586,
2434.962,618.64862,
2432.051,619.08962,
2429.141,630.02053,
2426.230,660.72907,
2423.320,647.60755,
2420.409,632.26279,
2417.498,628.76685,
2414.588,654.17953,
2411.677,650.14444,
2408.767,655.43799,
2405.856,654.2904,
2402.946,650.21381,
2400.035,639.85094,
2397.124,653.66977,
2394.214,672.8572,
2391.303,672.78862,
2388.393,658.10111,
2385.482,657.44157,
2382.571,673.75,
2379.661,687.14511,
2376.750,694.70083,
2373.840,691.59371,
2370.929,670.00991,
2368.019,692.40087,
2365.108,679.63482,
2362.197,680.69526,
2359.287,691.14499,
2356.376,706.72358,
2353.466,707.63022,
2350.555,698.20541,
2347.645,710.42153,
2344.734,708.32604,
2341.823,733.33542,
2338.913,720.47987,
2336.002,731.44623,
2333.092,717.37075,
2330.181,736.62974,
2327.270,711.62018,
2324.360,717.95989,
2321.449,727.36565,
2318.539,721.04662,
2315.628,756.3863,
2312.718,757.20153,
2309.807,756.15988,
2306.896,759.73435,
2303.986,750.26945,
2301.075,739.57981,
2298.165,760.49085,
2295.254,759.9008,
2292.344,740.48861,
2289.433,744.16319,
2286.522,752.94206,
2283.612,767.97198,
2280.701,774.55719,
2277.791,785.9485,
2274.880,769.10396,
2271.969,780.45782,
2269.059,786.42575,
2266.148,800.88189,
2263.238,803.95077,
2260.327,809.71538,
2257.417,798.12222,
2254.506,816.67312,
2251.595,827.61185,
2248.685,803.127,
2245.774,839.90308,
2242.864,817.95446,
2239.953,848.15693,
2237.043,841.97072,
2234.132,843.50323,
2231.221,814.4837,
2228.311,838.28346,
2225.400,853.65065,
2222.490,882.70761,
2219.579,871.69858,
2216.669,883.67369,
2213.758,887.35652,
2210.847,876.71978,
2207.937,928.51052,
2205.026,942.97216,
2202.116,950.78077,
2199.205,966.92506,
2196.294,971.36998,
2193.384,988.53902,
2190.473,1017.7735,
2187.563,1011.9917,
2184.652,1064.1598,
2181.742,1079.8184,
2178.831,1122.5634,
2175.920,1167.2527,
2173.010,1191.5771,
2170.099,1240.7456,
2167.189,1284.1016,
2164.278,1338.9128,
2161.368,1391.8908,
2158.457,1458.8967,
2155.546,1509.6885,
2152.636,1560.6807,
2149.725,1617.5285,
2146.815,1637.3496,
2143.904,1659.9619,
2140.993,1697.1308,
2138.083,1728.0327,
2135.172,1731.7668,
2132.262,1732.2535,
2129.351,1712.605,
2126.441,1679.2451,
2123.530,1623.6725,
2120.619,1521.5943,
2117.709,1457.5008,
2114.798,1376.5574,
2111.888,1300.439,
2108.977,1248.4056,
2106.067,1177.5965,
2103.156,1153.471,
2100.245,1087.7506,
2097.335,1082.9699,
2094.424,1031.4154,
2091.514,997.81717,
2088.603,999.7684,
2085.692,1024.5269,
2082.782,976.79052,
2079.871,985.6088,
2076.961,977.78325,
2074.050,989.21667,
2071.140,977.94547,
2068.229,972.9336,
2065.318,978.02226,
2062.408,975.46938,
2059.497,962.55357,
2056.587,963.04071,
2053.676,961.93338,
2050.766,947.90471,
2047.855,930.20567,
2044.944,949.47435,
2042.034,965.45509,
2039.123,945.21128,
2036.213,944.9255,
2033.302,941.24981,
2030.391,940.15709,
2027.481,959.04245,
2024.570,938.25078,
2021.660,943.09958,
2018.749,952.5478,
2015.839,967.77296,
2012.928,945.8641,
2010.017,981.37324,
2007.107,973.02661,
2004.196,945.99996,
2001.286,948.43902,
1998.375,956.75,
1995.465,961.46964,
1992.554,924.18563,
1989.643,940.95503,
1986.733,918.80351,
1983.822,924.82829,
1980.912,948.23454,
1978.001,912.08951,
1975.090,900.30574,
1972.180,917.75,
1969.269,934.16672,
1966.359,918.20909,
1963.448,906.40258,
1960.538,944.26794,
1957.627,926.00075,
1954.716,924.69255,
1951.806,907.34614,
1948.895,920.91798,
1945.985,926.96732,
1943.074,898.63921,
1940.164,909.1249,
1937.253,914.0932,
1934.342,907.54466,
1931.432,884.90457,
1928.521,892.89335,
1925.611,906.8408,
1922.700,885.42404,
1919.790,889.94641,
1916.879,861.98198,
1913.968,862.74631,
1911.058,892.20346,
1908.147,907.03754,
1905.237,874.71327,
1902.326,902.9248,
1899.415,908.36339,
1896.505,870.79215,
1893.594,877.74394,
1890.684,884.58664,
1887.773,894.76686,
1884.863,905.75,
1881.952,906.44749,
1879.041,913.55841,
1876.131,883.17485,
1873.220,874.00663,
1870.310,895.09974,
1867.399,895.76599,
1864.489,868.32162,
1861.578,862.23317,
1858.667,906.48353,
1855.757,910.55072,
1852.846,907.48847,
1849.936,907.40064,
1847.025,918.51643,
1844.114,913.16413,
1841.204,921.71154,
1838.293,925.75333,
1835.383,922.1105,
1832.472,918.97087,
1829.562,934.35886,
1826.651,940.33111,
1823.740,938.02203,
1820.830,967.84475,
1817.919,961.27685,
1815.009,937.20039,
1812.098,963.37203,
1809.188,950.8043,
1806.277,967.35163,
1803.366,1002.018,
1800.456,959.57436,
1797.545,971.53735,
1794.635,951.42703,
1791.724,973.31296,
1788.813,1015.7359,
1785.903,976.2054,
1782.992,985.38486,
1780.082,974.66641,
1777.171,969.40898,
1774.261,961.92043,
1771.350,1005.4778,
1768.439,1006.8126,
1765.529,1019.3001,
1762.618,1062.7607,
1759.708,1059.3585,
1756.797,1027.7652,
1753.887,1032.6742,
1750.976,1014.498,
1748.065,1013.0265,
1745.155,1011.6985,
1742.244,1016.9927,
1739.334,1060.0394,
1736.423,1066.1519,
1733.512,1045.7418,
1730.602,1076.4028,
1727.691,1069.5585,
1724.781,1089.707,
1721.870,1108.0167,
1718.960,1091.0164,
1716.049,1097.6567,
1713.138,1100.605,
1710.228,1105.9718,
1707.317,1127.9797,
1704.407,1115.4772,
1701.496,1118.3077,
1698.586,1143.6976,
1695.675,1140.1357,
1692.764,1167.2049,
1689.854,1213.7146,
1686.943,1212.8512,
1684.033,1228.3526,
1681.122,1202.2088,
1678.211,1284.9505,
1675.301,1297.713,
1672.390,1296.8278,
1669.480,1323.0388,
1666.569,1359.1944,
1663.659,1394.24,
1660.748,1423.1523,
1657.837,1394.5652,
1654.927,1476.8277,
1652.016,1521.7257,
1649.106,1522.2923,
1646.195,1584.1576,
1643.285,1601.7298,
1640.374,1644.3772,
1637.463,1674.2184,
1634.553,1701.0357,
1631.642,1787.6621,
1628.732,1871.1529,
1625.821,1938.8036,
1622.911,2020.2879,
1620.000,2099.7421,
1617.089,2276.1878,
1614.179,2434.266,
1611.268,2552.363,
1608.358,2668.2717,
1605.447,2771.8079,
1602.536,2778.6819,
1599.626,2844.9852,
1596.715,2840.7664,
1593.805,2811.1314,
1590.894,2764.5972,
1587.984,2770.8753,
1585.073,2719.9994,
1582.162,2725.7779,
1579.252,2686.1983,
1576.341,2647.9117,
1573.431,2683.8246,
1570.520,2646.0655,
1567.610,2618.8282,
1564.699,2578.4985,
1561.788,2545.7361,
1558.878,2483.1289,
1555.967,2434.6267,
1553.057,2383.1987,
1550.146,2325.721,
1547.235,2288.9918,
1544.325,2238.5972,
1541.414,2218.0111,
1538.504,2220.0706,
1535.593,2212.7762,
1532.683,2183.727,
1529.772,2148.5938,
1526.861,2105.1148,
1523.951,2064.5042,
1521.040,2073.77,
1518.130,2018.4024,
1515.219,1990.7505,
1512.309,1979.1915,
1509.398,1992.0904,
1506.487,1964.1281,
1503.577,1952.0116,
1500.666,1972.7207,
1497.756,1935.2578,
1494.845,1870.1508,
1491.934,1903.5768,
1489.024,1850.6397,
1486.113,1825.5696,
1483.203,1795.3286,
1480.292,1797.6896,
1477.382,1721.1582,
1474.471,1705.0521,
1471.560,1699.9447,
1468.650,1704.5827,
1465.739,1644.3415,
1462.829,1649.9304,
1459.918,1668.9101,
1457.008,1677.9964,
1454.097,1687.7419,
1451.186,1672.8486,
1448.276,1664.3328,
1445.365,1660.7129,
1442.455,1661.2425,
1439.544,1701.4684,
1436.633,1669.7877,
1433.723,1620.756,
1430.812,1602.317,
1427.902,1547.8775,
1424.991,1595.2656,
1422.081,1553.6286,
1419.170,1550.6141,
1416.259,1585.5827,
1413.349,1557.4984,
1410.438,1561.8449,
1407.528,1569.3937,
1404.617,1563.8787,
1401.707,1553.9207,
1398.796,1535.5333,
1395.885,1517.0295,
1392.975,1530.5216,
1390.064,1545.0313,
1387.154,1484.8987,
1384.243,1439.1286,
1381.332,1420.6433,
1378.422,1416.8703,
1375.511,1516.1691,
1372.601,1636.6326,
1369.690,1738.4728,
1366.780,1809.9845,
1363.869,1795.6909,
1360.958,1829.6447,
1358.048,1862.8363,
1355.137,1907.5993,
1352.227,1942.2075,
1349.316,1980.8552,
1346.406,2044.5817,
1343.495,2073.1786,
1340.584,2137.0713,
1337.674,2152.038,
1334.763,2189.5143,
1331.853,2235.8758,
1328.942,2256.4287,
1326.032,2282.403,
1323.121,2341.0994,
1320.210,2397.7075,
1317.300,2390.1896,
1314.389,2435.9874,
1311.479,2452.1872,
1308.568,2432.1059,
1305.657,2523.1933,
1302.747,2576.0449,
1299.836,2553.2293,
1296.926,2666.8692,
1294.015,2733.9798,
1291.105,2804.5517,
1288.194,2910.3979,
1285.283,2979.8582,
1282.373,3046.4764,
1279.462,3100.5534,
1276.552,3118.0334,
1273.641,3119.0645,
1270.731,3128.6321,
1267.820,3140.0983,
1264.909,3161.4848,
1261.999,3058.8818,
1259.088,3089.8939,
1256.178,3056.6353,
1253.267,3062.2579,
1250.356,2990.5748,
1247.446,2907.8118,
1244.535,2839.5671,
1241.625,2790.0241,
1238.714,2734.5661,
1235.804,2651.5073,
1232.893,2627.0089,
1229.982,2584.5422,
1227.072,2519.3597,
1224.161,2534.0816,
1221.251,2456.5985,
1218.340,2357.4907,
1215.430,2318.75,
1212.519,2309.2421,
1209.608,2284.2837,
1206.698,2272.7716,
1203.787,2318.2274,
1200.877,2360.756,
1197.966,2393.1257,
1195.055,2444.2384,
1192.145,2492.5712,
1189.234,2546.6239,
1186.324,2627.1192,
1183.413,2667.3591,
1180.503,2667.2049,
1177.592,2680.0832,
1174.681,2650.0617,
1171.771,2615.0095,
1168.860,2496.2286,
1165.950,2526.6771,
1163.039,2480.8778,
1160.129,2430.2065,
1157.218,2409.3463,
1154.307,2388.1987,
1151.397,2365.3524,
1148.486,2390.9489,
1145.576,2396.2081,
1142.665,2360.6916,
1139.754,2305.6778,
1136.844,2283.2455,
1133.933,2262.3278,
1131.023,2251.6942,
1128.112,2255.6067,
1125.202,2254.2283,
1122.291,2240.6436,
1119.380,2288.5768,
1116.470,2270.9262,
1113.559,2278.8022,
1110.649,2268.6531,
1107.738,2288.5409,
1104.828,2291.3611,
1101.917,2268.9633,
1099.006,2290.0591,
1096.096,2317.5461,
1093.185,2281.548,
1090.275,2286.8427,
1087.364,2257.1883,
1084.453,2259.6239,
1081.543,2290.7171,
1078.632,2312.4964,
1075.722,2312.5709,
1072.811,2322.6402,
1069.901,2292.9494,
1066.990,2305.3,
1064.079,2339.3731,
1061.169,2363.6914,
1058.258,2386.9955,
1055.348,2418.6265,
1052.437,2431.4669,
1049.527,2365.4283,
1046.616,2408.8698,
1043.705,2454.6005,
1040.795,2443.7638,
1037.884,2465.1402,
1034.974,2495.0258,
1032.063,2485.1732,
1029.153,2476.3466,
1026.242,2497.9705,
1023.331,2487.9174,
1020.421,2490.6297,
1017.510,2509.5583,
1014.600,2539.2443,
1011.689,2573.723,
1008.778,2614.8924,
1005.868,2680.1747,
1002.957,2727.4942,
1000.047,2849.774,
997.136,2952.6572,
994.226,2983.5963,
991.315,2951.7871,
988.404,2899.0766,
985.494,2837.8102,
982.583,2795.8389,
979.673,2775.8487,
976.762,2760.7693,
973.852,2739.1637,
970.941,2731.4197,
968.030,2753.5939,
965.120,2735.6677,
962.209,2716.0592,
959.299,2765.8687,
956.388,2781.5904,
953.477,2766.8853,
950.567,2760.3313,
947.656,2786.3178,
944.746,2821.1496,
941.835,2796.0262,
938.925,2780.5373,
936.014,2801.5471,
933.103,2828.8686,
930.193,2810.3772,
927.282,2721.4374,
924.372,2734.1215,
921.461,2709.976,
918.551,2679.8364,
915.640,2651.5767,
912.729,2623.8208,
909.819,2593.3027,
906.908,2567.1875,
903.998,2591.2017,
901.087,2635.3039,
898.176,2663.4307,
895.266,2688.2069,
892.355,2729.3624,
889.445,2748.6655,
886.534,2748.75,
883.624,2795.8482,
880.713,2814.1568,
877.802,2809.4026,
874.892,2794.5938,
871.981,2731.5724,
869.071,2724.0537,
866.160,2744.1387,
863.250,2773.6697,
860.339,2787.4543,
857.428,2781.4718,
854.518,2786.3188,
851.607,2702.2798,
848.697,2688.4378,
845.786,2683.0414,
842.875,2702.9175,
839.965,2755.4977,
837.054,2781.1453,
834.144,2727.2764,
831.233,2727.4159,
828.323,2725.3314,
825.412,2705.1934,
822.501,2682.7714,
819.591,2705.0842,
816.680,2624.0191,
813.770,2608.1355,
810.859,2580.9681,
807.949,2548.8842,
805.038,2560.5465,
802.127,2567.1315,
799.217,2564.7684,
796.306,2517.7767,
793.396,2503.3838,
790.485,2536.8029,
787.574,2540.4075,
784.664,2531.3863,
781.753,2546.5246,
778.843,2550.3393,
775.932,2531.8613,
773.022,2509.3722,
770.111,2564.9676,
767.200,2555.8077,
764.290,2543.0818,
761.379,2544.2335,
758.469,2545.9145,
755.558,2508.0206,
752.648,2483.5825,
749.737,2484.6251,
746.826,2433.6684,
743.916,2341.5937,
741.005,2242.7496,
738.095,2056.8298,
735.184,1875.2917,
732.274,1867.4951,
729.363,2001.1352,
726.452,2200.1017,
723.542,2390.3092,
720.631,2414.5117,
717.721,2441.091,
714.810,2453.5625,
711.899,2457.4728,
708.989,2503.4675,
706.078,2490.9292,
703.168,2473.1767,
700.257,2462.5123,
697.347,2445.3168,
694.436,2390.7102,
691.525,2426.0776,
688.615,2440.0391,
685.704,2435.9795,
682.794,2426.6862,
679.883,2429.1373,
676.973,2415.514,
674.062,2418.4927,
671.151,2445.8582,
668.241,2474.844,
665.330,2467.1995,
662.420,2434.4515,
659.509,2402.3528,
656.598,2413.2822,
653.688,2453.4212,
650.777,2475.588,
647.867,2470.81,
644.956,2511.8522,
642.046,2492.9734,
639.135,2431.4269,
636.224,2437.8694,
633.314,2461.6875,
630.403,2496.7193,
627.493,2504.8437,
624.582,2491.4003,
621.672,2516.7441,
618.761,2513.9503,
615.850,2541.9524,
612.940,2578.3868,
610.029,2598.0152,
607.119,2569.5885,
604.208,2559.6499,
601.297,2546.2811,
598.387,2544.6356,
595.476,2562.0704,
592.566,2512.4851,
589.655,2547.1586,
586.745,2555.5611,
583.834,2516.207,
580.923,2446.6221,
578.013,2425.4342,
575.102,2436.9576,
572.192,2470.1152,
569.281,2505.9064,
566.371,2501.2107,
563.460,2528.9687,
560.549,2540.2627,
557.639,2542.7042,
554.728,2552.1296,
551.818,2573.9784,
548.907,2622.6277,
545.996,2644.5294,
543.086,2631.7303,
540.175,2617.7146,
537.265,2625.4414,
534.354,2626.7432,
531.444,2638.4042,
528.533,2674.0259,
525.622,2677.9056,
522.712,2668.4352,
519.801,2690.7729,
516.891,2738.5325,
513.980,2742.404,
511.070,2780.0804,
508.159,2814.8527,
505.248,2845.5141,
502.338,2875.4729,
499.427,2900.1716,
496.517,2937.2954,
493.606,2958.0581,
490.695,2954.4618,
487.785,2966.7784,
484.874,2999.7687,
481.964,3030.8695,
479.053,3030.8933,
476.143,2947.9534,
473.232,2948.5052,
470.321,2959.995,
467.411,2960.1261,
464.500,2932.0991,
461.590,2945.8824,
458.679,2966.8091,
455.769,2969.4077,
452.858,2945.0681,
449.947,2948.1239,
447.037,2990.6165,
444.126,3012.2045,
441.216,3002.3531,
438.305,3000.0673,
435.395,2989.9155,
432.484,2979.3322,
429.573,2976.7201,
426.663,2998.004,
423.752,2949.5358,
420.842,2902.6323,
417.931,2872.5345,
415.020,2871.7762,
412.110,2966.8597,
409.199,3038.9138,
406.289,3081.6857,
403.378,3093.6347,
400.468,3059.615,
397.557,3026.1274,
394.646,3015.2545,
391.736,3040.925,
388.825,2952.68,
385.915,2906.5266,
383.004,2902.4561,
380.094,2942.3548,
377.183,3052.2163,
374.272,3141.3703,
371.362,3192.2216,
368.451,3197.6648,
365.541,3229.1873,
362.630,3267.247,
359.719,3303.2927,
356.809,3330.3422,
353.898,3323.603,
350.988,3342.907,
348.077,3350.0049,
345.167,3324.2419,
342.256,3333.9538,
339.345,3341.5329,
336.435,3357.1313,
333.524,3386.3272,
330.614,3372.9144,
327.703,3384.6656,
324.793,3410.5772,
321.882,3441.7644,
318.971,3447.712,
316.061,3469.2826,
313.150,3484.9,
310.240,3469.3156,
307.329,3504.4818,
304.418,3540.6358,
301.508,3563.0085,
298.597,3548.9405,
295.687,3486.7984,
292.776,3527.3337,
289.866,3670.2116,
286.955,3885.9195,
284.044,4057.1649,
281.134,4218.7322,
278.223,4374.2583,
275.313,4507.6291,
272.402,4615.3337,
269.492,4721.8622,
266.581,4831.1132,
263.670,4878.1648,
260.760,4946.0779,
257.849,5030.138,
254.939,5128.4783,
252.028,5186.9337,
249.117,5163.0673,
246.207,5107.2347,
243.296,5101.3784,
240.386,5134.7056,
237.475,5097.4271,
234.565,4996.5564,
231.654,4919.1357,
228.743,4854.9945,
225.833,4786.5163,
222.922,4707.9981,
220.012,4648.9852,
217.101,4573.3177,
214.191,4525.2409,
211.280,4560.1591,
208.369,4479.994,
205.459,4424.1792,
202.548,4401.3767,
199.638,4405.005,
196.727,4393.0732,
193.816,4400.0052,
190.906,4436.2263,
187.995,4392.7848,
185.085,4420.307,
182.174,4454.6258,
179.264,4406.2005,
176.353,4429.5851,
173.442,4438.8614,
170.532,4422.7177,
167.621,4388.1108,
164.711,4354.0483,
161.800,4282.5971,
158.890,4138.6516,
155.979,3907.8492,
153.068,3606.5791,
150.158,3241.4387,
147.247,2816.411,
144.337,2328.6143,
141.426,1837.2681,
138.516,1369.1381,
135.605,987.83258,
132.694,681.44798,
129.784,444.11307,
126.873,281.7786,
123.963,191.27392,
121.052,136.70172,
118.141,108.85954,
115.231,82.458897,
112.320,68.360913,
109.410,61.841026,
106.499,51.870853,
103.589,44.70771,
100.678,40.75,
97.767,40.75,
94.857,31.741142,
91.946,27.346889,
89.036,26.18551,
86.125,22.639484,
83.215,26.528283,
80.304,27.876808,
77.393,19.378769,
74.483,18.75,
71.572,19.112352,
68.662,19.403663,
65.751,15.871407,
62.840,17.640212,
59.930,19.25171,
57.019,13.611055,
54.109,6.7783915,
51.198,4.5596557,
48.288,8.8575864,
45.377,22.22177,
42.466,23.627807,
39.556,17.980237,
36.645,19.384618,
33.735,19.230752,
30.824,18.75,
27.914,18.75,
25.003,13.7689,
22.092,12.687427,
19.182,17.436486,
16.271,38.42119,
13.361,155.0647,
10.450,356.99406,
7.539,666.34777,
4.629,794.76822,
1.718,698.2031,
-1.192,236.69342,
-4.103,58.64678,
-7.013,-11.86553,
-9.924,2.75,
