,PLC19D~1,
Wavenumbers [1/cm],Intensity,
3014.167,2.25,
3011.256,-1.4499356,
3008.346,446.56446,
3005.435,502.79064,
3002.525,523.55257,
2999.614,564.8643,
2996.704,563.7098,
2993.793,593.37385,
2990.882,595.37976,
2987.972,603.40639,
2985.061,650.65396,
2982.151,662.44327,
2979.240,692.03423,
2976.329,709.79095,
2973.419,739.55809,
2970.508,750.99985,
2967.598,767.68012,
2964.687,776.25,
2961.777,774.43802,
2958.866,807.91865,
2955.955,831.05085,
2953.045,861.87197,
2950.134,881.45113,
2947.224,892.13253,
2944.313,926.7443,
2941.403,948.76232,
2938.492,946.12264,
2935.581,953.25,
2932.671,975.29728,
2929.760,1003.6961,
2926.850,994.35451,
2923.939,1026.9696,
2921.028,1011.2969,
2918.118,1027.9515,
2915.207,1062.6174,
2912.297,1047.3812,
2909.386,1060.6369,
2906.476,1068.1489,
2903.565,1041.8448,
2900.654,1062.6272,
2897.744,1029.1494,
2894.833,1033.6209,
2891.923,1046.3846,
2889.012,1021.6315,
2886.102,1005.6865,
2883.191,988.26982,
2880.280,908.53704,
2877.370,778.29665,
2874.459,721.9234,
2871.549,872.19832,
2868.638,1036.2602,
2865.727,1066.8269,
2862.817,1102.5093,
2859.906,1094.9708,
2856.996,1098.6526,
2854.085,1131.6933,
2851.175,1109.0361,
2848.264,1126.0198,
2845.353,1108.9912,
2842.443,1106.0347,
2839.532,1139.429,
2836.622,1121.6771,
2833.711,1122.6283,
2830.801,1112.1493,
2827.890,1127.4178,
2824.979,1165.9918,
2822.069,1152.1477,
2819.158,1144.7702,
2816.248,1162.1921,
2813.337,1167.6732,
2810.427,1201.772,
2807.516,1186.9408,
2804.605,1189.637,
2801.695,1196.3027,
2798.784,1215.289,
2795.874,1181.5297,
2792.963,1193.0359,
2790.052,1167.2562,
2787.142,1159.9868,
2784.231,1168.5714,
2781.321,1178.4328,
2778.410,1168.7398,
2775.500,1165.3572,
2772.589,1176.0971,
2769.678,1194.4275,
2766.768,1184.6403,
2763.857,1187.2018,
2760.947,1227.7721,
2758.036,1248.1928,
2755.126,1236.8205,
2752.215,1224.3589,
2749.304,1219.973,
2746.394,1209.8124,
2743.483,1237,
2740.573,1210.8605,
2737.662,1228.1849,
2734.751,1249.2016,
2731.841,1240.3581,
2728.930,1258.1483,
2726.020,1271.2604,
2723.109,1273.9305,
2720.199,1275.6218,
2717.288,1274.4617,
2714.377,1291.5038,
2711.467,1295.528,
2708.556,1311.6972,
2705.646,1327.1374,
2702.735,1314.7526,
2699.825,1328.01,
2696.914,1326.2973,
2694.003,1340.7264,
2691.093,1314.8577,
2688.182,1347.5789,
2685.272,1336.6127,
2682.361,1333.191,
2679.450,1337.8344,
2676.540,1352.5345,
2673.629,1358.6178,
2670.719,1354.1696,
2667.808,1368.8123,
2664.898,1369.1722,
2661.987,1363.8167,
2659.076,1386.9439,
2656.166,1391.2845,
2653.255,1403.8486,
2650.345,1405.2827,
2647.434,1472.4495,
2644.524,1439.3507,
2641.613,1446.0508,
2638.702,1443.5025,
2635.792,1415.3138,
2632.881,1434.1186,
2629.971,1404.6457,
2627.060,1468.4216,
2624.149,1429.25,
2621.239,1460.8123,
2618.328,1496.1401,
2615.418,1493.3545,
2612.507,1464.6254,
2609.597,1495.23,
2606.686,1473.3665,
2603.775,1485.7698,
2600.865,1512.0078,
2597.954,1525.1063,
2595.044,1523.2411,
2592.133,1533.8106,
2589.223,1527.6595,
2586.312,1525.8379,
2583.401,1566.5931,
2580.491,1596.7019,
2577.580,1560.3177,
2574.670,1593.7781,
2571.759,1571.4974,
2568.848,1561.0179,
2565.938,1550.1069,
2563.027,1583.4704,
2560.117,1563.7453,
2557.206,1567.9474,
2554.296,1617.1379,
2551.385,1613.1099,
2548.474,1614.5467,
2545.564,1605.7881,
2542.653,1613.5017,
2539.743,1633.7562,
2536.832,1652.8837,
2533.922,1641.865,
2531.011,1668.976,
2528.100,1644.0479,
2525.190,1668.8049,
2522.279,1658.25,
2519.369,1654.0238,
2516.458,1663.1523,
2513.548,1663.6866,
2510.637,1664.1108,
2507.726,1676.6255,
2504.816,1694.94,
2501.905,1689.1488,
2498.995,1696.3249,
2496.084,1713.25,
2493.173,1715.4606,
2490.263,1703.6884,
2487.352,1723.9996,
2484.442,1726.5091,
2481.531,1734.6118,
2478.621,1759.3354,
2475.710,1770.1963,
2472.799,1766.9495,
2469.889,1788.4301,
2466.978,1772.5492,
2464.068,1767.9961,
2461.157,1774.5926,
2458.247,1793.7945,
2455.336,1804.6374,
2452.425,1809.4293,
2449.515,1824.5514,
2446.604,1806.3076,
2443.694,1822.204,
2440.783,1852.4921,
2437.872,1872.4169,
2434.962,1895.1072,
2432.051,1884.4416,
2429.141,1891.556,
2426.230,1897.6633,
2423.320,1891.0503,
2420.409,1899.2945,
2417.498,1921.4803,
2414.588,1927.3298,
2411.677,1940.1783,
2408.767,1937.2382,
2405.856,1939.8785,
2402.946,1953.7799,
2400.035,1951.8556,
2397.124,1966.5441,
2394.214,1948.604,
2391.303,1962.0678,
2388.393,1962.9547,
2385.482,1942.3515,
2382.571,1926.4658,
2379.661,1929.2031,
2376.750,1984.7721,
2373.840,2027.2717,
2370.929,2020.4124,
2368.019,2021.1773,
2365.108,2037.1558,
2362.197,2044.4719,
2359.287,2050.8299,
2356.376,2058.2412,
2353.466,2059.613,
2350.555,2057.3996,
2347.645,2076.5493,
2344.734,2100.674,
2341.823,2082.5485,
2338.913,2098.8799,
2336.002,2152.3387,
2333.092,2147.8472,
2330.181,2170.0045,
2327.270,2177.81,
2324.360,2172.1745,
2321.449,2152.6479,
2318.539,2156.8923,
2315.628,2184.1577,
2312.718,2206.2148,
2309.807,2166.5669,
2306.896,2163.8009,
2303.986,2190.2111,
2301.075,2204.8032,
2298.165,2246.5584,
2295.254,2196.5641,
2292.344,2229.7314,
2289.433,2220.4046,
2286.522,2260.7634,
2283.612,2261.25,
2280.701,2290.676,
2277.791,2303.729,
2274.880,2294.4599,
2271.969,2315.534,
2269.059,2324.6642,
2266.148,2353.8093,
2263.238,2353.6554,
2260.327,2353.4915,
2257.417,2371.9106,
2254.506,2350.9536,
2251.595,2324.239,
2248.685,2359.0288,
2245.774,2407.8977,
2242.864,2423.2126,
2239.953,2413.712,
2237.043,2428.7432,
2234.132,2404.528,
2231.221,2416.2527,
2228.311,2422.0309,
2225.400,2457.7848,
2222.490,2480.3348,
2219.579,2506.4557,
2216.669,2539.6665,
2213.758,2578.7755,
2210.847,2541.8873,
2207.937,2589.7255,
2205.026,2624.8051,
2202.116,2639.6099,
2199.205,2650.7872,
2196.294,2680.8539,
2193.384,2684.3295,
2190.473,2730.5869,
2187.563,2786.3902,
2184.652,2822.1782,
2181.742,2893.4585,
2178.831,2998.8299,
2175.920,3066.7254,
2173.010,3224.1105,
2170.099,3379.2381,
2167.189,3594.5057,
2164.278,3791.2872,
2161.368,3984.3857,
2158.457,4228.4133,
2155.546,4496.031,
2152.636,4752.3666,
2149.725,4991.1827,
2146.815,5203.1435,
2143.904,5388.1272,
2140.993,5591.7789,
2138.083,5667.7696,
2135.172,5732.0233,
2132.262,5746.7324,
2129.351,5698.4704,
2126.441,5546.5408,
2123.530,5384.0052,
2120.619,5153.0863,
2117.709,4861.9247,
2114.798,4558.1607,
2111.888,4280.7198,
2108.977,3973.8459,
2106.067,3757.0506,
2103.156,3580.6352,
2100.245,3407.1565,
2097.335,3240.9097,
2094.424,3113.532,
2091.514,3074.0669,
2088.603,3014.8444,
2085.692,2975.373,
2082.782,2933.0613,
2079.871,2879.1403,
2076.961,2886.023,
2074.050,2880.0318,
2071.140,2802.0772,
2068.229,2826.7057,
2065.318,2808.7917,
2062.408,2791.1138,
2059.497,2787.625,
2056.587,2777.1221,
2053.676,2772.1669,
2050.766,2775.8651,
2047.855,2714.6235,
2044.944,2696.0433,
2042.034,2723.7299,
2039.123,2744.388,
2036.213,2722.5967,
2033.302,2737.728,
2030.391,2743.5892,
2027.481,2730.0671,
2024.570,2738.2069,
2021.660,2798.584,
2018.749,2755.6177,
2015.839,2786.08,
2012.928,2756.4916,
2010.017,2771.2739,
2007.107,2795.7098,
2004.196,2747.9642,
2001.286,2745.3136,
1998.375,2731.7657,
1995.465,2729.5429,
1992.554,2729.4971,
1989.643,2731.1809,
1986.733,2757.5009,
1983.822,2739.736,
1980.912,2709.0616,
1978.001,2687.276,
1975.090,2676.7981,
1972.180,2725.73,
1969.269,2724.5487,
1966.359,2719.7097,
1963.448,2692.2632,
1960.538,2670.9464,
1957.627,2731.6649,
1954.716,2716.9107,
1951.806,2708.1074,
1948.895,2689.5657,
1945.985,2703.8758,
1943.074,2669.8478,
1940.164,2670.8751,
1937.253,2665.046,
1934.342,2658.3527,
1931.432,2656.9724,
1928.521,2681.0186,
1925.611,2671.8607,
1922.700,2626.4268,
1919.790,2631.8915,
1916.879,2631.4592,
1913.968,2674.1971,
1911.058,2682.8986,
1908.147,2618.9406,
1905.237,2676.3896,
1902.326,2611.8529,
1899.415,2632.7683,
1896.505,2586.1473,
1893.594,2556.1555,
1890.684,2597.8445,
1887.773,2631.4051,
1884.863,2649.471,
1881.952,2707.377,
1879.041,2678.3216,
1876.131,2667.9507,
1873.220,2646.5862,
1870.310,2645.1065,
1867.399,2679.6902,
1864.489,2638.4698,
1861.578,2691.5688,
1858.667,2678.4775,
1855.757,2697.6486,
1852.846,2710.8089,
1849.936,2737.3902,
1847.025,2711.8413,
1844.114,2718.7701,
1841.204,2745.6416,
1838.293,2762.7142,
1835.383,2790.808,
1832.472,2754.1439,
1829.562,2771.8826,
1826.651,2803.0364,
1823.740,2812.5297,
1820.830,2848.4314,
1817.919,2797.1718,
1815.009,2783.25,
1812.098,2806.5886,
1809.188,2831.7616,
1806.277,2840.0951,
1803.366,2829.25,
1800.456,2830.8438,
1797.545,2864.7958,
1794.635,2925.5089,
1791.724,2900.9102,
1788.813,2905.4515,
1785.903,2885.3936,
1782.992,2812.8342,
1780.082,2809.4376,
1777.171,2711.8977,
1774.261,2682.1308,
1771.350,2809.0508,
1768.439,2927.8717,
1765.529,2966.4305,
1762.618,2986.7544,
1759.708,3004.4781,
1756.797,2987.4091,
1753.887,3004.6873,
1750.976,3038.3501,
1748.065,3044.1056,
1745.155,3024.2824,
1742.244,3029.817,
1739.334,3085.1794,
1736.423,3101.5977,
1733.512,3123.2623,
1730.602,3133.746,
1727.691,3164.1888,
1724.781,3185.8352,
1721.870,3203.7358,
1718.960,3222.8724,
1716.049,3251.4192,
1713.138,3281.8999,
1710.228,3278.4173,
1707.317,3297.5951,
1704.407,3323.6083,
1701.496,3328.0731,
1698.586,3297.7585,
1695.675,3392.5637,
1692.764,3450.373,
1689.854,3436.9862,
1686.943,3469.1033,
1684.033,3549.2383,
1681.122,3591.5533,
1678.211,3564.5165,
1675.301,3716.7782,
1672.390,3690.6657,
1669.480,3829.3703,
1666.569,3845.1895,
1663.659,3919.5076,
1660.748,3997.3131,
1657.837,4104.3058,
1654.927,4196.414,
1652.016,4204.1491,
1649.106,4243.2122,
1646.195,4365.4459,
1643.285,4537.8223,
1640.374,4607.9887,
1637.463,4739.8349,
1634.553,4938.3681,
1631.642,5148.8668,
1628.732,5388.5654,
1625.821,5609.4934,
1622.911,5979.1537,
1620.000,6335.7271,
1617.089,6820.4987,
1614.179,7222.8568,
1611.268,7668.4828,
1608.358,8052.2231,
1605.447,8353.1094,
1602.536,8436.414,
1599.626,8514.8446,
1596.715,8600.2113,
1593.805,8523.2885,
1590.894,8470.0972,
1587.984,8407.0879,
1585.073,8288.4946,
1582.162,8173.2381,
1579.252,8072.4199,
1576.341,7998.9766,
1573.431,7997.7808,
1570.520,7987.4912,
1567.610,7875.2091,
1564.699,7839.7001,
1561.788,7721.2371,
1558.878,7627.5532,
1555.967,7552.4148,
1553.057,7397.303,
1550.146,7205.4139,
1547.235,7072.398,
1544.325,6960.993,
1541.414,6824.1613,
1538.504,6712.632,
1535.593,6609.4642,
1532.683,6486.6633,
1529.772,6388.9068,
1526.861,6326.9382,
1523.951,6317.6315,
1521.040,6351.9629,
1518.130,6312.8742,
1515.219,6202.1713,
1512.309,6144.8716,
1509.398,6079.1154,
1506.487,5966.6054,
1503.577,5860.0242,
1500.666,5780.0042,
1497.756,5751.809,
1494.845,5716.6469,
1491.934,5582.4075,
1489.024,5630.5321,
1486.113,5546.019,
1483.203,5399.8077,
1480.292,5348.3095,
1477.382,5281.6314,
1474.471,5169.0255,
1471.560,5175.5333,
1468.650,5086.0757,
1465.739,5008.7875,
1462.829,4999.4118,
1459.918,4985.4653,
1457.008,4920.4955,
1454.097,4869.9392,
1451.186,4884.3003,
1448.276,4908.25,
1445.365,4933.3258,
1442.455,4972.8573,
1439.544,4932.5388,
1436.633,4918.5221,
1433.723,4923.7666,
1430.812,4886.3582,
1427.902,4900.5882,
1424.991,4914.8047,
1422.081,4911.5801,
1419.170,4957.0452,
1416.259,4956.1494,
1413.349,4937.6347,
1410.438,4989.6319,
1407.528,4948.5883,
1404.617,4912.25,
1401.707,4881.5135,
1398.796,4878.3234,
1395.885,4923.0257,
1392.975,4919.9155,
1390.064,4864.424,
1387.154,4865.5311,
1384.243,4901.3193,
1381.332,4917.6686,
1378.422,4978.8627,
1375.511,5165.2821,
1372.601,5263.1717,
1369.690,5333.8272,
1366.780,5486.8163,
1363.869,5531.5148,
1360.958,5613.476,
1358.048,5762.8261,
1355.137,5887.7157,
1352.227,5969.8515,
1349.316,6064.9643,
1346.406,6177.8619,
1343.495,6268.9173,
1340.584,6353.6419,
1337.674,6427.0421,
1334.763,6528.9549,
1331.853,6626.3142,
1328.942,6637.3657,
1326.032,6813.6084,
1323.121,6976.2501,
1320.210,7116.4744,
1317.300,7241.3899,
1314.389,7398.5715,
1311.479,7552.2981,
1308.568,7683.9533,
1305.657,7844.5081,
1302.747,8014.2399,
1299.836,8188.0685,
1296.926,8425.1631,
1294.015,8638.4462,
1291.105,8946.6342,
1288.194,9200.5144,
1285.283,9448.2868,
1282.373,9639.7886,
1279.462,9862.7176,
1276.552,10031.667,
1273.641,10103.304,
1270.731,10144.838,
1267.820,10169.725,
1264.909,10245.227,
1261.999,10144.315,
1259.088,10173.503,
1256.178,9944.0068,
1253.267,9772.5252,
1250.356,9477.6025,
1247.446,9085.7688,
1244.535,8747.5808,
1241.625,8433.7505,
1238.714,8093.8596,
1235.804,7811.5902,
1232.893,7562.777,
1229.982,7434.7612,
1227.072,7272.7103,
1224.161,7136.8554,
1221.251,7009.7632,
1218.340,6932.1422,
1215.430,6827.2202,
1212.519,6728.1041,
1209.608,6684.9975,
1206.698,6634.3553,
1203.787,6512.2098,
1200.877,6540.62,
1197.966,6740.2334,
1195.055,6862.0256,
1192.145,6985.6867,
1189.234,7179.2041,
1186.324,7351.9856,
1183.413,7446.3312,
1180.503,7474.9245,
1177.592,7453.4818,
1174.681,7370.5206,
1171.771,7317.7445,
1168.860,7339.1787,
1165.950,7284.8097,
1163.039,7304.0749,
1160.129,7291.7065,
1157.218,7231.426,
1154.307,7144.6952,
1151.397,7085.7199,
1148.486,7104.9128,
1145.576,7022.5427,
1142.665,6868.0459,
1139.754,6814.5686,
1136.844,6829.0603,
1133.933,6772.3883,
1131.023,6729.971,
1128.112,6692.042,
1125.202,6622.7041,
1122.291,6651.3807,
1119.380,6665.765,
1116.470,6616.3434,
1113.559,6614.8895,
1110.649,6596.6046,
1107.738,6531.5966,
1104.828,6492.572,
1101.917,6493.0069,
1099.006,6469.7551,
1096.096,6487.4863,
1093.185,6507.6804,
1090.275,6539.193,
1087.364,6561.3447,
1084.453,6673.4308,
1081.543,6759.6322,
1078.632,6782.8001,
1075.722,6828.7724,
1072.811,6858.3335,
1069.901,6817.2903,
1066.990,6719.6752,
1064.079,6653.6971,
1061.169,6647.6098,
1058.258,6653.7447,
1055.348,6663.0056,
1052.437,6709.6455,
1049.527,6743.3913,
1046.616,6772.9315,
1043.705,6740.7948,
1040.795,6751.3207,
1037.884,6779.9393,
1034.974,6821.2023,
1032.063,6873.7419,
1029.153,6910.8852,
1026.242,6941.1587,
1023.331,7047.2433,
1020.421,7063.3703,
1017.510,7046.1226,
1014.600,7103.1876,
1011.689,7207.7976,
1008.778,7259.907,
1005.868,7411.196,
1002.957,7628.0053,
1000.047,7854.1701,
997.136,8153.545,
994.226,8301.204,
991.315,8298.7327,
988.404,8303.4168,
985.494,8180.461,
982.583,8189.8831,
979.673,8163.4474,
976.762,8186.7148,
973.852,8194.3376,
970.941,8188.1799,
968.030,8241.6896,
965.120,8357.3789,
962.209,8388.0704,
959.299,8347.2138,
956.388,8349.5286,
953.477,8344.4655,
950.567,8331.0268,
947.656,8381.9185,
944.746,8387.0158,
941.835,8420.4523,
938.925,8397.3216,
936.014,8380.2383,
933.103,8362.3015,
930.193,8321.6617,
927.282,8277.8881,
924.372,8178.9521,
921.461,8015.2879,
918.551,7917.0991,
915.640,7822.7833,
912.729,7678.4065,
909.819,7511.3578,
906.908,7481.873,
903.998,7449.2308,
901.087,7488.988,
898.176,7522.9307,
895.266,7573.0989,
892.355,7691.0078,
889.445,7828.6476,
886.534,7858.4705,
883.624,7925.4777,
880.713,8021.5963,
877.802,8040.7839,
874.892,7906.5083,
871.981,7677.5214,
869.071,7519.6284,
866.160,7644.7311,
863.250,7778.2511,
860.339,7854.7907,
857.428,7883.1891,
854.518,7866.8559,
851.607,7749.5341,
848.697,7544.915,
845.786,7464.8828,
842.875,7536.7615,
839.965,7678.799,
837.054,7745.6035,
834.144,7777.0961,
831.233,7749.9191,
828.323,7692.6951,
825.412,7650.928,
822.501,7616.2917,
819.591,7427.8727,
816.680,7318.8844,
813.770,7237.4913,
810.859,7140.1738,
807.949,7047.9182,
805.038,7004.5752,
802.127,6957.6569,
799.217,6948.0323,
796.306,6919.5741,
793.396,6884.8453,
790.485,6844.5612,
787.574,6782.4536,
784.664,6893.1687,
781.753,7014.5686,
778.843,7122.5698,
775.932,7195.2868,
773.022,7216.2905,
770.111,7177.8643,
767.200,7050.3948,
764.290,6991.0243,
761.379,6975.0684,
758.469,6968.0183,
755.558,6946.8642,
752.648,6900.4318,
749.737,6871.0135,
746.826,6839.7363,
743.916,6790.5613,
741.005,6710.1274,
738.095,6585.0984,
735.184,6474.432,
732.274,6442.0349,
729.363,6519.8758,
726.452,6677.5754,
723.542,6756.8959,
720.631,6874.4018,
717.721,6925.2897,
714.810,6947.5283,
711.899,6967.0718,
708.989,6979.1757,
706.078,7011.3021,
703.168,6970.0651,
700.257,6921.7471,
697.347,6908.9011,
694.436,6945.0023,
691.525,6862.2104,
688.615,6876.3245,
685.704,6919.4248,
682.794,6958.5052,
679.883,6982.0337,
676.973,6977.2255,
674.062,7023.4681,
671.151,7034.0318,
668.241,6994.9049,
665.330,6934.5861,
662.420,6899.4419,
659.509,6899.2342,
656.598,6937.4372,
653.688,7017.9066,
650.777,7139.7882,
647.867,7214.6431,
644.956,7205.8648,
642.046,7089.9172,
639.135,6936.0927,
636.224,6890.4887,
633.314,6938.125,
630.403,6907.6828,
627.493,6860.5826,
624.582,6836.4877,
621.672,6855.4956,
618.761,6784.0558,
615.850,6870.3456,
612.940,6963.0069,
610.029,6956.1771,
607.119,6871.6866,
604.208,6873.1902,
601.297,6862.2945,
598.387,6859.8618,
595.476,6886.5704,
592.566,6836.9851,
589.655,6773.8272,
586.745,6767.2503,
583.834,6795.4933,
580.923,6788.9372,
578.013,6737.1448,
575.102,6747.9143,
572.192,6770.1801,
569.281,6786.9514,
566.371,6840.9524,
563.460,6852.5992,
560.549,6873.7666,
557.639,6910.4381,
554.728,6958.334,
551.818,6975.5009,
548.907,7055.4266,
545.996,7122.9119,
543.086,7143.3586,
540.175,7102.0904,
537.265,7079.6945,
534.354,7102.8531,
531.444,7164.4597,
528.533,7244.9189,
525.622,7240.2632,
522.712,7338.7575,
519.801,7427.6903,
516.891,7482.744,
513.980,7559.3993,
511.070,7621.1891,
508.159,7724.4812,
505.248,7860.5699,
502.338,8009.4747,
499.427,8153.8073,
496.517,8257.3004,
493.606,8361.7617,
490.695,8471.1757,
487.785,8485.032,
484.874,8493.066,
481.964,8484.2069,
479.053,8460.2634,
476.143,8431.0808,
473.232,8383.2082,
470.321,8400.7701,
467.411,8454.7119,
464.500,8505.1699,
461.590,8580.9782,
458.679,8631.4156,
455.769,8709.7561,
452.858,8835.09,
449.947,8900.7881,
447.037,8914.25,
444.126,8994.8439,
441.216,9139.2613,
438.305,9179.6437,
435.395,9195.7402,
432.484,9237.0907,
429.573,9276.5999,
426.663,9230.9914,
423.752,9039.6443,
420.842,8842.7084,
417.931,8690.1672,
415.020,8637.0821,
412.110,9242.4889,
409.199,9631.02,
406.289,9811.6294,
403.378,9833.7198,
400.468,9677.2289,
397.557,9689.9762,
394.646,9812.8156,
391.736,9985.5639,
388.825,9995.3689,
385.915,9959.9321,
383.004,9973.6502,
380.094,10094.323,
377.183,10134.957,
374.272,10216.811,
371.362,10307.154,
368.451,10382.344,
365.541,10400.357,
362.630,10486.094,
359.719,10537.564,
356.809,10498.709,
353.898,10473.25,
350.988,10487.949,
348.077,10496.957,
345.167,10475.461,
342.256,10499.367,
339.345,10538.667,
336.435,10554.481,
333.524,10523.904,
330.614,10608.107,
327.703,10648.112,
324.793,10690.123,
321.882,10773.337,
318.971,10809.022,
316.061,10929.167,
313.150,11065.114,
310.240,11138.584,
307.329,11259.165,
304.418,11373.275,
301.508,11436.708,
298.597,11374.513,
295.687,11345.547,
292.776,11385.5,
289.866,11474.065,
286.955,11553.847,
284.044,11713.255,
281.134,11823.689,
278.223,11877.321,
275.313,11959.849,
272.402,12049.863,
269.492,12089.893,
266.581,12069.293,
263.670,12153.839,
260.760,12314.07,
257.849,12479.054,
254.939,12595.741,
252.028,12668.911,
249.117,12741.476,
246.207,12807.751,
243.296,12856.066,
240.386,12913.489,
237.475,12923.193,
234.565,12895.515,
231.654,12903.55,
228.743,12910.428,
225.833,12916.079,
222.922,12925.278,
220.012,13033.104,
217.101,13129.589,
214.191,13193.687,
211.280,13195.142,
208.369,13171.029,
205.459,13148.47,
202.548,13135.008,
199.638,13150.972,
196.727,13142.149,
193.816,13148.903,
190.906,13184.234,
187.995,13155.273,
185.085,13230.364,
182.174,13331.518,
179.264,13354.647,
176.353,13383.522,
173.442,13383.748,
170.532,13351.193,
167.621,13290.631,
164.711,13087.673,
161.800,12750.901,
158.890,12257.888,
155.979,11581.72,
153.068,10711.761,
150.158,9646.598,
147.247,8332.0274,
144.337,6887.7248,
141.426,5434.9798,
138.516,4028.4391,
135.605,2894.4089,
132.694,1975.1058,
129.784,1275.0392,
126.873,878.85723,
123.963,604.76615,
121.052,409.24096,
118.141,285.73592,
115.231,244.74749,
112.320,199.86639,
109.410,156.75028,
106.499,133.24915,
103.589,119.28593,
100.678,107.08919,
97.767,93.581374,
94.857,90.478044,
91.946,88.846889,
89.036,86.556531,
86.125,75.918452,
83.215,67.409876,
80.304,62.25,
77.393,62.25,
74.483,57.664055,
71.572,50.901775,
68.662,44.011942,
65.751,51.782904,
62.840,49.43298,
59.930,44.25,
57.019,44.25,
54.109,35.292587,
51.198,30.758046,
48.288,34.210363,
45.377,29.286716,
42.466,29.311097,
39.556,31.674407,
36.645,28.163456,
33.735,26.730752,
30.824,24.482904,
27.914,18.873502,
25.003,22.608462,
22.092,22.020954,
19.182,14.632163,
16.271,-4.2540709,
13.361,-88.455352,
10.450,-289.90181,
7.539,-848.5541,
4.629,-1394.9345,
1.718,-1690.141,
-1.192,-1427.3175,
-4.103,-903.36072,
-7.013,-408.59289,
-9.924,-0.75,
