,PL6F8D~1,
Raman shift [1/cm],Intensity,
3014.167,-2.125,
3011.256,3.4250107,
3008.346,224.03707,
3005.435,292.64178,
3002.525,290.38507,
2999.614,279.05425,
2996.704,307.05232,
2993.793,313.99885,
2990.882,323.34824,
2987.972,321.95067,
2985.061,337.7617,
2982.151,359.13048,
2979.240,360.2923,
2976.329,374.1564,
2973.419,389.58283,
2970.508,388.19164,
2967.598,405.7758,
2964.687,393.42663,
2961.777,420.18286,
2958.866,431.86461,
2955.955,437.52767,
2953.045,461.05845,
2950.134,472.18406,
2947.224,476.61519,
2944.313,496.48184,
2941.403,494.22035,
2938.492,513.00236,
2935.581,510.80505,
2932.671,530.11535,
2929.760,525.45961,
2926.850,530.30019,
2923.939,538.67406,
2921.028,546.49858,
2918.118,556.5954,
2915.207,559.28639,
2912.297,557.87923,
2909.386,568.07938,
2906.476,567.45646,
2903.565,575.37649,
2900.654,552.71018,
2897.744,529.23959,
2894.833,551.68955,
2891.923,555.84941,
2889.012,560.08887,
2886.102,538.25068,
2883.191,535.875,
2880.280,545.18121,
2877.370,512.24131,
2874.459,479.62985,
2871.549,520.54628,
2868.638,556.83168,
2865.727,561.95575,
2862.817,593.37632,
2859.906,568.69836,
2856.996,583.87047,
2854.085,578.71322,
2851.175,580.51659,
2848.264,582.86533,
2845.353,583.59463,
2842.443,568.47918,
2839.532,559.4422,
2836.622,567.8073,
2833.711,542.81536,
2830.801,555.37132,
2827.890,540.92049,
2824.979,562.44298,
2822.069,570.84088,
2819.158,565.21462,
2816.248,556.39237,
2813.337,553.37011,
2810.427,581.4783,
2807.516,564.78172,
2804.605,553.75722,
2801.695,556.9934,
2798.784,576.58338,
2795.874,577.86443,
2792.963,574.37468,
2790.052,574.87328,
2787.142,568.12488,
2784.231,566.5194,
2781.321,568.5607,
2778.410,567.19479,
2775.500,563.45052,
2772.589,575.10589,
2769.678,579.65997,
2766.768,588.55656,
2763.857,589.50699,
2760.947,586.33402,
2758.036,595.1235,
2755.126,614.83226,
2752.215,612.51149,
2749.304,622.7473,
2746.394,596.43743,
2743.483,604.37507,
2740.573,603.29541,
2737.662,606.10872,
2734.751,626.15637,
2731.841,615.36034,
2728.930,610.12071,
2726.020,617.31887,
2723.109,625.74083,
2720.199,633.89367,
2717.288,632.36769,
2714.377,619.26254,
2711.467,627.41567,
2708.556,638.74742,
2705.646,655.31167,
2702.735,655.52447,
2699.825,645.7223,
2696.914,659.35137,
2694.003,643.26036,
2691.093,647.6608,
2688.182,644.52907,
2685.272,636.19363,
2682.361,642.63373,
2679.450,649.70626,
2676.540,616.99694,
2673.629,634.15745,
2670.719,654.30568,
2667.808,646.21545,
2664.898,664.47227,
2661.987,678.67513,
2659.076,684.74784,
2656.166,678.13466,
2653.255,686.80527,
2650.345,693.6917,
2647.434,696.30369,
2644.524,707.05249,
2641.613,705.90328,
2638.702,707.76453,
2635.792,688.8431,
2632.881,706.57717,
2629.971,701.0427,
2627.060,709.87438,
2624.149,713.49688,
2621.239,712.62648,
2618.328,718.62068,
2615.418,708.56136,
2612.507,724.07649,
2609.597,717.07859,
2606.686,720.62802,
2603.775,730.2758,
2600.865,738.22655,
2597.954,727.49788,
2595.044,737.89271,
2592.133,734.48647,
2589.223,746.46554,
2586.312,763.14136,
2583.401,753.91516,
2580.491,756.69712,
2577.580,761.84694,
2574.670,749.02606,
2571.759,758.22346,
2568.848,780.74805,
2565.938,769.82745,
2563.027,760.97272,
2560.117,762.875,
2557.206,774.62777,
2554.296,758.5615,
2551.385,770.19708,
2548.474,790.02333,
2545.564,780.31818,
2542.653,801.57969,
2539.743,799.55368,
2536.832,797.71239,
2533.922,809.20615,
2531.011,825.47537,
2528.100,820.27223,
2525.190,821.92213,
2522.279,808.01569,
2519.369,811.78061,
2516.458,820.54639,
2513.548,816.97512,
2510.637,809.14986,
2507.726,830.44746,
2504.816,809.87613,
2501.905,829.86037,
2498.995,820.65135,
2496.084,826.43594,
2493.173,844.4813,
2490.263,845.34728,
2487.352,854.3742,
2484.442,844.01418,
2481.531,845.82182,
2478.621,844.875,
2475.710,872.86733,
2472.799,871.875,
2469.889,865.57305,
2466.978,863.20486,
2464.068,888.81688,
2461.157,865.37744,
2458.247,878.43385,
2455.336,891.76738,
2452.425,897.76651,
2449.515,870.32823,
2446.604,892.81045,
2443.694,903.61925,
2440.783,890.30067,
2437.872,894.91146,
2434.962,891.1469,
2432.051,892.01724,
2429.141,907.58676,
2426.230,913.48385,
2423.320,903.25977,
2420.409,942.4968,
2417.498,931.10532,
2414.588,941.85971,
2411.677,939.40884,
2408.767,929.91043,
2405.856,936.52977,
2402.946,935.24408,
2400.035,942.16843,
2397.124,916.24396,
2394.214,939.9554,
2391.303,941.91362,
2388.393,962.31224,
2385.482,957.31562,
2382.571,960.3814,
2379.661,964.94464,
2376.750,980.34788,
2373.840,985.22811,
2370.929,1011.5934,
2368.019,994.63487,
2365.108,991.50066,
2362.197,1021.0422,
2359.287,997.13516,
2356.376,1002.8521,
2353.466,1006.0411,
2350.555,1010.9249,
2347.645,1006.0591,
2344.734,1017.1193,
2341.823,991.35591,
2338.913,1023.7168,
2336.002,1027.2339,
2333.092,1037.3458,
2330.181,1044.2945,
2327.270,1045.545,
2324.360,1049.1274,
2321.449,1048.8614,
2318.539,1074.4285,
2315.628,1066.4134,
2312.718,1067.1746,
2309.807,1067.8067,
2306.896,1073.9298,
2303.986,1091.8295,
2301.075,1082.9388,
2298.165,1072.6922,
2295.254,1110.0133,
2292.344,1088.1903,
2289.433,1086.8518,
2286.522,1101.9239,
2283.612,1121.875,
2280.701,1108.0275,
2277.791,1111.396,
2274.880,1130.2949,
2271.969,1143.8174,
2269.059,1139.6053,
2266.148,1147.4159,
2263.238,1155.8711,
2260.327,1181.7368,
2257.417,1157.6194,
2254.506,1176.516,
2251.595,1179.5914,
2248.685,1179.3481,
2245.774,1187.0837,
2242.864,1195.6157,
2239.953,1184.3648,
2237.043,1161.6025,
2234.132,1180.7425,
2231.221,1205.6658,
2228.311,1216.9639,
2225.400,1213.5786,
2222.490,1239.9174,
2219.579,1241.695,
2216.669,1246.7844,
2213.758,1271.0933,
2210.847,1281.9354,
2207.937,1309.7756,
2205.026,1327.7651,
2202.116,1305.1011,
2199.205,1337.1748,
2196.294,1351.991,
2193.384,1392.5581,
2190.473,1434.1884,
2187.563,1442.8363,
2184.652,1440.5983,
2181.742,1484.6946,
2178.831,1515.0735,
2175.920,1538.8586,
2173.010,1564.0258,
2170.099,1588.6726,
2167.189,1598.0903,
2164.278,1636.8258,
2161.368,1702.8733,
2158.457,1748.8893,
2155.546,1792.4645,
2152.636,1832.2952,
2149.725,1868.1703,
2146.815,1921.2399,
2143.904,1942.4884,
2140.993,1987.4463,
2138.083,2020.1212,
2135.172,2021.7323,
2132.262,2035.7456,
2129.351,2014.9956,
2126.441,1996.506,
2123.530,1922.572,
2120.619,1890.3706,
2117.709,1835.8347,
2114.798,1750.7401,
2111.888,1691.0381,
2108.977,1629.5571,
2106.067,1576.0902,
2103.156,1522.1236,
2100.245,1490.8574,
2097.335,1463.8383,
2094.424,1462.4978,
2091.514,1435.5175,
2088.603,1410.6677,
2085.692,1403.9715,
2082.782,1425.6501,
2079.871,1432.9823,
2076.961,1414.2311,
2074.050,1413.7598,
2071.140,1393.4841,
2068.229,1392.8946,
2065.318,1370.0233,
2062.408,1381.2313,
2059.497,1380.6547,
2056.587,1388.0608,
2053.676,1406.1243,
2050.766,1372.8772,
2047.855,1370.875,
2044.944,1366.3526,
2042.034,1345.4069,
2039.123,1367.4339,
2036.213,1360.855,
2033.302,1383.266,
2030.391,1413.9763,
2027.481,1390.8875,
2024.570,1443.9305,
2021.660,1390.9549,
2018.749,1391.1029,
2015.839,1397.0095,
2012.928,1402.0126,
2010.017,1419.7708,
2007.107,1414.8955,
2004.196,1418.3751,
2001.286,1447.3343,
1998.375,1408.3395,
1995.465,1395.1679,
1992.554,1373.2105,
1989.643,1399.8035,
1986.733,1394.1259,
1983.822,1381.2982,
1980.912,1390.024,
1978.001,1396.452,
1975.090,1376.0323,
1972.180,1383.2208,
1969.269,1365.5158,
1966.359,1368.9562,
1963.448,1375.336,
1960.538,1367.7599,
1957.627,1373.0081,
1954.716,1356.3921,
1951.806,1372.5834,
1948.895,1350.6806,
1945.985,1362.5221,
1943.074,1336.1185,
1940.164,1336.1826,
1937.253,1342.6616,
1934.342,1355.798,
1931.432,1317.4334,
1928.521,1323.1496,
1925.611,1311.9272,
1922.700,1312.1637,
1919.790,1336.4065,
1916.879,1323.1305,
1913.968,1286.918,
1911.058,1379.1002,
1908.147,1331.7713,
1905.237,1288.4045,
1902.326,1325.8202,
1899.415,1326.4835,
1896.505,1335.0497,
1893.594,1335.0579,
1890.684,1349.3978,
1887.773,1334.2637,
1884.863,1345.6791,
1881.952,1335.5803,
1879.041,1326.6575,
1876.131,1327.0606,
1873.220,1305.9546,
1870.310,1312.1575,
1867.399,1339.4432,
1864.489,1338.0572,
1861.578,1318.2486,
1858.667,1320.1145,
1855.757,1321.6328,
1852.846,1361.8391,
1849.936,1364.4545,
1847.025,1404.4103,
1844.114,1369.4256,
1841.204,1376.7212,
1838.293,1400.875,
1835.383,1405.7935,
1832.472,1409.875,
1829.562,1398.3766,
1826.651,1406.9181,
1823.740,1425.5225,
1820.830,1423.7017,
1817.919,1399.8868,
1815.009,1428.2681,
1812.098,1427.5915,
1809.188,1470.9602,
1806.277,1386.8447,
1803.366,1459.7585,
1800.456,1451.9957,
1797.545,1432.4497,
1794.635,1396.7441,
1791.724,1453.341,
1788.813,1478.8853,
1785.903,1504.0747,
1782.992,1475.4368,
1780.082,1464.804,
1777.171,1484.8771,
1774.261,1487.0349,
1771.350,1491.5178,
1768.439,1540.6873,
1765.529,1554.1434,
1762.618,1515.28,
1759.708,1538.6362,
1756.797,1564.2689,
1753.887,1537.1301,
1750.976,1526.0026,
1748.065,1533.1761,
1745.155,1542.9008,
1742.244,1556.1449,
1739.334,1547.1809,
1736.423,1563.4843,
1733.512,1615.806,
1730.602,1625.1428,
1727.691,1588.3303,
1724.781,1624.283,
1721.870,1648.1417,
1718.960,1693.6311,
1716.049,1696.1632,
1713.138,1701.715,
1710.228,1652.3978,
1707.317,1662.5664,
1704.407,1704.4045,
1701.496,1749.8947,
1698.586,1757.5709,
1695.675,1698.9254,
1692.764,1781.0267,
1689.854,1770.5679,
1686.943,1806.5934,
1684.033,1765.943,
1681.122,1892.666,
1678.211,1893.8845,
1675.301,1950.6992,
1672.390,1969.9169,
1669.480,1984.6612,
1666.569,2082.2559,
1663.659,2113.1163,
1660.748,2189.109,
1657.837,2251.5251,
1654.927,2238.007,
1652.016,2328.4787,
1649.106,2393.7074,
1646.195,2427.882,
1643.285,2469.8092,
1640.374,2511.7356,
1637.463,2600.082,
1634.553,2667.1607,
1631.642,2754.9054,
1628.732,2940.5624,
1625.821,3055.9699,
1622.911,3200.0579,
1620.000,3366.7584,
1617.089,3537.4521,
1614.179,3707.0526,
1611.268,3940.0638,
1608.358,4059.4435,
1605.447,4202.5333,
1602.536,4416.8221,
1599.626,4350.9209,
1596.715,4427.3743,
1593.805,4434.0863,
1590.894,4407.4549,
1587.984,4390.8836,
1585.073,4325.0637,
1582.162,4248.7539,
1579.252,4221.1456,
1576.341,4133.7633,
1573.431,4168.4804,
1570.520,4105.1442,
1567.610,4060.0119,
1564.699,3998.4978,
1561.788,3926.467,
1558.878,3895.3163,
1555.967,3817.5412,
1553.057,3737.1341,
1550.146,3642.2024,
1547.235,3589.6104,
1544.325,3551.0742,
1541.414,3527.4952,
1538.504,3484.688,
1535.593,3460.8908,
1532.683,3487.6847,
1529.772,3517.1434,
1526.861,3543.4727,
1523.951,3551.4476,
1521.040,3609.0389,
1518.130,3657.2889,
1515.219,3593.754,
1512.309,3622.6633,
1509.398,3591.8297,
1506.487,3528.9536,
1503.577,3540.2298,
1500.666,3512.1156,
1497.756,3406.8321,
1494.845,3352.9923,
1491.934,3236.0577,
1489.024,3291.8823,
1486.113,3261.4225,
1483.203,3305.0597,
1480.292,3231.9634,
1477.382,3158.0646,
1474.471,3172.268,
1471.560,3103.2287,
1468.650,3064.9924,
1465.739,3044.2223,
1462.829,3048.005,
1459.918,3085.6045,
1457.008,3084.5055,
1454.097,3033.6077,
1451.186,3008.5288,
1448.276,2995.3679,
1445.365,2952.6957,
1442.455,2930.7557,
1439.544,2893.4072,
1436.633,2884.5254,
1433.723,2878.8871,
1430.812,2850.2839,
1427.902,2841.6799,
1424.991,2791.4485,
1422.081,2880.7052,
1419.170,2881.0985,
1416.259,2874.2046,
1413.349,2903.0846,
1410.438,2922.6719,
1407.528,2892.1129,
1404.617,2901.0572,
1401.707,2866.8211,
1398.796,2816.5149,
1395.885,2779.9771,
1392.975,2708.8532,
1390.064,2629.2034,
1387.154,2489.5726,
1384.243,2310.2855,
1381.332,2222.7764,
1378.422,2213.2843,
1375.511,2512.1174,
1372.601,2621.0124,
1369.690,2722.455,
1366.780,2782.229,
1363.869,2860.7109,
1360.958,2938.6923,
1358.048,3008.0001,
1355.137,3038.4521,
1352.227,3103.9277,
1349.316,3192.3175,
1346.406,3238.0586,
1343.495,3308.3245,
1340.584,3358.4817,
1337.674,3393.3774,
1334.763,3430.5574,
1331.853,3422.2124,
1328.942,3504.5952,
1326.032,3536.8968,
1323.121,3575.9594,
1320.210,3625.8325,
1317.300,3666.7136,
1314.389,3692.153,
1311.479,3735.5155,
1308.568,3753.0132,
1305.657,3714.4609,
1302.747,3742.7714,
1299.836,3795.6884,
1296.926,3928.1307,
1294.015,4041.2075,
1291.105,4199.9698,
1288.194,4287.1707,
1285.283,4326.7871,
1282.373,4379.5389,
1279.462,4402.679,
1276.552,4428.7491,
1273.641,4446.0703,
1270.731,4413.0541,
1267.820,4380.0339,
1264.909,4342.2494,
1261.999,4392.5795,
1259.088,4302.2795,
1256.178,4257.478,
1253.267,4201.7745,
1250.356,4167.2346,
1247.446,4210.0937,
1244.535,4169.0761,
1241.625,4091.4898,
1238.714,4059.9366,
1235.804,3980.0692,
1232.893,3957.6331,
1229.982,3916.1528,
1227.072,3776.7347,
1224.161,3778.6421,
1221.251,3699.7235,
1218.340,3585.716,
1215.430,3493.1806,
1212.519,3455.875,
1209.608,3445.9525,
1206.698,3435.7901,
1203.787,3452.6438,
1200.877,3422.3854,
1197.966,3479.0324,
1195.055,3555.2544,
1192.145,3697.8574,
1189.234,3803.8079,
1186.324,3934.4297,
1183.413,4052.4131,
1180.503,4100.2123,
1177.592,4105.9862,
1174.681,4115.2723,
1171.771,4064.1937,
1168.860,4121.3515,
1165.950,4080.1102,
1163.039,4062.5894,
1160.129,4033.3315,
1157.218,4007.1832,
1154.307,3982.1789,
1151.397,3955.9604,
1148.486,3970.267,
1145.576,4014.2901,
1142.665,3931.7142,
1139.754,3937.0794,
1136.844,3892.2544,
1133.933,3873.6345,
1131.023,3817.7514,
1128.112,3744.9477,
1125.202,3719.2132,
1122.291,3686.4936,
1119.380,3669.4073,
1116.470,3621.7508,
1113.559,3598.8635,
1110.649,3566.3715,
1107.738,3532.0497,
1104.828,3538.1766,
1101.917,3548.6847,
1099.006,3503.0604,
1096.096,3536.9825,
1093.185,3538.7385,
1090.275,3548.5862,
1087.364,3609.1954,
1084.453,3688.1842,
1081.543,3745.5274,
1078.632,3808.2431,
1075.722,3869.9137,
1072.811,3747.4812,
1069.901,3784.1581,
1066.990,3729.4835,
1064.079,3679.8078,
1061.169,3638.5737,
1058.258,3618.4515,
1055.348,3611.9958,
1052.437,3597.547,
1049.527,3596.3114,
1046.616,3607.6061,
1043.705,3636.6225,
1040.795,3607.8417,
1037.884,3598.0012,
1034.974,3595.4678,
1032.063,3589.3283,
1029.153,3635.6433,
1026.242,3583.7459,
1023.331,3591.0411,
1020.421,3589.3895,
1017.510,3600.2011,
1014.600,3646.6699,
1011.689,3718.8254,
1008.778,3779.8861,
1005.868,3816.4272,
1002.957,3989.3584,
1000.047,4124.347,
997.136,4201.8765,
994.226,4198.8755,
991.315,4133.6473,
988.404,4057.4714,
985.494,4007.1872,
982.583,3931.8102,
979.673,3858.685,
976.762,3836.4621,
973.852,3833.3389,
970.941,3820.5763,
968.030,3803.7305,
965.120,3819.8643,
962.209,3817.3066,
959.299,3793.5028,
956.388,3797.3141,
953.477,3807.0529,
950.567,3824.4361,
947.656,3874.981,
944.746,3860.5386,
941.835,3908.4638,
938.925,3976.4673,
936.014,4007.3925,
933.103,4024.7642,
930.193,4053.6752,
927.282,4053.2416,
924.372,4060.0065,
921.461,3989.4442,
918.551,3915.0766,
915.640,3873.9258,
912.729,3840.6495,
909.819,3765.9811,
906.908,3721.3326,
903.998,3719.6704,
901.087,3751.7003,
898.176,3770.8294,
895.266,3773.462,
892.355,3784.2568,
889.445,3823.7024,
886.534,3850.5909,
883.624,3910.3744,
880.713,3941.4682,
877.802,3951.0859,
874.892,3958.8527,
871.981,3948.5532,
869.071,3892.5806,
866.160,3932.5521,
863.250,3928.1407,
860.339,3878.8168,
857.428,3838.0838,
854.518,3856.0916,
851.607,3863.5803,
848.697,3836.6745,
845.786,3862.2785,
842.875,3889.8354,
839.965,3890.322,
837.054,3960.8843,
834.144,3961.7131,
831.233,3976.5406,
828.323,4028.3865,
825.412,4075.1629,
822.501,4061.4916,
819.591,3970.5877,
816.680,3954.2532,
813.770,3905.7668,
810.859,3839.6171,
807.949,3776.4408,
805.038,3736.6715,
802.127,3743.2565,
799.217,3720.0225,
796.306,3716.9831,
793.396,3719.707,
790.485,3731.1416,
787.574,3783.2726,
784.664,3846.4212,
781.753,3884.7144,
778.843,3930.7105,
775.932,3967.0355,
773.022,3957.2933,
770.111,3863.2718,
767.200,3800.5379,
764.290,3778.252,
761.379,3747.6981,
758.469,3705.0379,
755.558,3701.0727,
752.648,3674.1908,
749.737,3634.93,
746.826,3566.9893,
743.916,3427.7829,
741.005,3162.7778,
738.095,2692.7011,
735.184,2215.7048,
732.274,2119.9229,
729.363,2447.471,
726.452,3046.2727,
723.542,3491.439,
720.631,3625.9686,
717.721,3717.7324,
714.810,3780.2896,
711.899,3806.4195,
708.989,3783.0187,
706.078,3826.9467,
703.168,3844.5544,
700.257,3830.3093,
697.347,3814.7434,
694.436,3851.6273,
691.525,3768.8354,
688.615,3803.7035,
685.704,3844.804,
682.794,3852.258,
679.883,3837.1189,
676.973,3909.2423,
674.062,3931.532,
671.151,3945.9566,
668.241,3944.3419,
665.330,3898.5179,
662.420,3912.0963,
659.509,3918.0497,
656.598,3970.9395,
653.688,4062.2595,
650.777,4143.767,
647.867,4140.5817,
644.956,4175.7857,
642.046,4138.1729,
639.135,4048.4252,
636.224,4027.7437,
633.314,4001.5437,
630.403,3974.7738,
627.493,3942.0554,
624.582,3907.9904,
621.672,3890.5666,
618.761,3857.1976,
615.850,3883.7912,
612.940,3926.8533,
610.029,3949.2445,
607.119,3933.4519,
604.208,3921.2248,
601.297,3890.9521,
598.387,3846.5305,
595.476,3802.0635,
592.566,3814.6566,
589.655,3801.9735,
586.745,3746.5724,
583.834,3679.1658,
580.923,3658.6712,
578.013,3624.9277,
575.102,3663.4828,
572.192,3724.9568,
569.281,3789.0282,
566.371,3884.5083,
563.460,3959.4835,
560.549,3996.1333,
557.639,4007.4864,
554.728,4016.4572,
551.818,4089.0266,
548.907,4128.0327,
545.996,4143.2638,
543.086,4126.7632,
540.175,4047.3413,
537.265,4068.6733,
534.354,4042.7533,
531.444,4010.7762,
528.533,4022.0338,
525.622,4038.3287,
522.712,4047.3358,
519.801,4071.8784,
516.891,4095.8587,
513.980,4046.3037,
511.070,4084.8402,
508.159,4124.3655,
505.248,4153.6333,
502.338,4172.6598,
499.427,4233.6345,
496.517,4240.8245,
493.606,4241.2778,
490.695,4255.875,
487.785,4255.875,
484.874,4251.9977,
481.964,4273.5459,
479.053,4285.5475,
476.143,4196.4638,
473.232,4211.7377,
470.321,4190.1938,
467.411,4166.7261,
464.500,4189.6423,
461.590,4180.4534,
458.679,4212.5436,
455.769,4251.9022,
452.858,4279.3745,
449.947,4312.9875,
447.037,4328.3696,
444.126,4314.2811,
441.216,4290.7966,
438.305,4347.9415,
435.395,4314.5699,
432.484,4292.4582,
429.573,4286.1949,
426.663,4261.8704,
423.752,4261.2698,
420.842,4248.1744,
417.931,4260.5323,
415.020,4361.394,
412.110,4438.7679,
409.199,4518.6867,
406.289,4559.6082,
403.378,4515.6291,
400.468,4443.0536,
397.557,4412.6769,
394.646,4378.6711,
391.736,4299.2734,
388.825,4124.2917,
385.915,4049.4585,
383.004,4063.1402,
380.094,4155.1708,
377.183,4278.5769,
374.272,4444.2279,
371.362,4556.641,
368.451,4562.0604,
365.541,4581.5743,
362.630,4622.3806,
359.719,4651.579,
356.809,4652.778,
353.898,4684.2275,
350.988,4685.8227,
348.077,4664.4833,
345.167,4627.9346,
342.256,4648.8525,
339.345,4655.9379,
336.435,4669.3667,
333.524,4703.6131,
330.614,4758.7546,
327.703,4787.1699,
324.793,4801.7419,
321.882,4813.158,
318.971,4929.8785,
316.061,5007.4752,
313.150,5081.7487,
310.240,5193.8082,
307.329,5274.3412,
304.418,5291.1964,
301.508,5241.5949,
298.597,5116.4645,
295.687,5081.4943,
292.776,5131.1253,
289.866,5316.984,
286.955,5791.9845,
284.044,6203.9547,
281.134,6523.8483,
278.223,6763.6582,
275.313,7008.2942,
272.402,7226.0133,
269.492,7428.5736,
266.581,7619.277,
263.670,7792.7795,
260.760,7885.7104,
257.849,7951.5642,
254.939,8027.888,
252.028,8034.6658,
249.117,8032.7636,
246.207,8023.1397,
243.296,8004.8388,
240.386,7946.7177,
237.475,7879.2247,
234.565,7817.6096,
231.654,7809.5754,
228.743,7755.5165,
225.833,7699.191,
222.922,7654.1866,
220.012,7553.646,
217.101,7544.9201,
214.191,7540.8065,
211.280,7444.0539,
208.369,7366.9024,
205.459,7291.7522,
202.548,7214.5825,
199.638,7126.0533,
196.727,7110.1799,
193.816,7088.3952,
190.906,7031.4879,
187.995,6963.4296,
185.085,6965.4092,
182.174,7003.4733,
179.264,7038.8888,
176.353,6959.5737,
173.442,6916.138,
170.532,6916.5826,
167.621,6871.1611,
164.711,6750.6081,
161.800,6561.4506,
158.890,6293.7119,
155.979,5915.9236,
153.068,5426.604,
150.158,4834.8577,
147.247,4147.0595,
144.337,3408.3537,
141.426,2683.585,
138.516,2004.689,
135.605,1425.5655,
132.694,973.72925,
129.784,639.59715,
126.873,432.92462,
123.963,300.96192,
121.052,206.81239,
118.141,141.13341,
115.231,119.55789,
112.320,98.589558,
109.410,78.466119,
106.499,60.662238,
103.589,59.116018,
100.678,52.997971,
97.767,32.380781,
94.857,36.032934,
91.946,41.099887,
89.036,44.407327,
86.125,35.187659,
83.215,33.40592,
80.304,33.156702,
77.393,31.032192,
74.483,32.840405,
71.572,30.613831,
68.662,24.390128,
65.751,19.44497,
62.840,21.728616,
59.930,26.436859,
57.019,28.552105,
54.109,24.097713,
51.198,20.271781,
48.288,18.880662,
45.377,19.584041,
42.466,18.226123,
39.556,16.795949,
36.645,22.41347,
33.735,20.240261,
30.824,15.549678,
27.914,11.342627,
25.003,14.610825,
22.092,18.489523,
19.182,21.875,
16.271,21.875,
13.361,69.078293,
10.450,170.2925,
7.539,381.88205,
4.629,616.03977,
1.718,728.28256,
-1.192,547.02498,
-4.103,326.99009,
-7.013,139.98259,
-9.924,2.875,
