,PL22D5~1,
Raman shift [1/cm],Intensity,
3014.167,-4.875,
3011.256,1.3749463,
3008.346,92.230214,
3005.435,108.28048,
3002.525,117.71001,
2999.614,113.125,
2996.704,100.85902,
2993.793,120.86809,
2990.882,122.17082,
2987.972,107.27635,
2985.061,134.90825,
2982.151,149.73846,
2979.240,147.7077,
2976.329,142.85998,
2973.419,159.3096,
2970.508,164.44164,
2967.598,159.74267,
2964.687,159.28872,
2961.777,168.03099,
2958.866,177.11758,
2955.955,173.46573,
2953.045,184.14291,
2950.134,187.06085,
2947.224,205.98266,
2944.313,199.77671,
2941.403,205.94662,
2938.492,206.125,
2935.581,208.94217,
2932.671,198.32673,
2929.760,206.05577,
2926.850,211.75921,
2923.939,228.00349,
2921.028,223.10725,
2918.118,216.18672,
2915.207,228.94777,
2912.297,232.10807,
2909.386,224.30019,
2906.476,230.24857,
2903.565,230.07685,
2900.654,229.79537,
2897.744,231.93642,
2894.833,220.42391,
2891.923,218.6378,
2889.012,216.95737,
2886.102,222.54121,
2883.191,220.12878,
2880.280,196.5939,
2877.370,159.72975,
2874.459,155.35153,
2871.549,190.9673,
2868.638,212.67138,
2865.727,238.78269,
2862.817,231.56752,
2859.906,229.03668,
2856.996,233.13859,
2854.085,242.44855,
2851.175,228.38705,
2848.264,233.62016,
2845.353,237.125,
2842.443,228.34032,
2839.532,215.90111,
2836.622,219.21484,
2833.711,223.59126,
2830.801,232.125,
2827.890,226.93794,
2824.979,215.64309,
2822.069,225.23872,
2819.158,236.64522,
2816.248,240.61921,
2813.337,226.93963,
2810.427,237.77927,
2807.516,237.49187,
2804.605,247.83412,
2801.695,235.08553,
2798.784,227.01208,
2795.874,243.27012,
2792.963,242.41074,
2790.052,254.12264,
2787.142,249.57231,
2784.231,243.83463,
2781.321,245.81646,
2778.410,248.65547,
2775.500,236.59328,
2772.589,235.66475,
2769.678,248.62674,
2766.768,252.48812,
2763.857,252.967,
2760.947,249.60924,
2758.036,239.50075,
2755.126,257.4626,
2752.215,249.31595,
2749.304,256.48651,
2746.394,256.51206,
2743.483,268.575,
2740.573,251.26873,
2737.662,265.33802,
2734.751,254.1008,
2731.841,257.26053,
2728.930,263.24785,
2726.020,262.11979,
2723.109,265.21767,
2720.199,259.98748,
2717.288,260.94982,
2714.377,249.54598,
2711.467,271.07555,
2708.556,276.34858,
2705.646,266.74471,
2702.735,266.30284,
2699.825,283.48321,
2696.914,277.9818,
2694.003,261.95101,
2691.093,282.9108,
2688.182,278.25167,
2685.272,289.69115,
2682.361,271.94269,
2679.450,275.07971,
2676.540,277.125,
2673.629,276.12949,
2670.719,272.19801,
2667.808,274.93046,
2664.898,278.93045,
2661.987,279.99198,
2659.076,289.50647,
2656.166,305.93026,
2653.255,289.19983,
2650.345,288.69306,
2647.434,293.58256,
2644.524,302.56142,
2641.613,299.66806,
2638.702,299.18812,
2635.792,291.24963,
2632.881,292.39289,
2629.971,307.70228,
2627.060,311.62282,
2624.149,314.88439,
2621.239,300.37945,
2618.328,307.74352,
2615.418,305.76137,
2612.507,315.40169,
2609.597,314.03318,
2606.686,295.82582,
2603.775,312.56548,
2600.865,318.71205,
2597.954,328.87923,
2595.044,310.40224,
2592.133,323.73647,
2589.223,333.93238,
2586.312,324.44159,
2583.401,321.125,
2580.491,327.65864,
2577.580,341.09034,
2574.670,320.95521,
2571.759,329.73116,
2568.848,323.60008,
2565.938,330.79176,
2563.027,320.68635,
2560.117,322.58294,
2557.206,339.20618,
2554.296,343.0655,
2551.385,333.125,
2548.474,331.71756,
2545.564,352.42858,
2542.653,328.44043,
2539.743,337.11268,
2536.832,350.20725,
2533.922,346.09346,
2531.011,344.94993,
2528.100,342.32708,
2525.190,345.24016,
2522.279,341.54708,
2519.369,355.55863,
2516.458,352.55843,
2513.548,346.59764,
2510.637,356.69462,
2507.726,356.68264,
2504.816,360.43616,
2501.905,365.11037,
2498.995,355.99034,
2496.084,343.33757,
2493.173,360.65149,
2490.263,359.54081,
2487.352,369.91793,
2484.442,384.70745,
2481.531,381.3909,
2478.621,376.14392,
2475.710,374.06366,
2472.799,365.63173,
2469.889,373.82031,
2466.978,374.74365,
2464.068,373.99803,
2461.157,372.70249,
2458.247,372.99262,
2455.336,378.6984,
2452.425,377.77594,
2449.515,381.49299,
2446.604,385.88766,
2443.694,387.96217,
2440.783,391.17342,
2437.872,389.67197,
2434.962,399.3969,
2432.051,395.87827,
2429.141,402.56622,
2426.230,401.125,
2423.320,418.51118,
2420.409,407.06716,
2417.498,419.52668,
2414.588,410.95013,
2411.677,402.34015,
2408.767,406.86024,
2405.856,406.87736,
2402.946,425.50033,
2400.035,430.32688,
2397.124,434.85765,
2394.214,406.96419,
2391.303,426.62771,
2388.393,415.95519,
2385.482,432.11158,
2382.571,432.17624,
2379.661,418.45047,
2376.750,417.54872,
2373.840,427.94991,
2370.929,421.25496,
2368.019,446.3904,
2365.108,440.70615,
2362.197,435.95785,
2359.287,443.89826,
2356.376,448.12324,
2353.466,455.5034,
2350.555,453.61973,
2347.645,442.125,
2344.734,449.21718,
2341.823,449.15817,
2338.913,440.83545,
2336.002,445.60824,
2333.092,465.58446,
2330.181,457.99974,
2327.270,468.1349,
2324.360,476.10851,
2321.449,465.71004,
2318.539,465.50725,
2315.628,480.35082,
2312.718,476.75935,
2309.807,476.78343,
2306.896,473.63674,
2303.986,482.04062,
2301.075,486.50798,
2298.165,476.5479,
2295.254,480.9742,
2292.344,478.65198,
2289.433,479.48409,
2286.522,488.69194,
2283.612,491.81505,
2280.701,499.91422,
2277.791,500.12313,
2274.880,482.97287,
2271.969,500.00154,
2269.059,501.0896,
2266.148,507.7477,
2263.238,500.72732,
2260.327,519.05603,
2257.417,521.92055,
2254.506,519.96539,
2251.595,512.25583,
2248.685,523.59807,
2245.774,522.32283,
2242.864,515.03272,
2239.953,529.49049,
2237.043,537.63178,
2234.132,548.63147,
2231.221,543.88723,
2228.311,553.17266,
2225.400,544.26573,
2222.490,545.78291,
2219.579,534.20214,
2216.669,557.54153,
2213.758,566.64525,
2210.847,564.54313,
2207.937,572.79926,
2205.026,594.34686,
2202.116,610.9424,
2199.205,635.89959,
2196.294,642.439,
2193.384,637.57249,
2190.473,655.85857,
2187.563,676.15883,
2184.652,687.94458,
2181.742,713.35205,
2178.831,692.85645,
2175.920,703.01755,
2173.010,722.22477,
2170.099,702.06051,
2167.189,749.07477,
2164.278,742.85867,
2161.368,747.98204,
2158.457,756.47941,
2155.546,764.56442,
2152.636,792.69407,
2149.725,817.60821,
2146.815,816.25848,
2143.904,823.22908,
2140.993,837.31542,
2138.083,845.6539,
2135.172,847.52844,
2132.262,863.50616,
2129.351,844.22487,
2126.441,821.22204,
2123.530,821.04643,
2120.619,809.17108,
2117.709,767.31381,
2114.798,731.29801,
2111.888,705.72572,
2108.977,693.93957,
2106.067,687.78284,
2103.156,656.97028,
2100.245,658.11308,
2097.335,635.51244,
2094.424,611.99719,
2091.514,627.91807,
2088.603,641.0743,
2085.692,617.29987,
2082.782,614.26146,
2079.871,611.08883,
2076.961,645.60646,
2074.050,621.07652,
2071.140,624.63039,
2068.229,645.13152,
2065.318,628.70449,
2062.408,619.55692,
2059.497,632.54168,
2056.587,623.22989,
2053.676,633.45734,
2050.766,611.28046,
2047.855,616.89717,
2044.944,607.79488,
2042.034,603.86495,
2039.123,607.22264,
2036.213,599.60284,
2033.302,618.58153,
2030.391,605.24399,
2027.481,634.57588,
2024.570,630.2683,
2021.660,621.47978,
2018.749,609.08701,
2015.839,606.91437,
2012.928,605.10151,
2010.017,612.1391,
2007.107,588.89323,
2004.196,611.01792,
2001.286,608.39359,
1998.375,612.82579,
1995.465,598.1,
1992.554,593.87793,
1989.643,571.91997,
1986.733,580.76711,
1983.822,589.16267,
1980.912,576.81853,
1978.001,592.67602,
1975.090,584.32805,
1972.180,570.57449,
1969.269,580.90094,
1966.359,601.71963,
1963.448,584.86211,
1960.538,557.83726,
1957.627,592.35723,
1954.716,568.95808,
1951.806,546.91985,
1948.895,562.50759,
1945.985,566.35049,
1943.074,568.32062,
1940.164,560.41345,
1937.253,557.4033,
1934.342,566.72339,
1931.432,562.53825,
1928.521,554.37198,
1925.611,551.0796,
1922.700,554.66505,
1919.790,560.43131,
1916.879,550.89224,
1913.968,553.12131,
1911.058,538.30519,
1908.147,563.14685,
1905.237,526.50737,
1902.326,534.80648,
1899.415,527.18841,
1896.505,520.69128,
1893.594,525.39635,
1890.684,533.28836,
1887.773,536.39229,
1884.863,534.48719,
1881.952,539.70494,
1879.041,531.53414,
1876.131,551.74198,
1873.220,538.81962,
1870.310,515.70351,
1867.399,555.45327,
1864.489,567.81345,
1861.578,557.41642,
1858.667,534.79264,
1855.757,555.12858,
1852.846,555.1455,
1849.936,569.24111,
1847.025,576.94738,
1844.114,562.40964,
1841.204,550.71591,
1838.293,560.64412,
1835.383,550.7645,
1832.472,575.2537,
1829.562,560.46249,
1826.651,550.64655,
1823.740,569.41238,
1820.830,582.06994,
1817.919,574.35248,
1815.009,587.53721,
1812.098,582.04626,
1809.188,579.24904,
1806.277,604.54957,
1803.366,566.69063,
1800.456,600.83944,
1797.545,609.06847,
1794.635,571.31803,
1791.724,588.76574,
1788.813,613.94017,
1785.903,640.02049,
1782.992,575.41711,
1780.082,574.47198,
1777.171,543.45744,
1774.261,554.72529,
1771.350,586.85275,
1768.439,604.36005,
1765.529,612.76111,
1762.618,625.61878,
1759.708,639.59238,
1756.797,635.97348,
1753.887,612.68768,
1750.976,624.42866,
1748.065,636.75173,
1745.155,618.07349,
1742.244,633.29978,
1739.334,633.485,
1736.423,637.31003,
1733.512,641.125,
1730.602,662.81749,
1727.691,654.00413,
1724.781,655.41761,
1721.870,680.46323,
1718.960,668.03589,
1716.049,643.15063,
1713.138,703.24969,
1710.228,675.83193,
1707.317,716.12271,
1704.407,723.0234,
1701.496,681.1938,
1698.586,688.21281,
1695.675,683.51075,
1692.764,679.33811,
1689.854,701.12895,
1686.943,747.5399,
1684.033,722.79558,
1681.122,728.02305,
1678.211,755.85851,
1675.301,760.11267,
1672.390,784.1908,
1669.480,806.56621,
1666.569,860.61716,
1663.659,821.43532,
1660.748,840.68417,
1657.837,868.95004,
1654.927,863.11647,
1652.016,945.76051,
1649.106,931.41877,
1646.195,943.98815,
1643.285,980.28711,
1640.374,1030.6058,
1637.463,1052.7647,
1634.553,1034.3959,
1631.642,1119.7765,
1628.732,1179.5161,
1625.821,1245.1531,
1622.911,1287.8827,
1620.000,1373.0415,
1617.089,1367.2643,
1614.179,1516.782,
1611.268,1571.1917,
1608.358,1697.038,
1605.447,1762.5255,
1602.536,1788.4903,
1599.626,1768.9665,
1596.715,1737.1742,
1593.805,1766.3209,
1590.894,1768.3637,
1587.984,1765.5267,
1585.073,1723.435,
1582.162,1678.5551,
1579.252,1635.9381,
1576.341,1672.1835,
1573.431,1622.0374,
1570.520,1606.6538,
1567.610,1576.5755,
1564.699,1556.6996,
1561.788,1509.4634,
1558.878,1463.1317,
1555.967,1452.7677,
1553.057,1412.6599,
1550.146,1369.4596,
1547.235,1328.7893,
1544.325,1318.1735,
1541.414,1349.4276,
1538.504,1307.4411,
1535.593,1294.8688,
1532.683,1358.3662,
1529.772,1349.6816,
1526.861,1335.0344,
1523.951,1366.1068,
1521.040,1357.0796,
1518.130,1336.6683,
1515.219,1343.2856,
1512.309,1330.5575,
1509.398,1349.6878,
1506.487,1333.5031,
1503.577,1309.1895,
1500.666,1261.1104,
1497.756,1244.2859,
1494.845,1234.6453,
1491.934,1247.0778,
1489.024,1232.6404,
1486.113,1204.3085,
1483.203,1169.2628,
1480.292,1132.0331,
1477.382,1158.4549,
1474.471,1135.4298,
1471.560,1104.355,
1468.650,1062.6446,
1465.739,1056.7324,
1462.829,1080.0295,
1459.918,1095.4399,
1457.008,1078.8324,
1454.097,1099.4084,
1451.186,1090.6472,
1448.276,1028.5148,
1445.365,1043.8019,
1442.455,1027.1315,
1439.544,1041.6309,
1436.633,1051.5411,
1433.723,992.125,
1430.812,994.2676,
1427.902,1020.5387,
1424.991,995.89688,
1422.081,971.2706,
1419.170,979.49372,
1416.259,990.03569,
1413.349,1039.7052,
1410.438,1048.1272,
1407.528,1018.0878,
1404.617,984.92402,
1401.707,958.87649,
1398.796,941.93271,
1395.885,929.09738,
1392.975,880.16504,
1390.064,780.57701,
1387.154,701.14294,
1384.243,654.60581,
1381.332,614.08488,
1378.422,694.70466,
1375.511,705.94603,
1372.601,792.75261,
1369.690,868.7028,
1366.780,929.23118,
1363.869,953.02216,
1360.958,1002.0197,
1358.048,1023.9384,
1355.137,1070.9622,
1352.227,1117.7852,
1349.316,1116.2926,
1346.406,1131.3927,
1343.495,1209.2836,
1340.584,1279.1971,
1337.674,1238.2322,
1334.763,1241.9831,
1331.853,1317.0888,
1328.942,1336.1354,
1326.032,1350.3593,
1323.121,1382.7636,
1320.210,1369.8178,
1317.300,1434.2649,
1314.389,1483.5277,
1311.479,1484.057,
1308.568,1482.3004,
1305.657,1461.6963,
1302.747,1452.4586,
1299.836,1506.6533,
1296.926,1547.5351,
1294.015,1577.8727,
1291.105,1668.9403,
1288.194,1755.4081,
1285.283,1787.7291,
1282.373,1826.0311,
1279.462,1837.4389,
1276.552,1858.07,
1273.641,1884.9493,
1270.731,1869.5981,
1267.820,1847.4631,
1264.909,1846.0815,
1261.999,1879.5286,
1259.088,1808.3831,
1256.178,1857.2253,
1253.267,1782.5007,
1250.356,1765.252,
1247.446,1767.3648,
1244.535,1763.1518,
1241.625,1738.7288,
1238.714,1700.8978,
1235.804,1693.4599,
1232.893,1705.766,
1229.982,1632.8797,
1227.072,1625.6372,
1224.161,1578.0568,
1221.251,1560.1909,
1218.340,1496.8785,
1215.430,1444.8563,
1212.519,1437.7274,
1209.608,1447.7706,
1206.698,1449.1676,
1203.787,1461.0446,
1200.877,1494.6852,
1197.966,1519.8616,
1195.055,1539.0432,
1192.145,1578.1895,
1189.234,1651.1115,
1186.324,1729.9476,
1183.413,1788.4397,
1180.503,1800.6348,
1177.592,1778.3069,
1174.681,1792.6318,
1171.771,1796.0838,
1168.860,1794.2976,
1165.950,1782.8369,
1163.039,1751.4905,
1160.129,1742.6641,
1157.218,1745.6057,
1154.307,1736.4783,
1151.397,1733.4196,
1148.486,1762.4333,
1145.576,1712.354,
1142.665,1694.5958,
1139.754,1724.8565,
1136.844,1692.908,
1133.933,1686.0956,
1131.023,1683.211,
1128.112,1664.269,
1125.202,1652.782,
1122.291,1657.3649,
1119.380,1631.4108,
1116.470,1660.5343,
1113.559,1628.5555,
1110.649,1599.1345,
1107.738,1583.7668,
1104.828,1596.1851,
1101.917,1616.2787,
1099.006,1607.4755,
1096.096,1609.555,
1093.185,1616.579,
1090.275,1655.97,
1087.364,1683.6503,
1084.453,1696.6247,
1081.543,1716.3392,
1078.632,1719.8883,
1075.722,1689.8355,
1072.811,1722.3804,
1069.901,1711.9012,
1066.990,1708.7,
1064.079,1692.4732,
1061.169,1677.9451,
1058.258,1662.3848,
1055.348,1666.4685,
1052.437,1705.6652,
1049.527,1693.4607,
1046.616,1702.149,
1043.705,1695.4173,
1040.795,1690.571,
1037.884,1701.2627,
1034.974,1705.6765,
1032.063,1688.5944,
1029.153,1676.3061,
1026.242,1694.4702,
1023.331,1677.6261,
1020.421,1686.6728,
1017.510,1700.5291,
1014.600,1721.9276,
1011.689,1745.2608,
1008.778,1754.0047,
1005.868,1759.7737,
1002.957,1832.0434,
1000.047,1891.901,
997.136,1959.4604,
994.226,1960.664,
991.315,1900.5532,
988.404,1854.5581,
985.494,1835.8373,
982.583,1822.989,
979.673,1807.9554,
976.762,1806.6476,
973.852,1809.567,
970.941,1797.9734,
968.030,1777.391,
965.120,1823.8887,
962.209,1767.6209,
959.299,1785.7467,
956.388,1801.6047,
953.477,1802.6588,
950.567,1798.0793,
947.656,1801.8096,
944.746,1852.783,
941.835,1867.2722,
938.925,1835.2483,
936.014,1866.696,
933.103,1908.4162,
930.193,1889.9325,
927.282,1865.9957,
924.372,1882.0623,
921.461,1846.5686,
918.551,1818.0207,
915.640,1813.4992,
912.729,1803.3401,
909.819,1753.9043,
906.908,1767.3831,
903.998,1763.3528,
901.087,1764.0345,
898.176,1757.9671,
895.266,1759.3296,
892.355,1783.6797,
889.445,1808.0185,
886.534,1837.3455,
883.624,1831.6869,
880.713,1849.6014,
877.802,1859.9663,
874.892,1833.6319,
871.981,1817.5332,
869.071,1792.4708,
866.160,1789.5049,
863.250,1797.4638,
860.339,1819.8759,
857.428,1839.5161,
854.518,1803.5583,
851.607,1818.5355,
848.697,1812.1834,
845.786,1795.6698,
842.875,1796.3592,
839.965,1832.237,
837.054,1891.911,
834.144,1872.8497,
831.233,1863.7921,
828.323,1865.0816,
825.412,1871.0568,
822.501,1871.4015,
819.591,1850.7415,
816.680,1824.4839,
813.770,1810.607,
810.859,1813.7961,
807.949,1815.6835,
805.038,1794.5321,
802.127,1781.362,
799.217,1796.5236,
796.306,1781.6924,
793.396,1768.8502,
790.485,1778.6001,
787.574,1800.4328,
784.664,1834.8775,
781.753,1847.8348,
778.843,1868.768,
775.932,1875.0882,
773.022,1844.3211,
770.111,1819.7937,
767.200,1822.6929,
764.290,1825.8586,
761.379,1831.4575,
758.469,1816.7798,
755.558,1736.0034,
752.648,1731.9304,
749.737,1699.7911,
746.826,1637.9016,
743.916,1533.0723,
741.005,1365.4038,
738.095,1093.4251,
735.184,782.96678,
732.274,682.11705,
729.363,879.75029,
726.452,1303.8719,
723.542,1590.3971,
720.631,1723.0995,
717.721,1775.7375,
714.810,1796.1193,
711.899,1802.1646,
708.989,1772.3084,
706.078,1818.6006,
703.168,1816.7661,
700.257,1797.8107,
697.347,1781.3861,
694.436,1775.5178,
691.525,1789.9863,
688.615,1808.2189,
685.704,1806.7644,
682.794,1798.0398,
679.883,1812.6472,
676.973,1779.791,
674.062,1828.6381,
671.151,1820.237,
668.241,1765.5513,
665.330,1757.3394,
662.420,1825.2316,
659.509,1844.8394,
656.598,1859.3765,
653.688,1888.6177,
650.777,1936.909,
647.867,1930.5384,
644.956,1928.5058,
642.046,1904.4929,
639.135,1869.2385,
636.224,1861.8186,
633.314,1800.6854,
630.403,1804.0437,
627.493,1812.9002,
624.582,1809.6564,
621.672,1825.4963,
618.761,1825.3651,
615.850,1809.6973,
612.940,1812.1525,
610.029,1840.9935,
607.119,1840.2038,
604.208,1792.5541,
601.297,1797.0539,
598.387,1802.4939,
595.476,1755.8279,
592.566,1752.6796,
589.655,1766.3786,
586.745,1754.1624,
583.834,1726.5879,
580.923,1720.689,
578.013,1648.4935,
575.102,1654.9365,
572.192,1720.572,
569.281,1806.3746,
566.371,1818.8966,
563.460,1839.8781,
560.549,1859.3324,
557.639,1871.9307,
554.728,1874.2235,
551.818,1875.7842,
548.907,1896.2356,
545.996,1903.6819,
543.086,1897.1382,
540.175,1906.4819,
537.265,1869.4625,
534.354,1878.2028,
531.444,1903.0756,
528.533,1909.3942,
525.622,1927.241,
522.712,1894.7198,
519.801,1875.7076,
516.891,1893.1413,
513.980,1942.6963,
511.070,1935.8554,
508.159,1938.2885,
505.248,1945.3739,
502.338,1943.6898,
499.427,1962.9856,
496.517,1959.6402,
493.606,1961.5373,
490.695,1978.339,
487.785,1979.8786,
484.874,1977.5401,
481.964,1988.5833,
479.053,1995.0935,
476.143,1949.0158,
473.232,1949.722,
470.321,1939.9337,
467.411,1938.2554,
464.500,1967.2135,
461.590,1931.2237,
458.679,1953.0421,
455.769,1980.3853,
452.858,1984.6362,
449.947,1999.1509,
447.037,1983.3154,
444.126,1978.1492,
441.216,1989.5958,
438.305,1986.5481,
435.395,1966.4559,
432.484,1971.5448,
429.573,1983.0074,
426.663,1939.6794,
423.752,1909.6231,
420.842,1895.8416,
417.931,1894.4178,
415.020,1898.968,
412.110,1997.1612,
409.199,2048.2839,
406.289,2060.4353,
403.378,2049.02,
400.468,2018.0242,
397.557,1992.1864,
394.646,1956.9241,
391.736,1898.9137,
388.825,1798.601,
385.915,1739.8543,
383.004,1727.8311,
380.094,1768.0369,
377.183,1883.9183,
374.272,1974.2025,
371.362,2040.4903,
368.451,2082.4897,
365.541,2088.494,
362.630,2116.8908,
359.719,2140.3089,
356.809,2142.5813,
353.898,2133.5957,
350.988,2105.6281,
348.077,2097.1934,
345.167,2130.9035,
342.256,2166.0158,
339.345,2153.8048,
336.435,2139.9544,
333.524,2155.031,
330.614,2152.0504,
327.703,2173.7148,
324.793,2189.1958,
321.882,2172.226,
318.971,2213.8587,
316.061,2237.8913,
313.150,2249.9726,
310.240,2255.9095,
307.329,2311.152,
304.418,2293.4571,
301.508,2223.0849,
298.597,2136.4562,
295.687,2051.2424,
292.776,2037.0418,
289.866,2126.2634,
286.955,2397.3757,
284.044,2594.8823,
281.134,2758.2203,
278.223,2893.9988,
275.313,2995.6848,
272.402,3104.2605,
269.492,3173.7789,
266.581,3191.9612,
263.670,3245.6294,
260.760,3325.9005,
257.849,3402.0624,
254.939,3450.4986,
252.028,3413.4851,
249.117,3416.0276,
246.207,3426.0862,
243.296,3387.2883,
240.386,3366.1472,
237.475,3317.9379,
234.565,3252.7093,
231.654,3237.3712,
228.743,3212.8364,
225.833,3186.7585,
222.922,3162.5814,
220.012,3150.9245,
217.101,3143.69,
214.191,3120.6731,
211.280,3055.9289,
208.369,2965.0049,
205.459,2917.5355,
202.548,2913.2615,
199.638,2937.2079,
196.727,2903.5185,
193.816,2873.0178,
190.906,2867.9726,
187.995,2863.6285,
185.085,2841.3193,
182.174,2820.2797,
179.264,2828.2301,
176.353,2807.9793,
173.442,2793.9497,
170.532,2786.6807,
167.621,2757.1207,
164.711,2730.7301,
161.800,2668.167,
158.890,2533.578,
155.979,2381.9661,
153.068,2186.7781,
150.158,1952.0526,
147.247,1687.1282,
144.337,1403.3964,
141.426,1112.9832,
138.516,820.49155,
135.605,572.88487,
132.694,389.90485,
129.784,261.12189,
126.873,173.87605,
123.963,118.56637,
121.052,80.776456,
118.141,57.21769,
115.231,52.861578,
112.320,43.499553,
109.410,32.852289,
106.499,31.427979,
103.589,26.642964,
100.678,21.49527,
97.767,17.229644,
94.857,23.361901,
91.946,24.109446,
89.036,20.221817,
86.125,14.548175,
83.215,17.903283,
80.304,18.772942,
77.393,8.8585633,
74.483,10.74554,
71.572,14.299113,
68.662,17.29379,
65.751,8.8163771,
62.840,3.7164901,
59.930,2.4360034,
57.019,7.3715773,
54.109,14.693769,
51.198,18.220172,
48.288,16.074038,
45.377,9.7436354,
42.466,7.5372193,
39.556,7.5494071,
36.645,4.038456,
33.735,6.2404908,
30.824,11.554757,
27.914,19.267684,
25.003,21.370275,
22.092,24.708236,
19.182,30.514009,
16.271,42.405341,
13.361,168.08344,
10.450,447.22356,
7.539,1104.3383,
4.629,1599.3771,
1.718,1800.9204,
-1.192,1467.6854,
-4.103,879.4378,
-7.013,367.51325,
-9.924,2.125,
