,PL4B76~1,
Raman shift [1/cm],Intensity,
3014.167,4.375,
3011.256,-0.6751181,
3008.346,142.92702,
3005.435,172.64355,
3002.525,176.50755,
2999.614,175.375,
2996.704,186.95953,
2993.793,186.24194,
2990.882,192.93988,
2987.972,193.47085,
2985.061,202.17794,
2982.151,215.79519,
2979.240,238.12309,
2976.329,249.87773,
2973.419,250.3139,
2970.508,251.49156,
2967.598,250.375,
2964.687,258.0163,
2961.777,267.28099,
2958.866,278.7019,
2955.955,281.30421,
2953.045,281.00811,
2950.134,286.65198,
2947.224,295.8305,
2944.313,314.07158,
2941.403,307.81524,
2938.492,314.39669,
2935.581,338.46086,
2932.671,321.89431,
2929.760,326.39424,
2926.850,332.42726,
2923.939,341.77688,
2921.028,343.85156,
2918.118,350.4745,
2915.207,354.02699,
2912.297,342.44693,
2909.386,372.36041,
2906.476,358.31321,
2903.565,367.76316,
2900.654,358.93919,
2897.744,361.31214,
2894.833,353.48846,
2891.923,368.02571,
2889.012,338.86633,
2886.102,360.73041,
2883.191,366.36556,
2880.280,341.66686,
2877.370,337.51453,
2874.459,314.42543,
2871.549,349.2173,
2868.638,386.1956,
2865.727,364.11345,
2862.817,374.47526,
2859.906,383.12144,
2856.996,377.35689,
2854.085,383.13551,
2851.175,383.89909,
2848.264,370.60517,
2845.353,385.2456,
2842.443,376.97918,
2839.532,378.8078,
2836.622,385.03776,
2833.711,373.21174,
2830.801,364.0875,
2827.890,386.32951,
2824.979,361.59704,
2822.069,364.6593,
2819.158,377.97337,
2816.248,360.86921,
2813.337,399.67379,
2810.427,377.29374,
2807.516,377.47562,
2804.605,380.47114,
2801.695,376.65135,
2798.784,381.89246,
2795.874,373.79451,
2792.963,381.73213,
2790.052,372.37693,
2787.142,385.88812,
2784.231,384.21351,
2781.321,373.25504,
2778.410,383.05521,
2775.500,378.375,
2772.589,409.60437,
2769.678,390.69581,
2766.768,388.50509,
2763.857,391.79697,
2760.947,399.375,
2758.036,405.30497,
2755.126,409.80449,
2752.215,400.9931,
2749.304,413.69332,
2746.394,405.43346,
2743.483,402.77503,
2740.573,417.77996,
2737.662,387.71523,
2734.751,394.60798,
2731.841,415.10578,
2728.930,413.96416,
2726.020,393.38021,
2723.109,419.53958,
2720.199,417.375,
2717.288,412.48084,
2714.377,417.0832,
2711.467,433.16181,
2708.556,447.84279,
2705.646,434.71297,
2702.735,434.87242,
2699.825,434.33137,
2696.914,445.28001,
2694.003,430.17337,
2691.093,432.10666,
2688.182,436.94019,
2685.272,440.05637,
2682.361,438.34552,
2679.450,450.57661,
2676.540,439.61889,
2673.629,446.39745,
2670.719,437.65966,
2667.808,426.95863,
2664.898,447.30982,
2661.987,450.60812,
2659.076,439.75647,
2656.166,438.39226,
2653.255,457.18793,
2650.345,447.47845,
2647.434,478.26039,
2644.524,468.69156,
2641.613,470.3178,
2638.702,460.51703,
2635.792,465.56045,
2632.881,470.40495,
2629.971,447.5427,
2627.060,467.04,
2624.149,473.94376,
2621.239,463.36907,
2618.328,453.64662,
2615.418,483.70227,
2612.507,476.44618,
2609.597,487.63049,
2606.686,505.5316,
2603.775,478.49405,
2600.865,496.0167,
2597.954,500.7104,
2595.044,512.33072,
2592.133,496.69321,
2589.223,506.23081,
2586.312,501.52074,
2583.401,503.21079,
2580.491,501.66349,
2577.580,518.34034,
2574.670,503.46322,
2571.759,516.07192,
2568.848,507.61254,
2565.938,516.89884,
2563.027,514.57044,
2560.117,499.94505,
2557.206,528.24953,
2554.296,528.86013,
2551.385,536.4491,
2548.474,534.59693,
2545.564,512.88149,
2542.653,510.22735,
2539.743,520.81955,
2536.832,545.00865,
2533.922,526.50115,
2531.011,537.67472,
2528.100,543.70949,
2525.190,542.16557,
2522.279,560.04671,
2519.369,551.26192,
2516.458,563.05347,
2513.548,560.19341,
2510.637,553.57572,
2507.726,540.12593,
2504.816,533.99958,
2501.905,541.11402,
2498.995,555.4195,
2496.084,540.06838,
2493.173,544.90149,
2490.263,546.98178,
2487.352,545.5018,
2484.442,570.52061,
2481.531,564.68887,
2478.621,573.65941,
2475.710,581.14497,
2472.799,554.82788,
2469.889,565.375,
2466.978,592.07578,
2464.068,592.79825,
2461.157,588.1401,
2458.247,574.63976,
2455.336,578.39652,
2452.425,593.42219,
2449.515,599.21493,
2446.604,609.90728,
2443.694,615.84049,
2440.783,614.46847,
2437.872,610.25016,
2434.962,635.73905,
2432.051,619.94249,
2429.141,605.62782,
2426.230,627.13637,
2423.320,622.21788,
2420.409,618.34942,
2417.498,615.16995,
2414.588,611.47008,
2411.677,622.94873,
2408.767,636.09843,
2405.856,633.12736,
2402.946,640.7977,
2400.035,658.55811,
2397.124,650.91512,
2394.214,637.753,
2391.303,639.73408,
2388.393,651.09362,
2385.482,639.99187,
2382.571,664.07155,
2379.661,661.67716,
2376.750,672.74449,
2373.840,674.8656,
2370.929,678.35334,
2368.019,679.44767,
2365.108,681.2572,
2362.197,686.22153,
2359.287,662.61009,
2356.376,683.33097,
2353.466,673.52564,
2350.555,681.23982,
2347.645,671.59884,
2344.734,680.61926,
2341.823,690.25892,
2338.913,690.13171,
2336.002,686.59986,
2333.092,684.74292,
2330.181,702.25474,
2327.270,706.54002,
2324.360,700.16511,
2321.449,697.54508,
2318.539,710.41782,
2315.628,710.98012,
2312.718,717.44108,
2309.807,708.62355,
2306.896,707.19348,
2303.986,738.59583,
2301.075,722.54529,
2298.165,711.56737,
2295.254,724.11648,
2292.344,725.32104,
2289.433,728.69545,
2286.522,731.02228,
2283.612,741.89542,
2280.701,746.10594,
2277.791,759.33493,
2274.880,761.58494,
2271.969,775.30916,
2269.059,767.76191,
2266.148,759.375,
2263.238,771.96959,
2260.327,783.16808,
2257.417,783.45889,
2254.506,802.27532,
2251.595,802.24417,
2248.685,786.48271,
2245.774,758.24358,
2242.864,819.79147,
2239.953,809.55434,
2237.043,793.63394,
2234.132,797.09699,
2231.221,801.71603,
2228.311,810.42266,
2225.400,831.03726,
2222.490,824.01679,
2219.579,843.00738,
2216.669,846.844,
2213.758,861.20246,
2210.847,867.79313,
2207.937,836.71869,
2205.026,869.48579,
2202.116,882.30811,
2199.205,899.97453,
2196.294,914.43299,
2193.384,918.375,
2190.473,928.67078,
2187.563,950.41367,
2184.652,958.97745,
2181.742,978.92251,
2178.831,1019.2544,
2175.920,1053.5991,
2173.010,1092.6012,
2170.099,1098.375,
2167.189,1203.3248,
2164.278,1200.0433,
2161.368,1243.658,
2158.457,1307.4239,
2155.546,1362.1001,
2152.636,1444.4547,
2149.725,1468.7039,
2146.815,1513.84,
2143.904,1562.9846,
2140.993,1587.539,
2138.083,1581.1623,
2135.172,1593.6189,
2132.262,1585.5704,
2129.351,1551.0473,
2126.441,1500.5496,
2123.530,1447.6118,
2120.619,1374.4578,
2117.709,1317.3347,
2114.798,1233.7939,
2111.888,1189.8625,
2108.977,1149.322,
2106.067,1084.6642,
2103.156,1049.3791,
2100.245,1009.3813,
2097.335,1013.4745,
2094.424,971.57175,
2091.514,963.57651,
2088.603,935.25521,
2085.692,930.33037,
2082.782,928.13406,
2079.871,931.30382,
2076.961,937.98753,
2074.050,946.47197,
2071.140,945.31777,
2068.229,921.75522,
2065.318,920.51252,
2062.408,939.06412,
2059.497,919.1607,
2056.587,903.73564,
2053.676,936.12275,
2050.766,919.45348,
2047.855,937.14717,
2044.944,925.38463,
2042.034,901.50798,
2039.123,915.51641,
2036.213,923.62609,
2033.302,902.78825,
2030.391,930.66207,
2027.481,933.77761,
2024.570,916.41815,
2021.660,878.62191,
2018.749,941.46323,
2015.839,919.45112,
2012.928,933.50084,
2010.017,952.82994,
2007.107,931.65161,
2004.196,921.00597,
2001.286,906.43511,
1998.375,913.55513,
1995.465,917.65536,
1992.554,908.48683,
1989.643,935.37265,
1986.733,928.57237,
1983.822,910.56629,
1980.912,887.14726,
1978.001,895.46778,
1975.090,912.58568,
1972.180,893.89364,
1969.269,910.07626,
1966.359,900.64484,
1963.448,908.67356,
1960.538,935.4167,
1957.627,900.14277,
1954.716,910.91537,
1951.806,901.53047,
1948.895,889.45591,
1945.985,919.41748,
1943.074,923.44886,
1940.164,912.30767,
1937.253,893.15797,
1934.342,893.0675,
1931.432,896.90181,
1928.521,886.62198,
1925.611,912.88124,
1922.700,898.63191,
1919.790,937.16062,
1916.879,920.18849,
1913.968,909.38607,
1911.058,919.20381,
1908.147,871.71804,
1905.237,867.67656,
1902.326,903.70689,
1899.415,856.01525,
1896.505,873.07998,
1893.594,893.92073,
1890.684,912.47945,
1887.773,918.246,
1884.863,902.35905,
1881.952,905.34993,
1879.041,918.20937,
1876.131,923.81814,
1873.220,903.45456,
1870.310,907.801,
1867.399,909.35901,
1864.489,936.38888,
1861.578,888.96279,
1858.667,903.20136,
1855.757,898.56712,
1852.846,902.85194,
1849.936,902.07168,
1847.025,939.13655,
1844.114,952.16794,
1841.204,944.96241,
1838.293,953.35005,
1835.383,947.60802,
1832.472,932.15413,
1829.562,957.64948,
1826.651,986.4181,
1823.740,978.08762,
1820.830,947.68187,
1817.919,921.64434,
1815.009,947.34319,
1812.098,944.29626,
1809.188,934.93316,
1806.277,962.73318,
1803.366,967.47482,
1800.456,973.92457,
1797.545,982.17648,
1794.635,973.08404,
1791.724,994.84097,
1788.813,1011.9745,
1785.903,1014.5959,
1782.992,1021.4003,
1780.082,1002.375,
1777.171,981.36374,
1774.261,945.58013,
1771.350,980.51576,
1768.439,1014.8215,
1765.529,1011.8296,
1762.618,1009.4762,
1759.708,1008.9294,
1756.797,1012.4508,
1753.887,1008.2977,
1750.976,1027.9614,
1748.065,1059.736,
1745.155,1038.7172,
1742.244,1045.8741,
1739.334,1055.6362,
1736.423,1072.0385,
1733.512,1062.6392,
1730.602,1063.1072,
1727.691,1065.375,
1724.781,1065.375,
1721.870,1088.7132,
1718.960,1102.5973,
1716.049,1109.4088,
1713.138,1133.4599,
1710.228,1095.6007,
1707.317,1145.9876,
1704.407,1153.375,
1701.496,1151.5519,
1698.586,1157.8429,
1695.675,1173.3463,
1692.764,1176.2684,
1689.854,1184.0285,
1686.943,1231.7224,
1684.033,1177.7907,
1681.122,1207.8312,
1678.211,1213.3274,
1675.301,1281.1653,
1672.390,1287.4587,
1669.480,1315.3991,
1666.569,1318.7686,
1663.659,1350.3549,
1660.748,1409.375,
1657.837,1410.5122,
1654.927,1461.3047,
1652.016,1459.5414,
1649.106,1506.424,
1646.195,1508.6148,
1643.285,1520.1524,
1640.374,1596.6468,
1637.463,1609.9515,
1634.553,1642.4686,
1631.642,1715.8745,
1628.732,1762.3764,
1625.821,1930.4319,
1622.911,2016.8847,
1620.000,2175.3592,
1617.089,2252.8427,
1614.179,2400.1448,
1611.268,2637.3779,
1608.358,2703.5656,
1605.447,2754.4611,
1602.536,2767.6258,
1599.626,2816.2115,
1596.715,2794.9622,
1593.805,2747.6584,
1590.894,2731.807,
1587.984,2689.6687,
1585.073,2692.734,
1582.162,2695.2099,
1579.252,2630.7292,
1576.341,2658.8314,
1573.431,2627.8668,
1570.520,2640.0707,
1567.610,2562.4325,
1564.699,2571.8016,
1561.788,2523.6995,
1558.878,2425.0021,
1555.967,2359.0024,
1553.057,2309.8408,
1550.146,2268.6369,
1547.235,2227.22,
1544.325,2215.1614,
1541.414,2169.0696,
1538.504,2116.1266,
1535.593,2101.532,
1532.683,2086.1871,
1529.772,2040.8755,
1526.861,2000.6053,
1523.951,1971.1029,
1521.040,1909.7453,
1518.130,1905.2085,
1515.219,1899.1743,
1512.309,1907.7758,
1509.398,1861.6715,
1506.487,1874.6586,
1503.577,1860.1707,
1500.666,1846.9273,
1497.756,1844.4429,
1494.845,1855.2538,
1491.934,1804.1545,
1489.024,1736.78,
1486.113,1748.2832,
1483.203,1750.2632,
1480.292,1689.2822,
1477.382,1654.1276,
1474.471,1666.0247,
1471.560,1659.7643,
1468.650,1617.7949,
1465.739,1575.3959,
1462.829,1600.7649,
1459.918,1614.1152,
1457.008,1618.606,
1454.097,1637.5344,
1451.186,1648.197,
1448.276,1653.4232,
1445.365,1656.7336,
1442.455,1669.7286,
1439.544,1640.7737,
1436.633,1594.7355,
1433.723,1642.2685,
1430.812,1599.9661,
1427.902,1607.0593,
1424.991,1593.7906,
1422.081,1565.8507,
1419.170,1547.8219,
1416.259,1523.5033,
1413.349,1516.8645,
1410.438,1518.4743,
1407.528,1519.375,
1404.617,1531.1176,
1401.707,1554.2133,
1398.796,1549.91,
1395.885,1550.2177,
1392.975,1595.7299,
1390.064,1611.4823,
1387.154,1575.0106,
1384.243,1566.2344,
1381.332,1497.8217,
1378.422,1499.4131,
1375.511,1616.5107,
1372.601,1756.6106,
1369.690,1749.5161,
1366.780,1762.2157,
1363.869,1809.2371,
1360.958,1868.9493,
1358.048,1903.2412,
1355.137,1933.9794,
1352.227,1975.8784,
1349.316,2034.0366,
1346.406,2079.9467,
1343.495,2080.0841,
1340.584,2130.5525,
1337.674,2187.2965,
1334.763,2083.7031,
1331.853,2223.715,
1328.942,2181.3439,
1326.032,2193.3187,
1323.121,2270.7305,
1320.210,2295.0432,
1317.300,2312.082,
1314.389,2369.0842,
1311.479,2412.6857,
1308.568,2429.8202,
1305.657,2470.58,
1302.747,2514.0801,
1299.836,2563.0631,
1296.926,2644.7161,
1294.015,2759.6316,
1291.105,2803.1188,
1288.194,2906.6204,
1285.283,2999.3953,
1282.373,3078.2654,
1279.462,3134.1784,
1276.552,3187.4303,
1273.641,3212.6072,
1270.731,3205.1362,
1267.820,3224.8577,
1264.909,3195.8808,
1261.999,3221.6413,
1259.088,3228.9383,
1256.178,3133.4519,
1253.267,3051.3962,
1250.356,3017.1527,
1247.446,2923.5394,
1244.535,2803.9019,
1241.625,2710.0603,
1238.714,2631.3524,
1235.804,2560.8556,
1232.893,2522.3873,
1229.982,2463.7072,
1227.072,2384.9451,
1224.161,2392.8231,
1221.251,2333.5807,
1218.340,2282.5756,
1215.430,2246.0052,
1212.519,2209.0008,
1209.608,2198.1956,
1206.698,2225.4176,
1203.787,2222.9629,
1200.877,2180.9411,
1197.966,2238.4873,
1195.055,2291.7167,
1192.145,2358.2284,
1189.234,2441.6054,
1186.324,2517.288,
1183.413,2536.8014,
1180.503,2530.1789,
1177.592,2544.7789,
1174.681,2508.012,
1171.771,2450.0453,
1168.860,2435.7559,
1165.950,2399.7046,
1163.039,2383.6926,
1160.129,2373.8866,
1157.218,2336.685,
1154.307,2295.4386,
1151.397,2278.076,
1148.486,2254.3779,
1145.576,2236.5655,
1142.665,2217.9193,
1139.754,2225.3249,
1136.844,2182.5556,
1133.933,2192.1138,
1131.023,2202.461,
1128.112,2184.9474,
1125.202,2168.5441,
1122.291,2154.127,
1119.380,2159.4356,
1116.470,2165.6133,
1113.559,2215.0897,
1110.649,2208.4199,
1107.738,2179.1572,
1104.828,2172.9453,
1101.917,2189.6296,
1099.006,2191.9421,
1096.096,2167.1275,
1093.185,2179.4196,
1090.275,2217.6014,
1087.364,2205.1052,
1084.453,2174.0014,
1081.543,2189.3651,
1078.632,2210.3178,
1075.722,2166.1869,
1072.811,2167.9191,
1069.901,2203.7228,
1066.990,2203.1417,
1064.079,2246.6084,
1061.169,2260.7474,
1058.258,2252.8341,
1055.348,2252.3146,
1052.437,2272.6581,
1049.527,2340.375,
1046.616,2340.375,
1043.705,2304.149,
1040.795,2350.2019,
1037.884,2371.2488,
1034.974,2359.2577,
1032.063,2365.4824,
1029.153,2391.5827,
1026.242,2393.3126,
1023.331,2370.0432,
1020.421,2398.8359,
1017.510,2423.46,
1014.600,2465.2094,
1011.689,2502.5378,
1008.778,2490.0513,
1005.868,2547.2013,
1002.957,2639.2592,
1000.047,2777.8631,
997.136,2825.5497,
994.226,2839.3133,
991.315,2861.1596,
988.404,2856.5407,
985.494,2765.1614,
982.583,2800.2802,
979.673,2762.2078,
976.762,2765.7494,
973.852,2760.8106,
970.941,2745.97,
968.030,2770.1323,
965.120,2791.375,
962.209,2791.375,
959.299,2782.1678,
956.388,2785.0946,
953.477,2790.375,
950.567,2779.6566,
947.656,2756.2825,
944.746,2808.9549,
941.835,2840.5283,
938.925,2825.6593,
936.014,2829.5498,
933.103,2814.0089,
930.193,2753.3811,
927.282,2728.9755,
924.372,2647.7972,
921.461,2607.919,
918.551,2617.1267,
915.640,2601.204,
912.729,2564.6687,
909.819,2571.7044,
906.908,2536.3225,
903.998,2572.5525,
901.087,2560.0973,
898.176,2593.6629,
895.266,2651.9926,
892.355,2675.5998,
889.445,2714.206,
886.534,2715.2099,
883.624,2764.4917,
880.713,2768.4711,
877.802,2774.0398,
874.892,2811.5504,
871.981,2772.1777,
869.071,2763.8236,
866.160,2764.4449,
863.250,2758.0362,
860.339,2746.7213,
857.428,2725.9399,
854.518,2673.8083,
851.607,2688.7855,
848.697,2664.5501,
845.786,2652.375,
842.875,2643.9858,
839.965,2627.8361,
837.054,2625.1238,
834.144,2602.7475,
831.233,2613.7072,
828.323,2606.0433,
825.412,2570.0913,
822.501,2530.6517,
819.591,2548.8325,
816.680,2514.1185,
813.770,2487.2064,
810.859,2478.18,
807.949,2473.7603,
805.038,2457.8684,
802.127,2470.2153,
799.217,2438.5778,
796.306,2447.8076,
793.396,2441.5732,
790.485,2412.8501,
787.574,2432.6588,
784.664,2413.7963,
781.753,2411.046,
778.843,2428.0378,
775.932,2441.6714,
773.022,2435.4038,
770.111,2448.485,
767.200,2444.8071,
764.290,2435.2847,
761.379,2423.0731,
758.469,2410.236,
755.558,2397.7672,
752.648,2377.4021,
749.737,2379.9029,
746.826,2341.8813,
743.916,2260.0303,
741.005,2161.9294,
738.095,2078.3061,
735.184,1898.9059,
732.274,1831.375,
729.363,1908.708,
726.452,2089.8796,
723.542,2247.7113,
720.631,2282.3693,
717.721,2324.1729,
714.810,2342.9035,
711.899,2346.8602,
708.989,2408.9934,
706.078,2374.1177,
703.168,2328.3345,
700.257,2306.0253,
697.347,2309.8966,
694.436,2314.8731,
691.525,2296.3856,
688.615,2281.0546,
685.704,2278.6919,
682.794,2284.8431,
679.883,2286.6273,
676.973,2292.2369,
674.062,2308.689,
671.151,2301.5951,
668.241,2289.4754,
665.330,2314.1649,
662.420,2288.6055,
659.509,2308.1373,
656.598,2328.8662,
653.688,2325.4128,
650.777,2287.4542,
647.867,2348.7714,
644.956,2318.4153,
642.046,2288.0582,
639.135,2292.1786,
636.224,2325.3869,
633.314,2327.7688,
630.403,2302.9529,
627.493,2304.9628,
624.582,2341.6721,
621.672,2365.432,
618.761,2381.5738,
615.850,2399.5987,
612.940,2412.0827,
610.029,2418.5315,
607.119,2437.4827,
604.208,2409.5544,
601.297,2415.3216,
598.387,2416.4637,
595.476,2375.1178,
592.566,2382.9885,
589.655,2375.9524,
586.745,2363.1296,
583.834,2338.7608,
580.923,2290.6546,
578.013,2336.9539,
575.102,2332.7409,
572.192,2318.9459,
569.281,2322.5614,
566.371,2356.9968,
563.460,2379.4226,
560.549,2374.7058,
557.639,2369.7005,
554.728,2392.6706,
551.818,2397.3525,
548.907,2397.7656,
545.996,2407.8723,
543.086,2425.8849,
540.175,2432.8927,
537.265,2421.7865,
534.354,2449.9849,
531.444,2467.8848,
528.533,2434.2929,
525.622,2489.3852,
522.712,2523.8249,
519.801,2533.7924,
516.891,2534.9828,
513.980,2577.5691,
511.070,2629.2706,
508.159,2680.8944,
505.248,2731.8989,
502.338,2783.1598,
499.427,2844.1345,
496.517,2877.3447,
493.606,2881.6262,
490.695,2866.4077,
487.785,2881.0337,
484.874,2892.4221,
481.964,2890.7305,
479.053,2881.0073,
476.143,2879.4714,
473.232,2880.8138,
470.321,2862.8851,
467.411,2829.6989,
464.500,2790.5968,
461.590,2838.8384,
458.679,2861.73,
455.769,2863.3888,
452.858,2851.7271,
449.947,2864.7139,
447.037,2904.9942,
444.126,2927.8962,
441.216,2928.4176,
438.305,2945.9421,
435.395,2925.4277,
432.484,2964.6355,
429.573,3034.0675,
426.663,3024.1856,
423.752,2975.2531,
420.842,2970.8157,
417.931,2999.2092,
415.020,3030.3019,
412.110,3033.5698,
409.199,3064.2038,
406.289,3089.9635,
403.378,3073.5825,
400.468,3134.818,
397.557,3095.2478,
394.646,3038.0283,
391.736,3033.6024,
388.825,3009.467,
385.915,3004.5038,
383.004,3036.6426,
380.094,3113.3347,
377.183,3132.1466,
374.272,3173.7413,
371.362,3219.68,
368.451,3260.5694,
365.541,3329.6187,
362.630,3353.2912,
359.719,3367.7339,
356.809,3392.3297,
353.898,3391.5809,
350.988,3382.1527,
348.077,3362.7586,
345.167,3334.8669,
342.256,3344.5788,
339.345,3329.3063,
336.435,3315.5957,
333.524,3322.2675,
330.614,3350.5835,
327.703,3382.9916,
324.793,3403.3127,
321.882,3397.4219,
318.971,3416.7514,
316.061,3434.6062,
313.150,3468.0845,
310.240,3537.8434,
307.329,3541.0896,
304.418,3548.6703,
301.508,3553.4365,
298.597,3538.6282,
295.687,3529.9254,
292.776,3586.792,
289.866,3691.4591,
286.955,3786.7547,
284.044,3932.5674,
281.134,4108.2419,
278.223,4290.6021,
275.313,4387.867,
272.402,4465.3035,
269.492,4546.9322,
266.581,4639.1571,
263.670,4706.0585,
260.760,4722.2407,
257.849,4739.9052,
254.939,4798.6158,
252.028,4805.8896,
249.117,4790.1019,
246.207,4768.375,
243.296,4768.375,
240.386,4721.3596,
237.475,4645.2781,
234.565,4540.3682,
231.654,4394.2915,
228.743,4319.0717,
225.833,4247.6532,
222.922,4158.118,
220.012,4131.1614,
217.101,4067.9056,
214.191,3991.7046,
211.280,3926.2329,
208.369,3901.8634,
205.459,3838.077,
202.548,3761.3889,
199.638,3790.4149,
196.727,3788.308,
193.816,3769.431,
190.906,3742.0161,
187.995,3817.3146,
185.085,3839.5922,
182.174,3838.9009,
179.264,3851.9107,
176.353,3875.1615,
173.442,3914.9294,
170.532,3956.2344,
167.621,3894.9515,
164.711,3836.3296,
161.800,3775.2731,
158.890,3707.6187,
155.979,3535.2512,
153.068,3299.9684,
150.158,3000.0718,
147.247,2604.4801,
144.337,2205.7699,
141.426,1778.7937,
138.516,1307.7961,
135.605,954.77528,
132.694,659.64916,
129.784,424.10735,
126.873,273.93009,
123.963,180.20822,
121.052,117.92725,
118.141,81.518248,
115.231,62.900171,
112.320,48.596825,
109.410,38.693224,
106.499,35.132448,
103.589,37.176272,
100.678,36.11554,
97.767,27.584289,
94.857,22.524077,
91.946,20.778111,
89.036,21.262102,
86.125,20.552897,
83.215,17.720398,
80.304,15.853865,
77.393,17.270205,
74.483,16.06473,
71.572,13.563239,
68.662,10.65207,
65.751,13.477874,
62.840,14.856702,
59.930,15.749572,
57.019,17.159736,
54.109,11.403392,
51.198,7.0733907,
48.288,6.3919873,
45.377,8.5021215,
42.466,8.9627807,
39.556,8.4901186,
36.645,9.1923088,
33.735,7.8172546,
30.824,7.2585479,
27.914,10.063249,
25.003,12.242912,
22.092,11.437573,
19.182,7.4894143,
16.271,10.986865,
13.361,54.520798,
10.450,115.98069,
7.539,136.93015,
4.629,-39.887716,
1.718,-298.50381,
-1.192,-585.03022,
-4.103,-457.55424,
-7.013,-244.60913,
-9.924,0.375,
