,PLDE21~1,
Raman shift [1/cm],Intensity,
3014.167,-2,
3011.256,0.59991411,
3008.346,81.417787,
3005.435,91.575971,
3002.525,105.22763,
2999.614,110.7714,
2996.704,96.725772,
2993.793,99.467744,
2990.882,115.52676,
2987.972,104.13117,
2985.061,122.90639,
2982.151,128.97144,
2979.240,132.79847,
2976.329,140.24863,
2973.419,130.21515,
2970.508,146.7833,
2967.598,132.85663,
2964.687,139.07405,
2961.777,140.84607,
2958.866,145.99258,
2955.955,156.75885,
2953.045,155.56825,
2950.134,165.18075,
2947.224,165.48397,
2944.313,182.44943,
2941.403,185.60721,
2938.492,182.25473,
2935.581,176.45152,
2932.671,187.67809,
2929.760,182.81155,
2926.850,179.41805,
2923.939,200.79906,
2921.028,193.98225,
2918.118,191.30353,
2915.207,209.40493,
2912.297,190.05078,
2909.386,206.57665,
2906.476,214.73593,
2903.565,199.16148,
2900.654,205.78765,
2897.744,205.78627,
2894.833,195.18545,
2891.923,203.1891,
2889.012,188.41619,
2886.102,198.45675,
2883.191,189.01416,
2880.280,176.83731,
2877.370,136.80821,
2874.459,129.57875,
2871.549,166.8423,
2868.638,191.4103,
2865.727,209.36922,
2862.817,190.87034,
2859.906,205.65812,
2856.996,207.97736,
2854.085,220.04203,
2851.175,207.26205,
2848.264,219.559,
2845.353,198.1294,
2842.443,205.19791,
2839.532,208.55223,
2836.622,189,
2833.711,192.15542,
2830.801,186.90662,
2827.890,205.12235,
2824.979,197.13596,
2822.069,200.95451,
2819.158,198.14016,
2816.248,200.74711,
2813.337,213.31952,
2810.427,202.74243,
2807.516,212.99265,
2804.605,221.54807,
2801.695,201.81577,
2798.784,200.48254,
2795.874,201.56992,
2792.963,201.71426,
2790.052,206.99871,
2787.142,209.80258,
2784.231,205.41925,
2781.321,203.3143,
2778.410,211.31979,
2775.500,219.82931,
2772.589,213,
2769.678,218.10578,
2766.768,213.44853,
2763.857,217.158,
2760.947,225.04413,
2758.036,213.36294,
2755.126,222.80983,
2752.215,223.59547,
2749.304,215.40469,
2746.394,236.94154,
2743.483,228.60002,
2740.573,217.90262,
2737.662,229.88314,
2734.751,219.30107,
2731.841,238.08243,
2728.930,228.428,
2726.020,220.21933,
2723.109,232.18533,
2720.199,215.29372,
2717.288,221.63139,
2714.377,217.77508,
2711.467,232.93407,
2708.556,251.08505,
2705.646,236.09855,
2702.735,230.51805,
2699.825,248,
2696.914,252.04773,
2694.003,233.5691,
2691.093,242.07101,
2688.182,244.74667,
2685.272,244.80512,
2682.361,235.72926,
2679.450,252.90943,
2676.540,246.06097,
2673.629,248.00449,
2670.719,256.9196,
2667.808,245.87544,
2664.898,253.10409,
2661.987,247.1001,
2659.076,245.76293,
2656.166,267.98274,
2653.255,248.22449,
2650.345,241.21597,
2647.434,240.40069,
2644.524,258.27814,
2641.613,259.02891,
2638.702,265.98422,
2635.792,259.43769,
2632.881,255.11314,
2629.971,266.95982,
2627.060,271.33375,
2624.149,267.08125,
2621.239,266.75148,
2618.328,266.36419,
2615.418,257.3091,
2612.507,266.13835,
2609.597,269.54092,
2606.686,276.83132,
2603.775,267.67857,
2600.865,273.70311,
2597.954,279.76043,
2595.044,278.63419,
2592.133,282.94264,
2589.223,279.21684,
2586.312,280.46233,
2583.401,273.89781,
2580.491,272.82212,
2577.580,280.9901,
2574.670,279.15106,
2571.759,283.94435,
2568.848,279.82321,
2565.938,287.95231,
2563.027,293.70684,
2560.117,287.36448,
2557.206,301.46494,
2554.296,295.14188,
2551.385,287.05796,
2548.474,282.70372,
2545.564,298.49351,
2542.653,301.36913,
2539.743,291.92606,
2536.832,292.71402,
2533.922,298.15769,
2531.011,306.07516,
2528.100,305.79792,
2525.190,306.04713,
2522.279,303.56278,
2519.369,311.98131,
2516.458,301.10836,
2513.548,293.14552,
2510.637,308.30741,
2507.726,311.12639,
2504.816,312.06314,
2501.905,307.88415,
2498.995,327.92506,
2496.084,313.45298,
2493.173,317.34205,
2490.263,318.39322,
2487.352,321.08347,
2484.442,321.29123,
2481.531,313.84046,
2478.621,320.98108,
2475.710,317.03834,
2472.799,322.49327,
2469.889,325.93906,
2466.978,331.60821,
2464.068,316.71952,
2461.157,325.49756,
2458.247,326.08836,
2455.336,337.04305,
2452.425,327.86792,
2449.515,330.36799,
2446.604,336.17279,
2443.694,346.06991,
2440.783,344.14189,
2437.872,345.21879,
2434.962,348.37328,
2432.051,343.92598,
2429.141,352.69404,
2426.230,349.39115,
2423.320,340.98533,
2420.409,357.7564,
2417.498,359.59832,
2414.588,359.18251,
2411.677,368.85657,
2408.767,366.51772,
2405.856,360.68101,
2402.946,349,
2400.035,372.37561,
2397.124,356.12299,
2394.214,364.0268,
2391.303,358.78455,
2388.393,377.64889,
2385.482,362.05748,
2382.571,377.16453,
2379.661,377.62791,
2376.750,374.68474,
2373.840,366.72503,
2370.929,375.88087,
2368.019,370.69826,
2365.108,382,
2362.197,379.01369,
2359.287,382.5883,
2356.376,386.99472,
2353.466,383.9383,
2350.555,400,
2347.645,392.30332,
2344.734,395.66822,
2341.823,392.0995,
2338.913,394.26271,
2336.002,403.24651,
2333.092,392.32171,
2330.181,412.335,
2327.270,415.11001,
2324.360,418.71465,
2321.449,400.7687,
2318.539,397.06423,
2315.628,408.36931,
2312.718,417.29956,
2309.807,425.90699,
2306.896,414.27543,
2303.986,423.56493,
2301.075,424.23404,
2298.165,427.39428,
2295.254,425.06463,
2292.344,415.57673,
2289.433,424.67182,
2286.522,436.78116,
2283.612,450.45026,
2280.701,441.61437,
2277.791,435.1985,
2274.880,421.56389,
2271.969,438.13169,
2269.059,448.19893,
2266.148,450.05676,
2263.238,444.20077,
2260.327,442.58642,
2257.417,464.71167,
2254.506,468.21368,
2251.595,469.42909,
2248.685,464.58079,
2245.774,453.98917,
2242.864,462.63842,
2239.953,445.95857,
2237.043,450.54501,
2234.132,455.21552,
2231.221,466,
2228.311,472.95875,
2225.400,477.19702,
2222.490,481.40059,
2219.579,470.68381,
2216.669,483.44515,
2213.758,495,
2210.847,496.61209,
2207.937,542.08626,
2205.026,532.33294,
2202.116,539.85351,
2199.205,540.8993,
2196.294,558.37199,
2193.384,563.842,
2190.473,607.04109,
2187.563,591.116,
2184.652,614.84939,
2181.742,621.68277,
2178.831,627.68866,
2175.920,625.4062,
2173.010,635,
2170.099,641.06597,
2167.189,666.96412,
2164.278,658.91859,
2161.368,649.85607,
2158.457,668.18736,
2155.546,679.25676,
2152.636,680.15429,
2149.725,697.46978,
2146.815,706.83316,
2143.904,714.40891,
2140.993,733.43919,
2138.083,724.63526,
2135.172,731.93283,
2132.262,744.38116,
2129.351,708.48598,
2126.441,702.18448,
2123.530,710.69695,
2120.619,681.24782,
2117.709,659.781,
2114.798,637.89989,
2111.888,603.55081,
2108.977,595.53643,
2106.067,574.45678,
2103.156,555.44198,
2100.245,547.01506,
2097.335,568.23037,
2094.424,546.80325,
2091.514,544.07259,
2088.603,536.9816,
2085.692,529.95537,
2082.782,553.20469,
2079.871,545.5706,
2076.961,548.54795,
2074.050,533.69091,
2071.140,511.70086,
2068.229,539.70831,
2065.318,546.15898,
2062.408,533.28062,
2059.497,537.77975,
2056.587,535.96504,
2053.676,540.44985,
2050.766,517.92452,
2047.855,515,
2044.944,513.00481,
2042.034,503.31796,
2039.123,516.38047,
2036.213,529.84448,
2033.302,536.10877,
2030.391,511.39039,
2027.481,538.68257,
2024.570,543.57165,
2021.660,522.24171,
2018.749,516.98775,
2015.839,538.23359,
2012.928,522.96477,
2010.017,543.26058,
2007.107,521.32523,
2004.196,533.84529,
2001.286,523.22619,
1998.375,533.44293,
1995.465,513.53572,
1992.554,540.05852,
1989.643,491.901,
1986.733,512.90965,
1983.822,526.17873,
1980.912,507.17807,
1978.001,501.31354,
1975.090,503.99237,
1972.180,494.44949,
1969.269,496.85063,
1966.359,513.5406,
1963.448,516,
1960.538,467.30942,
1957.627,497.01551,
1954.716,505.88509,
1951.806,460.08648,
1948.895,501.91293,
1945.985,507.03431,
1943.074,476.84132,
1940.164,484.33666,
1937.253,481.08723,
1934.342,475.59839,
1931.432,469.68139,
1928.521,460.24698,
1925.611,472.0908,
1922.700,453.83978,
1919.790,468.67029,
1916.879,478.51175,
1913.968,476.00369,
1911.058,462.57659,
1908.147,489.03641,
1905.237,432.13976,
1902.326,458.40742,
1899.415,448.85733,
1896.505,451.72873,
1893.594,430.72562,
1890.684,439.6797,
1887.773,444.42243,
1884.863,451.01595,
1881.952,457.78997,
1879.041,475.64279,
1876.131,463.89805,
1873.220,455.64158,
1870.310,434.57851,
1867.399,433,
1864.489,461.83169,
1861.578,435.24159,
1858.667,460.52093,
1855.757,473.62649,
1852.846,455.30766,
1849.936,486.88389,
1847.025,488.35036,
1844.114,468.61636,
1841.204,449.06293,
1838.293,488.98836,
1835.383,471.40752,
1832.472,491.32696,
1829.562,491.5315,
1826.651,480.10266,
1823.740,490.73565,
1820.830,464.67691,
1817.919,471.47315,
1815.009,506.68066,
1812.098,483.27561,
1809.188,493.13175,
1806.277,527.24752,
1803.366,479.01664,
1800.456,479.72521,
1797.545,474.90781,
1794.635,477.61206,
1791.724,505.46597,
1788.813,523.60077,
1785.903,517.79269,
1782.992,489.65871,
1780.082,479.67349,
1777.171,464.33298,
1774.261,478.33031,
1771.350,499.85525,
1768.439,494.12796,
1765.529,507.45651,
1762.618,532.07815,
1759.708,529.16288,
1756.797,534.43939,
1753.887,545.23032,
1750.976,541.17932,
1748.065,530.32566,
1745.155,512.78072,
1742.244,541.4311,
1739.334,543.93648,
1736.423,534.88038,
1733.512,534.72764,
1730.602,553.70042,
1727.691,563.8383,
1724.781,533.53694,
1721.870,562.82403,
1718.960,549.79973,
1716.049,575.20309,
1713.138,595.53493,
1710.228,555.35545,
1707.317,575.53714,
1704.407,593.37436,
1701.496,553.0688,
1698.586,563.78375,
1695.675,625.82106,
1692.764,593.07785,
1689.854,599.61024,
1686.943,619.32549,
1684.033,608.29803,
1681.122,659.11639,
1678.211,663.96193,
1675.301,647.05242,
1672.390,640.1944,
1669.480,705.13637,
1666.569,721.94922,
1663.659,718.44097,
1660.748,745.57845,
1657.837,774.95626,
1654.927,773.98402,
1652.016,814.24673,
1649.106,784,
1646.195,784.9111,
1643.285,823.38998,
1640.374,882.45645,
1637.463,857.03603,
1634.553,860.8029,
1631.642,981.26059,
1628.732,1005.3674,
1625.821,1067.0425,
1622.911,1131.6337,
1620.000,1206.0551,
1617.089,1235.4229,
1614.179,1314.7157,
1611.268,1420.022,
1608.358,1442.1104,
1605.447,1485.4289,
1602.536,1535.5262,
1599.626,1550.9591,
1596.715,1549.2772,
1593.805,1528.4304,
1590.894,1512.7899,
1587.984,1547.3759,
1585.073,1533.4312,
1582.162,1467.3835,
1579.252,1456.6366,
1576.341,1448.1883,
1573.431,1397.4432,
1570.520,1384,
1567.610,1384,
1564.699,1365.1492,
1561.788,1311.5216,
1558.878,1284.4896,
1555.967,1247.9668,
1553.057,1216.9657,
1550.146,1207.7709,
1547.235,1177.4837,
1544.325,1170.5728,
1541.414,1141.5758,
1538.504,1123.9279,
1535.593,1159.4504,
1532.683,1190.1879,
1529.772,1174.6942,
1526.861,1148.8512,
1523.951,1160.5091,
1521.040,1155.9446,
1518.130,1165.3982,
1515.219,1182.121,
1512.309,1149,
1509.398,1141.2663,
1506.487,1113,
1503.577,1110.6487,
1500.666,1094.6496,
1497.756,1075.9237,
1494.845,1076.1606,
1491.934,1103.9402,
1489.024,1085.6528,
1486.113,983.93351,
1483.203,993.76335,
1480.292,962.05954,
1477.382,982.67219,
1474.471,970.5829,
1471.560,945.40702,
1468.650,911.35233,
1465.739,930.38402,
1462.829,952.17772,
1459.918,951.68505,
1457.008,919.04577,
1454.097,909.8728,
1451.186,920.52418,
1448.276,895.62061,
1445.365,873.03397,
1442.455,858.55967,
1439.544,878.24342,
1436.633,880.23238,
1433.723,845.77188,
1430.812,800.31955,
1427.902,865.78231,
1424.991,814.60314,
1422.081,792.8155,
1419.170,810.00933,
1416.259,820.29057,
1413.349,847.6782,
1410.438,849.0022,
1407.528,852.43742,
1404.617,833.102,
1401.707,796.33232,
1398.796,766.67136,
1395.885,750.2795,
1392.975,724.1033,
1390.064,670.99023,
1387.154,612.56857,
1384.243,525.20434,
1381.332,464.86526,
1378.422,514.85,
1375.511,570.12007,
1372.601,716.60811,
1369.690,716.14166,
1366.780,800.33183,
1363.869,800.47921,
1360.958,826.99146,
1358.048,847.37325,
1355.137,894.20883,
1352.227,924.01954,
1349.316,932.38559,
1346.406,966,
1343.495,990.41471,
1340.584,1066.3213,
1337.674,1076.1424,
1334.763,1070.0938,
1331.853,1098.838,
1328.942,1117.7893,
1326.032,1168.9372,
1323.121,1169.6265,
1320.210,1163.3363,
1317.300,1222.7939,
1314.389,1286.5838,
1311.479,1246.7092,
1308.568,1187.3187,
1305.657,1216.9095,
1302.747,1217.8964,
1299.836,1260.0025,
1296.926,1312.7774,
1294.015,1372.5334,
1291.105,1426.0714,
1288.194,1480.9246,
1285.283,1563.1683,
1282.373,1560.6251,
1279.462,1564.9604,
1276.552,1601.5828,
1273.641,1613.1302,
1270.731,1595.8239,
1267.820,1585.9369,
1264.909,1562.9894,
1261.999,1590.6352,
1259.088,1553.2382,
1256.178,1578.4066,
1253.267,1525.4603,
1250.356,1526.9631,
1247.446,1510.7707,
1244.535,1488.0447,
1241.625,1472.9074,
1238.714,1456.1318,
1235.804,1447.4127,
1232.893,1428.5039,
1229.982,1410.632,
1227.072,1399.7683,
1224.161,1330.0787,
1221.251,1292.4312,
1218.340,1263.27,
1215.430,1243.742,
1212.519,1233.3779,
1209.608,1233.6069,
1206.698,1244.2979,
1203.787,1255.3618,
1200.877,1278.8886,
1197.966,1277.0902,
1195.055,1360.6184,
1192.145,1405.0537,
1189.234,1460.4155,
1186.324,1512.8209,
1183.413,1559.4061,
1180.503,1565.3921,
1177.592,1523.4142,
1174.681,1536.3527,
1171.771,1525.3091,
1168.860,1538.7054,
1165.950,1546.4503,
1163.039,1507.4926,
1160.129,1497.0783,
1157.218,1499.1156,
1154.307,1488.5795,
1151.397,1472.3505,
1148.486,1466.6456,
1145.576,1492.7687,
1142.665,1487.4412,
1139.754,1482.1182,
1136.844,1480.2997,
1133.933,1491.7301,
1131.023,1476.3952,
1128.112,1448.2145,
1125.202,1448.1401,
1122.291,1453.4879,
1119.380,1422.0693,
1116.470,1429.1295,
1113.559,1396.7503,
1110.649,1368.6643,
1107.738,1367.5731,
1104.828,1377.9127,
1101.917,1385.5504,
1099.006,1386.6394,
1096.096,1353.8814,
1093.185,1384.6115,
1090.275,1425.0357,
1087.364,1435.3722,
1084.453,1457.9361,
1081.543,1494.7199,
1078.632,1507.7776,
1075.722,1485.3254,
1072.811,1504.1862,
1069.901,1506.8059,
1066.990,1477.9001,
1064.079,1477.1246,
1061.169,1467.8494,
1058.258,1435.5553,
1055.348,1418.5221,
1052.437,1453.7878,
1049.527,1467.4294,
1046.616,1452.6593,
1043.705,1476.4352,
1040.795,1489.108,
1037.884,1469.7475,
1034.974,1457.683,
1032.063,1471.6155,
1029.153,1465.2463,
1026.242,1475.6258,
1023.331,1453.5014,
1020.421,1445.5145,
1017.510,1469.2124,
1014.600,1481.8102,
1011.689,1486.8237,
1008.778,1524.2932,
1005.868,1526.6409,
1002.957,1598.0503,
1000.047,1642.488,
997.136,1669.6831,
994.226,1679.1077,
991.315,1658.5149,
988.404,1610.9195,
985.494,1594.7123,
982.583,1581.864,
979.673,1558.0506,
976.762,1534.7353,
973.852,1545.2165,
970.941,1566.3688,
968.030,1553.1503,
965.120,1553.932,
962.209,1537.7337,
959.299,1553.4145,
956.388,1558.7601,
953.477,1559.0551,
950.567,1563.83,
947.656,1572.0081,
944.746,1594.9461,
941.835,1600.0491,
938.925,1604.2903,
936.014,1625.7272,
933.103,1640.4098,
930.193,1635.7954,
927.282,1649.9001,
924.372,1629.6056,
921.461,1600.4896,
918.551,1585.1907,
915.640,1570.8014,
912.729,1548.1442,
909.819,1528.1146,
906.908,1559.2843,
903.998,1541.9113,
901.087,1515.9953,
898.176,1530.7229,
895.266,1561.2696,
892.355,1564.4712,
889.445,1566.989,
886.534,1554.4769,
883.624,1565.4566,
880.713,1583.7382,
877.802,1605.0744,
874.892,1615.7269,
871.981,1578.0333,
869.071,1537.0981,
866.160,1552.7687,
863.250,1566.1452,
860.339,1582.961,
857.428,1599.5824,
854.518,1563.663,
851.607,1552.014,
848.697,1562.3807,
845.786,1548.7983,
842.875,1537.991,
839.965,1554.9516,
837.054,1573.214,
834.144,1592.2753,
831.233,1625.3312,
828.323,1630.1086,
825.412,1603.5799,
822.501,1570.1915,
819.591,1576.8027,
816.680,1559.3718,
813.770,1576.3011,
810.859,1593.5124,
807.949,1585.2194,
805.038,1548.104,
802.127,1540.6958,
799.217,1544.4723,
796.306,1510.243,
793.396,1502.0765,
790.485,1532,
787.574,1533.3389,
784.664,1568.6037,
781.753,1594.4585,
778.843,1604.9802,
775.932,1606,
773.022,1601.1817,
770.111,1570.1137,
767.200,1561.1482,
764.290,1574.6027,
761.379,1564.7312,
758.469,1531.3722,
755.558,1527.5412,
752.648,1478.665,
749.737,1450.0691,
746.826,1390.5806,
743.916,1285.4149,
741.005,1130.7461,
738.095,871.75741,
735.184,534.95445,
732.274,472.9523,
729.363,696.46015,
726.452,1085.378,
723.542,1386.4724,
720.631,1470.2794,
717.721,1484.6987,
714.810,1514.6418,
711.899,1565.3564,
708.989,1541.1487,
706.078,1557.8274,
703.168,1560.7856,
700.257,1534.008,
697.347,1504.1732,
694.436,1528.7998,
691.525,1484.5905,
688.615,1528.4575,
685.704,1554.388,
682.794,1547.9362,
679.883,1551.6848,
676.973,1566.9109,
674.062,1582.7616,
671.151,1576.4118,
668.241,1553.5203,
665.330,1538.6849,
662.420,1595.3949,
659.509,1607.6349,
656.598,1615.7895,
653.688,1625.77,
650.777,1626.5121,
647.867,1671.1065,
644.956,1664.9021,
642.046,1639.6599,
639.135,1618.2096,
636.224,1618.8886,
633.314,1596.6583,
630.403,1605.1891,
627.493,1599.2529,
624.582,1570.6451,
621.672,1555.5973,
618.761,1543.6009,
615.850,1564.2435,
612.940,1590.8307,
610.029,1599.7913,
607.119,1574.5231,
604.208,1574.13,
601.297,1571.5104,
598.387,1561.4075,
595.476,1540.469,
592.566,1492.4578,
589.655,1495.0141,
586.745,1512.7172,
583.834,1510.2137,
580.923,1446.7394,
578.013,1403.579,
575.102,1428.7097,
572.192,1473.8642,
569.281,1519.357,
566.371,1593.7062,
563.460,1594.6508,
560.549,1608.5675,
557.639,1623.0458,
554.728,1614.5566,
551.818,1607.5337,
548.907,1640.1271,
545.996,1663.1664,
543.086,1662.148,
540.175,1648.9111,
537.265,1651.6214,
534.354,1651.9966,
531.444,1647.3774,
528.533,1637.1171,
525.622,1624.7019,
522.712,1631.1013,
519.801,1639.6732,
516.891,1652.4513,
513.980,1694.2632,
511.070,1664.8957,
508.159,1664.8494,
505.248,1690.2649,
502.338,1720.5708,
499.427,1705.9059,
496.517,1695.7778,
493.606,1703.7867,
490.695,1724.9346,
487.785,1695.6825,
484.874,1706.5094,
481.964,1729.95,
479.053,1736.6591,
476.143,1676.758,
473.232,1722.6389,
470.321,1710.3725,
467.411,1682.5717,
464.500,1698.7091,
461.590,1687.223,
458.679,1698.3077,
455.769,1712.2054,
452.858,1717.4772,
449.947,1722.0608,
447.037,1721.7865,
444.126,1727.2848,
441.216,1733.8991,
438.305,1710.2792,
435.395,1725.3578,
432.484,1729.999,
429.573,1724.9525,
426.663,1733.3141,
423.752,1664.9555,
420.842,1627.693,
417.931,1631.7127,
415.020,1676.4558,
412.110,1778.231,
409.199,1798.8631,
406.289,1768.4711,
403.378,1727.041,
400.468,1739.1369,
397.557,1729.118,
394.646,1704.4181,
391.736,1669.6197,
388.825,1564.0273,
385.915,1499.4718,
383.004,1485.1338,
380.094,1525.8024,
377.183,1580.7332,
374.272,1689.901,
371.362,1791.3689,
368.451,1842.766,
365.541,1805.9898,
362.630,1820.5808,
359.719,1839.5202,
356.809,1836.9968,
353.898,1853.4704,
350.988,1839.013,
348.077,1834.0355,
345.167,1861.1892,
342.256,1864.9245,
339.345,1835.1769,
336.435,1827.9867,
333.524,1879.906,
330.614,1876.9254,
327.703,1898.5898,
324.793,1906.3371,
321.882,1867.1352,
318.971,1922.8934,
316.061,1945.9065,
313.150,1963.3952,
310.240,2006.4379,
307.329,2010.1439,
304.418,1981.819,
301.508,1930.0646,
298.597,1866.3887,
295.687,1758.0595,
292.776,1751.5002,
289.866,1856.9287,
286.955,2074.8527,
284.044,2256.5348,
281.134,2433.98,
278.223,2595.1913,
275.313,2651.1923,
272.402,2771.048,
269.492,2870.8628,
266.581,2920.3648,
263.670,2953.4479,
260.760,2961.4329,
257.849,2986.176,
254.939,3061.032,
252.028,3069.9623,
249.117,3042.3926,
246.207,3009.7882,
243.296,3024.429,
240.386,2986.1675,
237.475,2951.1693,
234.565,2922.213,
231.654,2879.1204,
228.743,2847.5606,
225.833,2814.8405,
222.922,2778.7474,
220.012,2794.7756,
217.101,2766.1406,
214.191,2712.8595,
211.280,2652.4801,
208.369,2639.2534,
205.459,2625.8172,
202.548,2603.727,
199.638,2555.8341,
196.727,2558.6768,
193.816,2539.7039,
190.906,2476.5395,
187.995,2548.9419,
185.085,2530.0244,
182.174,2492.753,
179.264,2536.119,
176.353,2499.9901,
173.442,2479.9005,
170.532,2478.9515,
167.621,2427.0412,
164.711,2358.341,
161.800,2297.6948,
158.890,2264.5874,
155.979,2123.3188,
153.068,1954.0622,
150.158,1762.1115,
147.247,1545.2899,
144.337,1255.5422,
141.426,967.79991,
138.516,716.88797,
135.605,500.90933,
132.694,338.83234,
129.784,223.78429,
126.873,150.84104,
123.963,103.563,
121.052,72.201059,
118.141,55.067411,
115.231,47.894296,
112.320,36.950917,
109.410,25.863645,
106.499,25.15149,
103.589,23.319237,
100.678,21.456757,
97.767,20.034881,
94.857,20,
91.946,19.193778,
89.036,17.43551,
86.125,13.889484,
83.215,15.123681,
80.304,17,
77.393,17,
74.483,15.68973,
71.572,14.275296,
68.662,12.653663,
65.751,9.1214071,
62.840,7.036596,
59.930,6.3745724,
57.019,7.7847364,
54.109,9.7914825,
51.198,11.904828,
48.288,14.011325,
45.377,15.418081,
42.466,15.587781,
39.556,14.424407,
36.645,10.913456,
33.735,15.711733,
30.824,22.104435,
27.914,25.610311,
25.003,32.849012,
22.092,39.260332,
19.182,45.167026,
16.271,80.841023,
13.361,315.84398,
10.450,807.69792,
7.539,1904.053,
4.629,2888.104,
1.718,3391.8313,
-1.192,2898.9501,
-4.103,1773.1861,
-7.013,756.52768,
-9.924,8.1191178E-17,
