,PL778C~1,
Raman shift [1/cm],Intensity,
3014.167,-1,
3011.256,1.4499893,
3008.346,224.96013,
3005.435,279.84452,
3002.525,290.22763,
2999.614,269.17925,
2996.704,284.2299,
2993.793,297.73387,
2990.882,322.9923,
2987.972,322.1009,
2985.061,338.89655,
2982.151,331.47731,
2979.240,353.73384,
2976.329,370.53549,
2973.419,407.96945,
2970.508,402.08332,
2967.598,398.76466,
2964.687,407.31386,
2961.777,409.96591,
2958.866,411.6538,
2955.955,425.20576,
2953.045,450.34899,
2950.134,458.16038,
2947.224,477.31316,
2944.313,491.14601,
2941.403,499.34535,
2938.492,512.56368,
2935.581,498.4356,
2932.671,508.72104,
2929.760,539.66158,
2926.850,516.50827,
2923.939,527.51868,
2921.028,531.2294,
2918.118,548.29849,
2915.207,534.23416,
2912.297,541.96192,
2909.386,555.79562,
2906.476,564.48032,
2903.565,568.66298,
2900.654,552.62283,
2897.744,545.71084,
2894.833,527.536,
2891.923,558.32701,
2889.012,560.00578,
2886.102,538.58379,
2883.191,535.00189,
2880.280,525.99042,
2877.370,495,
2874.459,485.22653,
2871.549,530.46084,
2868.638,551.90928,
2865.727,549.28847,
2862.817,559.84357,
2859.906,565,
2856.996,580.92754,
2854.085,572.3529,
2851.175,580.82839,
2848.264,567.20116,
2845.353,575.48239,
2842.443,558.38886,
2839.532,555.58217,
2836.622,555.14584,
2833.711,536.41445,
2830.801,536.80588,
2827.890,555.20628,
2824.979,551.41996,
2822.069,562.9204,
2819.158,549.15902,
2816.248,562.65447,
2813.337,548.51584,
2810.427,569.30855,
2807.516,558.63313,
2804.605,578.18269,
2801.695,560.85523,
2798.784,560.18685,
2795.874,556.54878,
2792.963,572.85702,
2790.052,579.99786,
2787.142,555.86838,
2784.231,536.38822,
2781.321,551.50288,
2778.410,563.97969,
2775.500,555.68276,
2772.589,560.46177,
2769.678,571.89075,
2766.768,574.50679,
2763.857,581.52794,
2760.947,590.97478,
2758.036,599.70708,
2755.126,599.28205,
2752.215,618.57285,
2749.304,599.08636,
2746.394,593.96368,
2743.483,596.20004,
2740.573,603.19475,
2737.662,613.86243,
2734.751,608.83961,
2731.841,622.56777,
2728.930,614.32629,
2726.020,620.89815,
2723.109,606.722,
2720.199,618.21562,
2717.288,619.5438,
2714.377,614.77508,
2711.467,626.16374,
2708.556,632.39368,
2705.646,631.69015,
2702.735,649.32474,
2699.825,634.1527,
2696.914,637.5241,
2694.003,644.79837,
2691.093,649.85681,
2688.182,661.62,
2685.272,640.39829,
2682.361,641.84716,
2679.450,632.7531,
2676.540,625.54875,
2673.629,648.3498,
2670.719,650.63494,
2667.808,641.72953,
2664.898,664.25973,
2661.987,670.1001,
2659.076,699.31248,
2656.166,688.64503,
2653.255,673.04251,
2650.345,676.03267,
2647.434,686.05773,
2644.524,700.66424,
2641.613,697.91452,
2638.702,702,
2635.792,694.46959,
2632.881,695.50583,
2629.971,705.36244,
2627.060,697.99875,
2624.149,717.18749,
2621.239,700.19516,
2618.328,713.3391,
2615.418,719.67273,
2612.507,721.34386,
2609.597,706.74451,
2606.686,737.44176,
2603.775,730.03968,
2600.865,729,
2597.954,737.13755,
2595.044,726.60762,
2592.133,749.17207,
2589.223,749.65052,
2586.312,743.87938,
2583.401,748.95984,
2580.491,745.45192,
2577.580,770.95379,
2574.670,738.84894,
2571.759,736.80821,
2568.848,753.0553,
2565.938,750.47616,
2563.027,759.02497,
2560.117,762.18691,
2557.206,790.738,
2554.296,774.76888,
2551.385,778.45414,
2548.474,783.62937,
2545.564,763.47483,
2542.653,789.52685,
2539.743,783.43223,
2536.832,788.24486,
2533.922,798.33115,
2531.011,813.77544,
2528.100,799.4669,
2525.190,814.0209,
2522.279,805.0938,
2519.369,807.60374,
2516.458,813.44759,
2513.548,810.52736,
2510.637,826.38517,
2507.726,814.81412,
2504.816,814.50057,
2501.905,806.6378,
2498.995,847.77518,
2496.084,806.50528,
2493.173,832.42119,
2490.263,832.80903,
2487.352,850.58267,
2484.442,848.97428,
2481.531,849.51615,
2478.621,838.90998,
2475.710,864.85431,
2472.799,849.94614,
2469.889,856.66758,
2466.978,857.49478,
2464.068,862.87303,
2461.157,867.76998,
2458.247,872.27943,
2455.336,869.38356,
2452.425,888.39625,
2449.515,892.54677,
2446.604,878.17279,
2443.694,899.69823,
2440.783,886.70946,
2437.872,890.48949,
2434.962,885.93086,
2432.051,911.97533,
2429.141,910.15298,
2426.230,903.39115,
2423.320,910.61382,
2420.409,919.03226,
2417.498,917.15451,
2414.588,905.11037,
2411.677,926.17929,
2408.767,929.73524,
2405.856,938.66422,
2402.946,950.26184,
2400.035,951.69719,
2397.124,923.61494,
2394.214,965.4048,
2391.303,966.9668,
2388.393,961.8023,
2385.482,968.51532,
2382.571,973.19015,
2379.661,966.23252,
2376.750,978.68221,
2373.840,974.0188,
2370.929,996.71843,
2368.019,989.91627,
2365.108,979.76702,
2362.197,990.56989,
2359.287,1018.9499,
2356.376,1009.0282,
2353.466,1019.6216,
2350.555,1012.0249,
2347.645,1011.3682,
2344.734,1025.6083,
2341.823,1014.2487,
2338.913,1013.6836,
2336.002,1037.7751,
2333.092,1025.5519,
2330.181,1034.0895,
2327.270,1013.4851,
2324.360,1026.1344,
2321.449,1033.4626,
2318.539,1048.5321,
2315.628,1073.713,
2312.718,1057.5022,
2309.807,1070.3169,
2306.896,1057.9765,
2303.986,1060.3118,
2301.075,1073.766,
2298.165,1070.6057,
2295.254,1085.6553,
2292.344,1065.473,
2289.433,1067.3282,
2286.522,1071.1339,
2283.612,1094.6314,
2280.701,1087.4216,
2277.791,1111.7596,
2274.880,1113.4899,
2271.969,1141,
2269.059,1129.2697,
2266.148,1132.4023,
2263.238,1128.9035,
2260.327,1138.8626,
2257.417,1185.5439,
2254.506,1154.6495,
2251.595,1148.7017,
2248.685,1162.6827,
2245.774,1180.2195,
2242.864,1199,
2239.953,1192.4001,
2237.043,1185.5857,
2234.132,1207.7974,
2231.221,1203.8682,
2228.311,1203.8698,
2225.400,1180.6043,
2222.490,1233.0293,
2219.579,1230.599,
2216.669,1242.0429,
2213.758,1256.4824,
2210.847,1298.8236,
2207.937,1313.6743,
2205.026,1327.5557,
2202.116,1324,
2199.205,1332.6619,
2196.294,1353.43,
2193.384,1381.315,
2190.473,1399.4378,
2187.563,1440.0677,
2184.652,1450.8371,
2181.742,1450.7295,
2178.831,1493.4397,
2175.920,1531.8871,
2173.010,1551.7494,
2170.099,1551.5997,
2167.189,1593.3947,
2164.278,1648.4402,
2161.368,1670.7119,
2158.457,1739.0632,
2155.546,1791.9077,
2152.636,1815.0904,
2149.725,1844.2953,
2146.815,1906.0646,
2143.904,1920.4163,
2140.993,1964.8888,
2138.083,1970.7873,
2135.172,1973.3279,
2132.262,1983.9859,
2129.351,1944.017,
2126.441,1914.4465,
2123.530,1907.4276,
2120.619,1855.8991,
2117.709,1822.1039,
2114.798,1722.9151,
2111.888,1670.1382,
2108.977,1642.649,
2106.067,1573.5714,
2103.156,1515.2873,
2100.245,1510.968,
2097.335,1460.7225,
2094.424,1466.2393,
2091.514,1461.637,
2088.603,1427.7927,
2085.692,1402.1821,
2082.782,1406.5341,
2079.871,1413.7503,
2076.961,1418.7417,
2074.050,1417.9515,
2071.140,1418.1263,
2068.229,1413.931,
2065.318,1383.5552,
2062.408,1382.4319,
2059.497,1395.4167,
2056.587,1396.035,
2053.676,1395.6332,
2050.766,1384.9238,
2047.855,1350.0252,
2044.944,1384.734,
2042.034,1383,
2039.123,1384.7003,
2036.213,1389.7689,
2033.302,1382.2175,
2030.391,1393.3215,
2027.481,1407.7195,
2024.570,1420.7997,
2021.660,1397.5965,
2018.749,1377.9498,
2015.839,1400.5203,
2012.928,1405.9413,
2010.017,1443.6634,
2007.107,1399.1588,
2004.196,1403.2025,
2001.286,1421.1237,
1998.375,1402.8661,
1995.465,1382.2679,
1992.554,1393.7763,
1989.643,1380.553,
1986.733,1370.4447,
1983.822,1392.8966,
1980.912,1376.0497,
1978.001,1384.5677,
1975.090,1387.2031,
1972.180,1393.2407,
1969.269,1370.4309,
1966.359,1389.1627,
1963.448,1379.1268,
1960.538,1382.4187,
1957.627,1410.966,
1954.716,1361.5512,
1951.806,1373.7084,
1948.895,1350.9129,
1945.985,1369.1062,
1943.074,1379.7455,
1940.164,1358.8462,
1937.253,1365.7217,
1934.342,1368.5043,
1931.432,1357.4543,
1928.521,1337.9603,
1925.611,1309.6561,
1922.700,1325.5345,
1919.790,1339.7514,
1916.879,1340.0697,
1913.968,1328.0148,
1911.058,1388,
1908.147,1382.4204,
1905.237,1349.5736,
1902.326,1357.6711,
1899.415,1339.3439,
1896.505,1336.8253,
1893.594,1366.3446,
1890.684,1387.4772,
1887.773,1364.4916,
1884.863,1367.9294,
1881.952,1356.9577,
1879.041,1353.026,
1876.131,1351.5569,
1873.220,1333.5663,
1870.310,1323.574,
1867.399,1376.1363,
1864.489,1336.3894,
1861.578,1348.4284,
1858.667,1372.2934,
1855.757,1378.3842,
1852.846,1387.4564,
1849.936,1371.976,
1847.025,1401.7032,
1844.114,1407.16,
1841.204,1401.5105,
1838.293,1403.5058,
1835.383,1409.2905,
1832.472,1427.0817,
1829.562,1427.612,
1826.651,1450.6673,
1823.740,1451.3525,
1820.830,1439.2834,
1817.919,1422.3412,
1815.009,1470.374,
1812.098,1452.9685,
1809.188,1467.8217,
1806.277,1454.332,
1803.366,1485.9519,
1800.456,1423.2856,
1797.545,1412.5673,
1794.635,1437.9332,
1791.724,1503.5146,
1788.813,1496.801,
1785.903,1503.7519,
1782.992,1514.6587,
1780.082,1498.347,
1777.171,1490.6783,
1774.261,1516.8447,
1771.350,1505.2045,
1768.439,1538.9583,
1765.529,1539.2713,
1762.618,1502.9449,
1759.708,1517.4243,
1756.797,1553.0833,
1753.887,1570.5656,
1750.976,1572.0792,
1748.065,1542.5668,
1745.155,1553.3547,
1742.244,1573.9456,
1739.334,1580.0541,
1736.423,1612.7943,
1733.512,1586.7072,
1730.602,1624.3612,
1727.691,1606.6876,
1724.781,1640.8349,
1721.870,1678.7525,
1718.960,1709.667,
1716.049,1725.0677,
1713.138,1712.4651,
1710.228,1673.4475,
1707.317,1687.4606,
1704.407,1701.6792,
1701.496,1716.6732,
1698.586,1750.3395,
1695.675,1723.993,
1692.764,1820.4591,
1689.854,1774.3386,
1686.943,1830.9427,
1684.033,1790.0928,
1681.122,1870.5896,
1678.211,1920.5336,
1675.301,1897.074,
1672.390,1957.1136,
1669.480,1995.5535,
1666.569,2064.8887,
1663.659,2135.0943,
1660.748,2202.639,
1657.837,2285.672,
1654.927,2272.3355,
1652.016,2329.2636,
1649.106,2381.3709,
1646.195,2436.9591,
1643.285,2477.4128,
1640.374,2539.0244,
1637.463,2589.2338,
1634.553,2712.0936,
1631.642,2786.5201,
1628.732,2926.0192,
1625.821,3097.0759,
1622.911,3212.3463,
1620.000,3388.7574,
1617.089,3554.6766,
1614.179,3692.1083,
1611.268,3942.4825,
1608.358,4053.9899,
1605.447,4237.2014,
1602.536,4368.2134,
1599.626,4321.804,
1596.715,4401.4069,
1593.805,4380.487,
1590.894,4364.6706,
1587.984,4376.8575,
1585.073,4298.1724,
1582.162,4258.9534,
1579.252,4151.7124,
1576.341,4173.0585,
1573.431,4119.7797,
1570.520,4096.6494,
1567.610,4039.1168,
1564.699,3956.1974,
1561.788,3893.9722,
1558.878,3824.0617,
1555.967,3729.6302,
1553.057,3682.5174,
1550.146,3645.2728,
1547.235,3580.5449,
1544.325,3506.0196,
1541.414,3504.8634,
1538.504,3503.7409,
1535.593,3486.7383,
1532.683,3488.7309,
1529.772,3492.3685,
1526.861,3544.1979,
1523.951,3619.2268,
1521.040,3671.6474,
1518.130,3673.1237,
1515.219,3634.8394,
1512.309,3643.3558,
1509.398,3591.0288,
1506.487,3521.7563,
1503.577,3483.2688,
1500.666,3445.4111,
1497.756,3404.5757,
1494.845,3348.7588,
1491.934,3295.0945,
1489.024,3323.9693,
1486.113,3286.9842,
1483.203,3244.9206,
1480.292,3231.5149,
1477.382,3173.4226,
1474.471,3119.3289,
1471.560,3068.5397,
1468.650,3058.7829,
1465.739,3028.9755,
1462.829,3020.5491,
1459.918,3009.3203,
1457.008,3010.7387,
1454.097,3005.665,
1451.186,3006.5358,
1448.276,3011.1135,
1445.365,2942.9613,
1442.455,2910.8265,
1439.544,2918.0835,
1436.633,2904.854,
1433.723,2890.997,
1430.812,2895.1186,
1427.902,2858.8422,
1424.991,2852.2078,
1422.081,2861.1748,
1419.170,2904.339,
1416.259,2865.6365,
1413.349,2907.8669,
1410.438,2901.9073,
1407.528,2884.9188,
1404.617,2878.0644,
1401.707,2856.3922,
1398.796,2813.0385,
1395.885,2738.9406,
1392.975,2667.9164,
1390.064,2625.5691,
1387.154,2498.2204,
1384.243,2287.1678,
1381.332,2165.5654,
1378.422,2160.6364,
1375.511,2444.4811,
1372.601,2676.6279,
1369.690,2780.865,
1366.780,2856.7787,
1363.869,2923.8534,
1360.958,2996.4775,
1358.048,3010.9471,
1355.137,3052.9914,
1352.227,3125.5361,
1349.316,3199.7712,
1346.406,3256.782,
1343.495,3238.7369,
1340.584,3268.3916,
1337.674,3360.8257,
1334.763,3426.6704,
1331.853,3444.2878,
1328.942,3507.2625,
1326.032,3530.4968,
1323.121,3575.494,
1320.210,3627.9575,
1317.300,3694.8088,
1314.389,3702.3051,
1311.479,3710.3299,
1308.568,3729.371,
1305.657,3695.743,
1302.747,3721.2898,
1299.836,3763.3367,
1296.926,3837.093,
1294.015,3989.7007,
1291.105,4154.4975,
1288.194,4261.4655,
1285.283,4257.2239,
1282.373,4339.3903,
1279.462,4391.902,
1276.552,4414.2284,
1273.641,4434.5467,
1270.731,4422.5298,
1267.820,4409.8595,
1264.909,4371.8568,
1261.999,4348.5007,
1259.088,4334.8189,
1256.178,4297.1724,
1253.267,4256.4762,
1250.356,4180.3064,
1247.446,4166.0151,
1244.535,4140.3394,
1241.625,4095.9445,
1238.714,4048.7025,
1235.804,3962.9078,
1232.893,3962.3698,
1229.982,3980.0206,
1227.072,3803.4847,
1224.161,3754.0178,
1221.251,3690.4173,
1218.340,3607.5144,
1215.430,3554.8323,
1212.519,3493.8185,
1209.608,3444.7331,
1206.698,3463.8938,
1203.787,3476.8342,
1200.877,3442.6806,
1197.966,3518.2099,
1195.055,3622.6833,
1192.145,3715.1343,
1189.234,3831.4797,
1186.324,3962.826,
1183.413,4053.9645,
1180.503,4099.8628,
1177.592,4125.5655,
1174.681,4102.3938,
1171.771,4111.6085,
1168.860,4094.6398,
1165.950,4113.1572,
1163.039,4066.3182,
1160.129,4024.5348,
1157.218,3990.3284,
1154.307,3957.9823,
1151.397,3931.0942,
1148.486,3912.8905,
1145.576,3966.2631,
1142.665,3903.2213,
1139.754,3904.509,
1136.844,3917.2048,
1133.933,3862.7629,
1131.023,3784.1765,
1128.112,3739.072,
1125.202,3709.5363,
1122.291,3636.4933,
1119.380,3618.922,
1116.470,3610.9793,
1113.559,3637.837,
1110.649,3589.6833,
1107.738,3521.4211,
1104.828,3513.7982,
1101.917,3527.218,
1099.006,3487.7213,
1096.096,3554.6886,
1093.185,3516.9345,
1090.275,3576.3138,
1087.364,3606.7808,
1084.453,3648.3103,
1081.543,3721.4514,
1078.632,3788.5215,
1075.722,3797.1015,
1072.811,3763.3103,
1069.901,3767.6766,
1066.990,3728.3918,
1064.079,3673.4056,
1061.169,3632.6695,
1058.258,3605.1424,
1055.348,3590.1758,
1052.437,3593.328,
1049.527,3596.2084,
1046.616,3627.4862,
1043.705,3625.6046,
1040.795,3614.4224,
1037.884,3592.8164,
1034.974,3576.6276,
1032.063,3576.4769,
1029.153,3573.3262,
1026.242,3534.4032,
1023.331,3587.1632,
1020.421,3613.3362,
1017.510,3640.7302,
1014.600,3665.4586,
1011.689,3691.5386,
1008.778,3744.1272,
1005.868,3839.0811,
1002.957,3959.5307,
1000.047,4085.744,
997.136,4193.5425,
994.226,4238.7693,
991.315,4188.8095,
988.404,4064.1384,
985.494,3975.4464,
982.583,3906.0654,
979.673,3870.3924,
976.762,3827.5352,
973.852,3822.5644,
970.941,3840.6651,
968.030,3826.0462,
965.120,3814.9535,
962.209,3803.8704,
959.299,3800.5835,
956.388,3820.7187,
953.477,3839.4662,
950.567,3840.9086,
947.656,3841.239,
944.746,3888.8141,
941.835,3931.4907,
938.925,3987.0635,
936.014,3989.7553,
933.103,3998.6599,
930.193,4053.3995,
927.282,4052.4794,
924.372,4005.9711,
921.461,3958.0252,
918.551,3930.2195,
915.640,3894.2285,
912.729,3821.7719,
909.819,3721.7767,
906.908,3712.5101,
903.998,3687.3437,
901.087,3714.0983,
898.176,3748.2702,
895.266,3780.8699,
892.355,3816.4135,
889.445,3823.9669,
886.534,3859.8995,
883.624,3913.4254,
880.713,3990.6081,
877.802,4011.3874,
874.892,3951.6323,
871.981,3950.2565,
869.071,3961.1168,
866.160,3956.7904,
863.250,3930.9351,
860.339,3920.3813,
857.428,3921.017,
854.518,3846.348,
851.607,3892.9439,
848.697,3830.8427,
845.786,3835.3276,
842.875,3883.681,
839.965,3919.2624,
837.054,3957.0465,
834.144,3961.1903,
831.233,3986.6649,
828.323,4013.3426,
825.412,4025.7463,
822.501,4020.5532,
819.591,4018.074,
816.680,3916.237,
813.770,3876.5904,
810.859,3832.8032,
807.949,3780.6292,
805.038,3752.8141,
802.127,3726.4741,
799.217,3709.0922,
796.306,3708.5406,
793.396,3722.1222,
790.485,3744.528,
787.574,3773.1413,
784.664,3882.2162,
781.753,3907.3679,
778.843,3938.4248,
775.932,3961.5186,
773.022,3942.4353,
770.111,3913.0025,
767.200,3835.6301,
764.290,3800.4424,
761.379,3763.2477,
758.469,3720.0463,
755.558,3723.7569,
752.648,3715.6108,
749.737,3635.6653,
746.826,3531.0601,
743.916,3372.7195,
741.005,3101.8549,
738.095,2675.6196,
735.184,2158.7811,
732.274,2060.299,
729.363,2424.4597,
726.452,3061.0888,
723.542,3465.7854,
720.631,3624.8525,
717.721,3719.7018,
714.810,3772.3238,
711.899,3793.8119,
708.989,3793.005,
706.078,3820.2443,
703.168,3814.8556,
700.257,3804.112,
697.347,3803.9126,
694.436,3817.6508,
691.525,3804.79,
688.615,3822.1252,
685.704,3833.5683,
682.794,3834.6383,
679.883,3842.6312,
676.973,3901.1312,
674.062,3934.6948,
671.151,3954.8899,
668.241,3949.2756,
665.330,3901.7606,
662.420,3960.068,
659.509,3951.6822,
656.598,3980.6785,
653.688,4066.436,
650.777,4176.6201,
647.867,4224.3998,
644.956,4217.6638,
642.046,4158.492,
639.135,4074.9081,
636.224,4017.7175,
633.314,3961.3479,
630.403,3970.0572,
627.493,3956.4263,
624.582,3905.6451,
621.672,3890.5973,
618.761,3893.7997,
615.850,3910.9786,
612.940,3927.0738,
610.029,3928.7913,
607.119,3903.5231,
604.208,3906.6801,
601.297,3880.086,
598.387,3851.2866,
595.476,3849.1774,
592.566,3819.2688,
589.655,3814,
586.745,3771.0371,
583.834,3712.365,
580.923,3702.5356,
578.013,3625.6317,
575.102,3665.2268,
572.192,3752.8741,
569.281,3836.0458,
566.371,3869.6986,
563.460,3935.0812,
560.549,3981.953,
557.639,4014.2054,
554.728,4043.4289,
551.818,4066.058,
548.907,4072.8282,
545.996,4081.387,
543.086,4094.1743,
540.175,4099.6249,
537.265,4081.1687,
534.354,4085.0372,
531.444,4072.8714,
528.533,4016.2558,
525.622,4062.0366,
522.712,4065.9325,
519.801,4070.7832,
516.891,4088.5996,
513.980,4106.4084,
511.070,4138.9913,
508.159,4158.6859,
505.248,4159.7409,
502.338,4143.6659,
499.427,4234.742,
496.517,4293.505,
493.606,4311.9242,
490.695,4293.5394,
487.785,4275.8342,
484.874,4218.071,
481.964,4229.1125,
479.053,4273.7622,
476.143,4218.4689,
473.232,4216.4388,
470.321,4191.698,
467.411,4180.4489,
464.500,4224.6619,
461.590,4171.8258,
458.679,4184.5147,
455.769,4236.9311,
452.858,4302.1591,
449.947,4303.6869,
447.037,4304.6068,
444.126,4295.3879,
441.216,4277.9417,
438.305,4271.8462,
435.395,4211.3371,
432.484,4214.1737,
429.573,4266.4376,
426.663,4285.4411,
423.752,4272.3542,
420.842,4260.5198,
417.931,4272.0994,
415.020,4335.8015,
412.110,4406.04,
409.199,4509.7285,
406.289,4574.5355,
403.378,4520.8438,
400.468,4474.7281,
397.557,4398.3021,
394.646,4302.2916,
391.736,4195.7746,
388.825,4063.7842,
385.915,3980.8279,
383.004,3993.1123,
380.094,4126.6816,
377.183,4238.0481,
374.272,4373.7566,
371.362,4490.5498,
368.451,4560.5501,
365.541,4586.0683,
362.630,4597.9162,
359.719,4607.0314,
356.809,4622.5794,
353.898,4681.7345,
350.988,4661.1109,
348.077,4627.9671,
345.167,4622.8108,
342.256,4619.0755,
339.345,4658.9203,
336.435,4681.1204,
333.524,4646.8321,
330.614,4704.9542,
327.703,4775.3673,
324.793,4847.9434,
321.882,4913.9946,
318.971,4911.7643,
316.061,4964.7146,
313.150,5051.0237,
310.240,5147.4988,
307.329,5191.7343,
304.418,5208.9119,
301.508,5185.3845,
298.597,5092.8324,
295.687,5032.1752,
292.776,5073.667,
289.866,5251.8513,
286.955,5654.4567,
284.044,6085.1746,
281.134,6464.9267,
278.223,6766.7896,
275.313,6936.2663,
272.402,7134.6529,
269.492,7336.5997,
266.581,7531.8224,
263.670,7711.2063,
260.760,7840.8351,
257.849,7923.5482,
254.939,7956.5729,
252.028,7977.9915,
249.117,7998.7912,
246.207,8013.4318,
243.296,8011.2357,
240.386,7884.9726,
237.475,7812.2372,
234.565,7791.3816,
231.654,7717.6128,
228.743,7602.4613,
225.833,7522.5972,
222.922,7508.4077,
220.012,7517.1503,
217.101,7487.6128,
214.191,7415.5334,
211.280,7287.4999,
208.369,7188.5158,
205.459,7146.1978,
202.548,7124.1837,
199.638,6986.3104,
196.727,6960.8811,
193.816,6953.0663,
190.906,6928.8064,
187.995,6894.7773,
185.085,6912.3171,
182.174,6931.2882,
179.264,6880.6945,
176.353,6863.466,
173.442,6843.5854,
170.532,6811.0112,
167.621,6733.8669,
164.711,6571.0967,
161.800,6368.2876,
158.890,6149.4904,
155.979,5734.3353,
153.068,5259.0176,
150.158,4710.7076,
147.247,3997.781,
144.337,3279.1301,
141.426,2583.7803,
138.516,1928.5417,
135.605,1362.4334,
132.694,937.04501,
129.784,629.35286,
126.873,410.52313,
123.963,287.46832,
121.052,202.22068,
118.141,137.2556,
115.231,110.7089,
112.320,92.798189,
109.410,80.954671,
106.499,70.272343,
103.589,66.319237,
100.678,59.567566,
97.767,45.348814,
94.857,45,
91.946,47.015554,
89.036,47.85494,
86.125,34.38004,
83.215,31.53092,
80.304,31.281702,
77.393,29.157192,
74.483,28.344865,
71.572,26.188239,
68.662,23.138535,
65.751,24.551437,
62.840,24.518298,
59.930,24.187286,
57.019,24.892368,
54.109,20.222713,
51.198,17,
48.288,17.028312,
45.377,20.545203,
42.466,19.938903,
39.556,16.769763,
36.645,15.365382,
33.735,17.596242,
30.824,18.232904,
27.914,12.623502,
25.003,15.113187,
22.092,19.906141,
19.182,26.091531,
16.271,28.889492,
13.361,78.467667,
10.450,196.80179,
7.539,497.77571,
4.629,741.74032,
1.718,826.868,
-1.192,598.2046,
-4.103,349.63132,
-7.013,145.37139,
-9.924,2,
