,PLD84B~1,
Raman shift [1/cm],Intensity,
3014.167,0.625,
3011.256,0.72502147,
3008.346,209.09964,
3005.435,243.43065,
3002.525,235.21001,
2999.614,250.56659,
2996.704,261.44768,
2993.793,255.63422,
2990.882,267.26612,
2987.972,276.69058,
2985.061,281.20134,
2982.151,298.80654,
2979.240,314.50999,
2976.329,306.37637,
2973.419,315.39393,
2970.508,329.47499,
2967.598,350.38604,
2964.687,346.10258,
2961.777,358.4029,
2958.866,364.9519,
2955.955,360.72457,
2953.045,380.66081,
2950.134,413.17897,
2947.224,425.11256,
2944.313,414.36645,
2941.403,450.43522,
2938.492,434.21037,
2935.581,436.39924,
2932.671,447.46621,
2929.760,450.4173,
2926.850,467.52763,
2923.939,466.70444,
2921.028,472.47798,
2918.118,471.60611,
2915.207,490.63145,
2912.297,507.58269,
2909.386,515.02646,
2906.476,511.59411,
2903.565,503.07536,
2900.654,505.88489,
2897.744,485.82616,
2894.833,500.38791,
2891.923,494.5705,
2889.012,493.87356,
2886.102,487.75204,
2883.191,490.61556,
2880.280,453.42404,
2877.370,437.625,
2874.459,434.32322,
2871.549,477.08584,
2868.638,512.85385,
2865.727,516.54425,
2862.817,521.55414,
2859.906,527.68768,
2856.996,530.54348,
2854.085,523.09764,
2851.175,526.0316,
2848.264,551.03699,
2845.353,536.3662,
2842.443,524.625,
2839.532,519.1922,
2836.622,494.44531,
2833.711,504.625,
2830.801,490.23676,
2827.890,509.3348,
2824.979,513.41502,
2822.069,528.61363,
2819.158,524.58457,
2816.248,529.33737,
2813.337,533.58355,
2810.427,519.53684,
2807.516,521.625,
2804.605,500.09857,
2801.695,517.58553,
2798.784,516.92069,
2795.874,518.18963,
2792.963,538.12532,
2790.052,527.62886,
2787.142,511.26973,
2784.231,509.91537,
2781.321,534.48775,
2778.410,508.84961,
2775.500,526.04948,
2772.589,521.54703,
2769.678,515.83655,
2766.768,544.66968,
2763.857,555.5171,
2760.947,538.65652,
2758.036,538.54217,
2755.126,557.85791,
2752.215,563.64763,
2749.304,557.4973,
2746.394,559.04838,
2743.483,553.47503,
2740.573,558.27106,
2737.662,546.53919,
2734.751,563.625,
2731.841,538.65063,
2728.930,566.56556,
2726.020,576.39525,
2723.109,562.64575,
2720.199,570.5469,
2717.288,572.06296,
2714.377,577.49582,
2711.467,593.85467,
2708.556,583.49742,
2705.646,604.28703,
2702.735,584.79253,
2699.825,595.89595,
2696.914,583.9577,
2694.003,596.68028,
2691.093,595.89217,
2688.182,615.04649,
2685.272,592.66056,
2682.361,610.53657,
2679.450,621.74845,
2676.540,598.52338,
2673.629,595.61602,
2670.719,616.32557,
2667.808,600.88953,
2664.898,606.98882,
2661.987,615.89204,
2659.076,622.7694,
2656.166,608.97997,
2653.255,624.58249,
2650.345,636.48888,
2647.434,638.51039,
2644.524,631.25811,
2641.613,646.85379,
2638.702,649.64078,
2635.792,633.84235,
2632.881,645.20237,
2629.971,642.13505,
2627.060,641.45594,
2624.149,654.19376,
2621.239,668.41799,
2618.328,645.13365,
2615.418,665.25228,
2612.507,664.62902,
2609.597,642.7268,
2606.686,678.17116,
2603.775,666.1885,
2600.865,669.97992,
2597.954,675.43334,
2595.044,676.58072,
2592.133,691.51677,
2589.223,705.32396,
2586.312,692.01693,
2583.401,702.27828,
2580.491,699.89904,
2577.580,672.69101,
2574.670,710.96458,
2571.759,702.22089,
2568.848,690.39291,
2565.938,705.33931,
2563.027,714.33402,
2560.117,725.72778,
2557.206,723.33718,
2554.296,732.90875,
2551.385,723.31099,
2548.474,723.73615,
2545.564,739.15017,
2542.653,740.39346,
2539.743,742.09419,
2536.832,727.25677,
2533.922,760.40423,
2531.011,751.57458,
2528.100,770.48913,
2525.190,752.69836,
2522.279,751.09398,
2519.369,766.05863,
2516.458,766.95007,
2513.548,761.6704,
2510.637,751.42428,
2507.726,767.05995,
2504.816,776.31271,
2501.905,776.81341,
2498.995,761.47629,
2496.084,783.26607,
2493.173,768.28295,
2490.263,790.36628,
2487.352,801.66673,
2484.442,803.47939,
2481.531,807.20477,
2478.621,813.23165,
2475.710,815.58666,
2472.799,804.95242,
2469.889,794.89648,
2466.978,799.01679,
2464.068,817.73618,
2461.157,797.12256,
2458.247,796.86041,
2455.336,813.26297,
2452.425,822.64859,
2449.515,839.82249,
2446.604,811.91994,
2443.694,824.57898,
2440.783,862.15428,
2437.872,840.04156,
2434.962,833.81854,
2432.051,850.84706,
2429.141,853.72485,
2426.230,877.32118,
2423.320,882.65434,
2420.409,855.54157,
2417.498,855.8469,
2414.588,881.6895,
2411.677,881.69672,
2408.767,885.90157,
2405.856,895.90832,
2402.946,879.77335,
2400.035,878.71656,
2397.124,879.01534,
2394.214,908.97341,
2391.303,888.51999,
2388.393,904.07619,
2385.482,910.49281,
2382.571,930.99249,
2379.661,925.8109,
2376.750,945.41314,
2373.840,922.172,
2370.929,936.38675,
2368.019,935.19214,
2365.108,925.71662,
2362.197,939.02774,
2359.287,949.8016,
2356.376,940.64613,
2353.466,950.16947,
2350.555,963.83497,
2347.645,958.48063,
2344.734,984.78175,
2341.823,984.75767,
2338.913,976.60558,
2336.002,972.26606,
2333.092,995.94671,
2330.181,1009.1697,
2327.270,987.05514,
2324.360,969.27116,
2321.449,1009.5026,
2318.539,1013.5394,
2315.628,1028.4559,
2312.718,1001.2946,
2309.807,1021.7427,
2306.896,1040.7987,
2303.986,1017.716,
2301.075,1031.1782,
2298.165,1006.6918,
2295.254,1029.9572,
2292.344,1035.7287,
2289.433,1039.9455,
2286.522,1046.8928,
2283.612,1062.1454,
2280.701,1068.0869,
2277.791,1052.9055,
2274.880,1071.8228,
2271.969,1098.4439,
2269.059,1075.7694,
2266.148,1096.6751,
2263.238,1104.4242,
2260.327,1113.9009,
2257.417,1123.7928,
2254.506,1141.1976,
2251.595,1126.7778,
2248.685,1112.7327,
2245.774,1114.2293,
2242.864,1143.1437,
2239.953,1147.894,
2237.043,1136.6768,
2234.132,1136.9289,
2231.221,1163.7853,
2228.311,1153.6186,
2225.400,1181.9346,
2222.490,1193.3677,
2219.579,1195.2574,
2216.669,1209.0463,
2213.758,1206.7086,
2210.847,1215.9701,
2207.937,1249.4035,
2205.026,1258.9582,
2202.116,1269.229,
2199.205,1291.4499,
2196.294,1307.799,
2193.384,1322.467,
2190.473,1363.0921,
2187.563,1376.8183,
2184.652,1424.6074,
2181.742,1480.5582,
2178.831,1522.0142,
2175.920,1555.0312,
2173.010,1619.7293,
2170.099,1685.6865,
2167.189,1745.9766,
2164.278,1805.1898,
2161.368,1892.6219,
2158.457,1997.8696,
2155.546,2088.502,
2152.636,2159.1302,
2149.725,2240.0411,
2146.815,2299.9899,
2143.904,2319.045,
2140.993,2366.9266,
2138.083,2381.0383,
2135.172,2390.2887,
2132.262,2349.971,
2129.351,2319.5008,
2126.441,2238.5277,
2123.530,2204.1771,
2120.619,2070.0198,
2117.709,2006.2116,
2114.798,1908.6631,
2111.888,1816.2141,
2108.977,1720.2276,
2106.067,1618.1294,
2103.156,1582.5476,
2100.245,1542.5899,
2097.335,1483.2533,
2094.424,1453.5987,
2091.514,1429.0443,
2088.603,1425.966,
2085.692,1446.1268,
2082.782,1427.2998,
2079.871,1411.8747,
2076.961,1383.4978,
2074.050,1394.1583,
2071.140,1401.0851,
2068.229,1391.6054,
2065.318,1404.1425,
2062.408,1372.3292,
2059.497,1341.7916,
2056.587,1341.9737,
2053.676,1370.3069,
2050.766,1355.3186,
2047.855,1342.3972,
2044.944,1334.093,
2042.034,1334.417,
2039.123,1367.3691,
2036.213,1383.7449,
2033.302,1355.7989,
2030.391,1352.4726,
2027.481,1370.4541,
2024.570,1375.9393,
2021.660,1379.3885,
2018.749,1361.6128,
2015.839,1382.3205,
2012.928,1359.6821,
2010.017,1372.4046,
2007.107,1371.9988,
2004.196,1360.0773,
2001.286,1379.9217,
1998.375,1356.1309,
1995.465,1351.717,
1992.554,1343.4781,
1989.643,1341.625,
1986.733,1374.1803,
1983.822,1346.509,
1980.912,1335.4469,
1978.001,1345.7011,
1975.090,1355.8204,
1972.180,1346.0399,
1969.269,1352.8722,
1966.359,1360.4898,
1963.448,1350.7809,
1960.538,1368.1012,
1957.627,1336.0677,
1954.716,1352.993,
1951.806,1387.2901,
1948.895,1346.8334,
1945.985,1367.8636,
1943.074,1347.4403,
1940.164,1364.4421,
1937.253,1355.2205,
1934.342,1371.702,
1931.432,1345.9878,
1928.521,1352.4454,
1925.611,1344.398,
1922.700,1322.7535,
1919.790,1324.7926,
1916.879,1359.114,
1913.968,1351.6373,
1911.058,1336.7571,
1908.147,1336.2337,
1905.237,1324,
1902.326,1355.2931,
1899.415,1370.1798,
1896.505,1300.7997,
1893.594,1319.433,
1890.684,1342.2067,
1887.773,1375.8139,
1884.863,1381.404,
1881.952,1352.0952,
1879.041,1336.8166,
1876.131,1311.008,
1873.220,1342.2358,
1870.310,1375.4725,
1867.399,1354.0088,
1864.489,1385.7557,
1861.578,1341.96,
1858.667,1366.6789,
1855.757,1379.0236,
1852.846,1367.3071,
1849.936,1332.4618,
1847.025,1356.6785,
1844.114,1377.0038,
1841.204,1375.6844,
1838.293,1395.6001,
1835.383,1408.439,
1832.472,1414.3346,
1829.562,1439.4279,
1826.651,1404.8119,
1823.740,1421.4795,
1820.830,1476.523,
1817.919,1438.1337,
1815.009,1444.6059,
1812.098,1453.9085,
1809.188,1424.6096,
1806.277,1470.5405,
1803.366,1449.5917,
1800.456,1448.0647,
1797.545,1458.6674,
1794.635,1486.432,
1791.724,1477.2366,
1788.813,1504.0229,
1785.903,1508.8807,
1782.992,1523.6279,
1780.082,1465.7338,
1777.171,1472.2926,
1774.261,1493.1454,
1771.350,1527.9783,
1768.439,1533.3482,
1765.529,1542.5361,
1762.618,1559.9731,
1759.708,1557.9836,
1756.797,1575.2917,
1753.887,1575.8801,
1750.976,1527.0144,
1748.065,1566.9122,
1745.155,1580.4381,
1742.244,1557.0172,
1739.334,1607.4015,
1736.423,1624.1465,
1733.512,1613.3486,
1730.602,1633.0655,
1727.691,1639.8573,
1724.781,1657.7163,
1721.870,1623.9962,
1718.960,1689.4481,
1716.049,1670.3881,
1713.138,1661.06,
1710.228,1684.123,
1707.317,1660.2033,
1704.407,1671.8978,
1701.496,1687.2982,
1698.586,1727.4323,
1695.675,1721.2679,
1692.764,1728.1988,
1689.854,1806.1172,
1686.943,1751.6485,
1684.033,1777.9047,
1681.122,1820.8943,
1678.211,1822.6155,
1675.301,1948.2365,
1672.390,1885.6729,
1669.480,1902.6358,
1666.569,2028.0313,
1663.659,2060.311,
1660.748,2100.5645,
1657.837,2048.5495,
1654.927,2134.7656,
1652.016,2141.6456,
1649.106,2185.1955,
1646.195,2287.601,
1643.285,2286.4427,
1640.374,2279.5449,
1637.463,2324.0842,
1634.553,2405.1915,
1631.642,2510.3633,
1628.732,2578.1227,
1625.821,2661.6989,
1622.911,2773.9882,
1620.000,2969.1431,
1617.089,3127.4608,
1614.179,3329.8438,
1611.268,3505.0817,
1608.358,3596.4577,
1605.447,3781.655,
1602.536,3809.399,
1599.626,3874.1004,
1596.715,3865.1034,
1593.805,3778.6635,
1590.894,3761.5796,
1587.984,3756.2945,
1585.073,3710.5317,
1582.162,3728.5065,
1579.252,3665.706,
1576.341,3654.6303,
1573.431,3586.7057,
1570.520,3597.4357,
1567.610,3580.5462,
1564.699,3538.9987,
1561.788,3493.5267,
1558.878,3422.2729,
1555.967,3379.1084,
1553.057,3292.7982,
1550.146,3293.4867,
1547.235,3275.5795,
1544.325,3189.3339,
1541.414,3129.2631,
1538.504,3129.5529,
1535.593,3114.9232,
1532.683,3042.2795,
1529.772,2978.9627,
1526.861,2984.167,
1523.951,2987.0801,
1521.040,2909.043,
1518.130,2865.1323,
1515.219,2840.8664,
1512.309,2790.643,
1509.398,2784.4102,
1506.487,2785.9792,
1503.577,2799.4171,
1500.666,2808.126,
1497.756,2749.0827,
1494.845,2753.2643,
1491.934,2720.4801,
1489.024,2676.2054,
1486.113,2662.5712,
1483.203,2621.6575,
1480.292,2592.0182,
1477.382,2578.7343,
1474.471,2516.0021,
1471.560,2475.1294,
1468.650,2487.8065,
1465.739,2428.4521,
1462.829,2439.1608,
1459.918,2459.3652,
1457.008,2459.7944,
1454.097,2481.2546,
1451.186,2482.3968,
1448.276,2470.6837,
1445.365,2468.3019,
1442.455,2467.7574,
1439.544,2512.1191,
1436.633,2485.0808,
1433.723,2462.0049,
1430.812,2446.857,
1427.902,2398.3397,
1424.991,2344.3172,
1422.081,2346.2949,
1419.170,2354.4015,
1416.259,2347.5244,
1413.349,2277.6533,
1410.438,2313.0069,
1407.528,2338.2687,
1404.617,2319.2498,
1401.707,2316.2238,
1398.796,2320.9047,
1395.885,2338.3614,
1392.975,2353.6243,
1390.064,2304.9664,
1387.154,2259.5874,
1384.243,2240.1405,
1381.332,2201.3756,
1378.422,2260.9869,
1375.511,2364.9695,
1372.601,2507.6253,
1369.690,2569.3439,
1366.780,2675.0453,
1363.869,2698.4456,
1360.958,2725.3541,
1358.048,2741.4049,
1355.137,2839.8765,
1352.227,2905.6641,
1349.316,2938.3382,
1346.406,3033.1795,
1343.495,3064.2854,
1340.584,3141.0893,
1337.674,3143.5562,
1334.763,3188.6828,
1331.853,3295.3144,
1328.942,3298.7355,
1326.032,3298.625,
1323.121,3368.2757,
1320.210,3422.5914,
1317.300,3435.2641,
1314.389,3453.1532,
1311.479,3472.4988,
1308.568,3513.8544,
1305.657,3598.83,
1302.747,3631.4119,
1299.836,3638.9101,
1296.926,3734.9572,
1294.015,3914.2253,
1291.105,3940.1164,
1288.194,4059.2415,
1285.283,4105.8091,
1282.373,4201.2184,
1279.462,4266.8992,
1276.552,4323.6882,
1273.641,4361.5796,
1270.731,4351.2683,
1267.820,4380.1708,
1264.909,4360.7225,
1261.999,4262.055,
1259.088,4328.6398,
1256.178,4275.2424,
1253.267,4245.6779,
1250.356,4142.1004,
1247.446,4066.8754,
1244.535,4036.7143,
1241.625,3971.7214,
1238.714,3873.8115,
1235.804,3818.2756,
1232.893,3745.0118,
1229.982,3688.7733,
1227.072,3604.5792,
1224.161,3563.3238,
1221.251,3505.9984,
1218.340,3428.3785,
1215.430,3389.5691,
1212.519,3349.7625,
1209.608,3326.7613,
1206.698,3368.2635,
1203.787,3377.9667,
1200.877,3329.5255,
1197.966,3392.4666,
1195.055,3476.6836,
1192.145,3574.7755,
1189.234,3652.582,
1186.324,3734.1757,
1183.413,3804.356,
1180.503,3811.3426,
1177.592,3765.4836,
1174.681,3763.1353,
1171.771,3702.5232,
1168.860,3611.4281,
1165.950,3580.0489,
1163.039,3527.1336,
1160.129,3496.5975,
1157.218,3474.2414,
1154.307,3437.9607,
1151.397,3408.2745,
1148.486,3416.2273,
1145.576,3400.235,
1142.665,3345.1845,
1139.754,3380.4928,
1136.844,3327.9983,
1133.933,3296.3464,
1131.023,3266.6597,
1128.112,3255.8366,
1125.202,3289.8327,
1122.291,3293.1237,
1119.380,3289.8329,
1116.470,3311.0136,
1113.559,3298.16,
1110.649,3329.6415,
1107.738,3311.1177,
1104.828,3289.8597,
1101.917,3315.9805,
1099.006,3341.8518,
1096.096,3346.0124,
1093.185,3319.6723,
1090.275,3363.7534,
1087.364,3334.8299,
1084.453,3348.123,
1081.543,3375.2543,
1078.632,3387.0866,
1075.722,3406.7534,
1072.811,3409.0809,
1069.901,3373.2772,
1066.990,3361.7334,
1064.079,3384.804,
1061.169,3438.5999,
1058.258,3475.1659,
1055.348,3505.6692,
1052.437,3567.5092,
1049.527,3551.9607,
1046.616,3560.649,
1043.705,3614.037,
1040.795,3602.8078,
1037.884,3589.1422,
1034.974,3605.8943,
1032.063,3622.3253,
1029.153,3596.5718,
1026.242,3629.4401,
1023.331,3632.2916,
1020.421,3661.9033,
1017.510,3663.9798,
1014.600,3678.8862,
1011.689,3719.1771,
1008.778,3753.2336,
1005.868,3827.4899,
1002.957,3923.8496,
1000.047,4119.1691,
997.136,4207.1814,
994.226,4248.84,
991.315,4256.4419,
988.404,4185.9244,
985.494,4128.1316,
982.583,4016.7793,
979.673,4002.0883,
976.762,3952.7213,
973.852,3939.7255,
970.941,3970.5888,
968.030,3977.4747,
965.120,3976.5641,
962.209,3962.0709,
959.299,3935.5445,
956.388,3937.3842,
953.477,3950.3242,
950.567,3971.5718,
947.656,4018.2962,
944.746,4031.0395,
941.835,4030.0054,
938.925,4031.5992,
936.014,4063.4804,
933.103,4068.2022,
930.193,4024.6214,
927.282,4033.9669,
924.372,3984.9217,
921.461,3910.8762,
918.551,3872.1017,
915.640,3833.1538,
912.729,3801.8706,
909.819,3821.8474,
906.908,3823.5323,
903.998,3781.4707,
901.087,3813.9074,
898.176,3853.418,
895.266,3878.1948,
892.355,3906.5198,
889.445,3959.3936,
886.534,4004.7081,
883.624,4047.2666,
880.713,4093.736,
877.802,4101.0867,
874.892,4061.9119,
871.981,4067.4474,
869.071,4059.9287,
866.160,4041.376,
863.250,4037.2944,
860.339,4023.8002,
857.428,3993.625,
854.518,3993.3602,
851.607,3984.2074,
848.697,3969.5565,
845.786,3969.3336,
842.875,3979.8682,
839.965,4001.8389,
837.054,4057.4854,
834.144,4045.0542,
831.233,4045.2915,
828.323,4037.7227,
825.412,4011.561,
822.501,3972.3483,
819.591,3954.1675,
816.680,3911.9583,
813.770,3875.3119,
810.859,3848.344,
807.949,3826.0811,
805.038,3803.5254,
802.127,3802.7023,
799.217,3792.1895,
796.306,3755.7058,
793.396,3752.4268,
790.485,3786.2038,
787.574,3783.8154,
784.664,3762.4925,
781.753,3773.3866,
778.843,3787.4862,
775.932,3801.1064,
773.022,3817.7806,
770.111,3831.6794,
767.200,3834.9089,
764.290,3796.9072,
761.379,3776.8962,
758.469,3782.9285,
755.558,3756.8956,
752.648,3732.4575,
749.737,3720.4443,
746.826,3682.1246,
743.916,3614.1441,
741.005,3517.9739,
738.095,3317.4403,
735.184,3094.8384,
732.274,3068.7406,
729.363,3233.297,
726.452,3495.1994,
723.542,3670.0283,
720.631,3704.8548,
717.721,3750.4328,
714.810,3775.5796,
711.899,3771.0012,
708.989,3772.6151,
706.078,3755.7976,
703.168,3751.0178,
700.257,3744.4364,
697.347,3720.4092,
694.436,3666.236,
691.525,3688.7426,
688.615,3675.3866,
685.704,3657.2862,
682.794,3657.9228,
679.883,3691.9133,
676.973,3698.3243,
674.062,3696.4346,
671.151,3719.6098,
668.241,3733.9946,
665.330,3679.2511,
662.420,3713.5966,
659.509,3743.4825,
656.598,3763.549,
653.688,3770.0945,
650.777,3762.084,
647.867,3775.6216,
644.956,3816.3932,
642.046,3778.6791,
639.135,3710.2322,
636.224,3776.5613,
633.314,3763.8583,
630.403,3761.8074,
627.493,3782.2128,
624.582,3819.9816,
621.672,3848.4934,
618.761,3862.544,
615.850,3878.7467,
612.940,3907.7509,
610.029,3940.6793,
607.119,3916.9904,
604.208,3922.4351,
601.297,3908.6754,
598.387,3910.5427,
595.476,3953.5396,
592.566,3910.2509,
589.655,3883.8362,
586.745,3867.1155,
583.834,3846.987,
580.923,3805.4828,
578.013,3781.9408,
575.102,3764.1532,
572.192,3803.5011,
569.281,3891.4528,
566.371,3901.6269,
563.460,3910.3852,
560.549,3931.6543,
557.639,3946.5966,
554.728,3938.6306,
551.818,3986.2298,
548.907,4010.6415,
545.996,4014.5707,
543.086,3998.4046,
540.175,3960.251,
537.265,4008.3246,
534.354,4036.6554,
531.444,4059.8366,
528.533,4097.232,
525.622,4105.7674,
522.712,4124.0073,
519.801,4152.9552,
516.891,4191.3893,
513.980,4234.7499,
511.070,4304.1293,
508.159,4330.1923,
505.248,4337.8884,
502.338,4367.1613,
499.427,4419.6458,
496.517,4481.1401,
493.606,4498.445,
490.695,4468.5418,
487.785,4525.5064,
484.874,4540.441,
481.964,4519.5389,
479.053,4498.8628,
476.143,4554.1561,
473.232,4541.0787,
470.321,4524.8935,
467.411,4510.5728,
464.500,4499.2844,
461.590,4525.3195,
458.679,4528.2226,
455.769,4509.5019,
452.858,4482.6697,
449.947,4540.7284,
447.037,4562.9399,
444.126,4560.3826,
441.216,4548.9905,
438.305,4574.1343,
435.395,4575.0025,
432.484,4541.5351,
429.573,4501.7726,
426.663,4523.8166,
423.752,4489.3592,
420.842,4444.8538,
417.931,4414.5034,
415.020,4428.1539,
412.110,4566.8999,
409.199,4655.7668,
406.289,4700.7906,
403.378,4716.543,
400.468,4692.3512,
397.557,4662.0024,
394.646,4628.7738,
391.736,4594.5485,
388.825,4529.6847,
385.915,4481.8865,
383.004,4462.0503,
380.094,4483.226,
377.183,4632.2163,
374.272,4739.8442,
371.362,4801.8059,
368.451,4819.7708,
365.541,4871.5578,
362.630,4896.5498,
359.719,4928.4145,
356.809,4980.5861,
353.898,4946.8902,
350.988,4975.5991,
348.077,5011.6907,
345.167,5019.1275,
342.256,4969.821,
339.345,5003.4539,
336.435,5048.6785,
333.524,5056.8364,
330.614,5063.5428,
327.703,5098.4829,
324.793,5118.7978,
321.882,5087.7638,
318.971,5145.0089,
316.061,5172.9263,
313.150,5206.1059,
310.240,5284.7702,
307.329,5261.8981,
304.418,5267.1274,
301.508,5272.2342,
298.597,5221.8858,
295.687,5236.5877,
292.776,5310.2087,
289.866,5447.6435,
286.955,5670.7386,
284.044,5822.1674,
281.134,5940.1327,
278.223,6061.7494,
275.313,6329.2279,
272.402,6482.0549,
269.492,6589.9642,
266.581,6680.4551,
263.670,6789.9969,
260.760,6886.9229,
257.849,6977.9335,
254.939,7067.4672,
252.028,7123.6372,
249.117,7151.0206,
246.207,7152.5639,
243.296,7129.1387,
240.386,7121.4011,
237.475,7072.1384,
234.565,6996.1296,
231.654,6986.6346,
228.743,6893.1415,
225.833,6778.9759,
222.922,6672.2513,
220.012,6664.2372,
217.101,6611.0813,
214.191,6549.4455,
211.280,6518.892,
208.369,6500.4775,
205.459,6467.8715,
202.548,6428.3687,
199.638,6415.307,
196.727,6454.1125,
193.816,6468.0688,
190.906,6430.9963,
187.995,6470.0936,
185.085,6494.9735,
182.174,6496.0679,
179.264,6453.4247,
176.353,6510.7806,
173.442,6497.7674,
170.532,6411.3568,
167.621,6391.8905,
164.711,6309.3665,
161.800,6156.065,
158.890,5911.3577,
155.979,5530.5653,
153.068,5070.0281,
150.158,4532.6467,
147.247,3897.9769,
144.337,3219.6184,
141.426,2544.0545,
138.516,1893.1172,
135.605,1358.2079,
132.694,932.10792,
129.784,607.37156,
126.873,395.69312,
123.963,269.54076,
121.052,186.22818,
118.141,134.82723,
115.231,109.75504,
112.320,94.117733,
109.410,84.306961,
106.499,72.200322,
103.589,59.540419,
100.678,51.081757,
97.767,49.659881,
94.857,37.151197,
91.946,33.640554,
89.036,36.737898,
86.125,37.447103,
83.215,33.377637,
80.304,29.146135,
77.393,27.729795,
74.483,23.039055,
71.572,24.248521,
68.662,30.001593,
65.751,23.643533,
62.840,26.44202,
59.930,29.377566,
57.019,20.916582,
54.109,19.027839,
51.198,16.815344,
48.288,12.687287,
45.377,20.424446,
42.466,20.739465,
39.556,17.43083,
36.645,22.346162,
33.735,18.951764,
30.824,15.287661,
27.914,17.391187,
25.003,18.870275,
22.092,21.562427,
19.182,25.922477,
16.271,35.015849,
13.361,130.50284,
10.450,294.36458,
7.539,513.63561,
4.629,588.69637,
1.718,486.31508,
-1.192,97.308428,
-4.103,-25.295338,
-7.013,-50.485389,
-9.924,-0.375,
