,PL25F9~1,
Raman shift [1/cm],Intensity,
3014.167,3.875,
3011.256,-0.27492484,
3008.346,48.917935,
3005.435,62.684189,
3002.525,65.912472,
2999.614,73.785373,
2996.704,61.830671,
2993.793,60.361176,
2990.882,69.745235,
2987.972,71.880045,
2985.061,77.751854,
2982.151,81.232981,
2979.240,86.256165,
2976.329,84.350429,
2973.419,85.736876,
2970.508,80.508287,
2967.598,85.257329,
2964.687,96.695652,
2961.777,96.345039,
2958.866,100.87797,
2955.955,97.633849,
2953.045,110.93986,
2950.134,101.51349,
2947.224,111.90347,
2944.313,108.3807,
2941.403,102.875,
2938.492,109.15142,
2935.581,106.28359,
2932.671,109.75483,
2929.760,110.47885,
2926.850,119.45695,
2923.939,120.99651,
2921.028,110.48083,
2918.118,116.21631,
2915.207,116.86855,
2912.297,120.82846,
2909.386,122.48813,
2906.476,127.875,
2903.565,144.03648,
2900.654,126.19353,
2897.744,133.79957,
2894.833,121.68955,
2891.923,120.984,
2889.012,134.1698,
2886.102,129.91553,
2883.191,110.89671,
2880.280,114.36783,
2877.370,119.73547,
2874.459,118.69889,
2871.549,121.26978,
2868.638,110.51006,
2865.727,134.21731,
2862.817,135.60361,
2859.906,129.55876,
2856.996,126.91123,
2854.085,138.24058,
2851.175,129.4684,
2848.264,126.93883,
2845.353,128.70246,
2842.443,123.67013,
2839.532,120.88997,
2836.622,119.81315,
2833.711,115.45271,
2830.801,125.86765,
2827.890,127.04284,
2824.979,126.45504,
2822.069,122.92049,
2819.158,129.53538,
2816.248,129.39237,
2813.337,115.89573,
2810.427,125.78684,
2807.516,120.29953,
2804.605,125.91827,
2801.695,122.55919,
2798.784,123.13577,
2795.874,124.4502,
2792.963,124.08936,
2790.052,122.87564,
2787.142,147.638,
2784.231,113.84397,
2781.321,126.37212,
2778.410,122.60976,
2775.500,147.78741,
2772.589,126.95297,
2769.678,149.83742,
2766.768,143.26527,
2763.857,145.76903,
2760.947,137.35924,
2758.036,141.65211,
2755.126,140.34722,
2752.215,141.83398,
2749.304,140.85341,
2746.394,143.27625,
2743.483,144.17494,
2740.573,147.00328,
2737.662,145.18418,
2734.751,148.41354,
2731.841,141.57646,
2728.930,155.22242,
2726.020,155.98206,
2723.109,145.78233,
2720.199,144.46244,
2717.288,149.52463,
2714.377,144.13336,
2711.467,152.0717,
2708.556,153.39626,
2705.646,147.95949,
2702.735,146.55026,
2699.825,158.78774,
2696.914,149.92226,
2694.003,138.60019,
2691.093,165.6608,
2688.182,154.89204,
2685.272,159.35295,
2682.361,161.72216,
2679.450,161.1219,
2676.540,166.71241,
2673.629,156.55214,
2670.719,152.51733,
2667.808,149.06954,
2664.898,152.17364,
2661.987,157.57503,
2659.076,161.49353,
2656.166,158.82734,
2653.255,159.21173,
2650.345,157.71529,
2647.434,155.96074,
2644.524,159.57765,
2641.613,163.875,
2638.702,154.03281,
2635.792,157.56194,
2632.881,157.8334,
2629.971,170.57979,
2627.060,175.04094,
2624.149,176.28126,
2621.239,175.38389,
2618.328,174.00216,
2615.418,182.1841,
2612.507,179.84343,
2609.597,176.41592,
2606.686,160.35494,
2603.775,183.19643,
2600.865,174.87837,
2597.954,172.82709,
2595.044,171.875,
2592.133,171.875,
2589.223,186.14028,
2586.312,179.29205,
2583.401,187.79468,
2580.491,189.49035,
2577.580,178.8882,
2574.670,186.59826,
2571.759,183.12243,
2568.848,169.35008,
2565.938,182.54176,
2563.027,170.97272,
2560.117,171.60397,
2557.206,173.58718,
2554.296,180.38987,
2551.385,183.75101,
2548.474,182.06013,
2545.564,191.52679,
2542.653,178.81124,
2539.743,189.89965,
2536.832,196.93669,
2533.922,188.95385,
2531.011,190.3003,
2528.100,194.20257,
2525.190,198.75984,
2522.279,201.35912,
2519.369,193.28995,
2516.458,199.43095,
2513.548,199.06592,
2510.637,186.73576,
2507.726,203.93449,
2504.816,196.56045,
2501.905,205.78781,
2498.995,200.27781,
2496.084,196.3942,
2493.173,205.55911,
2490.263,204.47048,
2487.352,212.3742,
2484.442,200.30541,
2481.531,203.61431,
2478.621,197.12615,
2475.710,209.05903,
2472.799,230.40866,
2469.889,219.48164,
2466.978,210.10186,
2464.068,214.57873,
2461.157,204.30239,
2458.247,226.71328,
2455.336,214.06872,
2452.425,204.875,
2449.515,218.61097,
2446.604,217.52942,
2443.694,218.66615,
2440.783,218.15878,
2437.872,204.45844,
2434.962,220.13767,
2432.051,224.77631,
2429.141,236.70431,
2426.230,227.72249,
2423.320,227.08939,
2420.409,227.41337,
2417.498,237.86658,
2414.588,236.60505,
2411.677,223.62802,
2408.767,237.55118,
2405.856,228.2559,
2402.946,245.03586,
2400.035,227.19658,
2397.124,230.7627,
2394.214,229.5506,
2391.303,231.01863,
2388.393,227.64941,
2385.482,265.06847,
2382.571,241.875,
2379.661,235.17745,
2376.750,245.29112,
2373.840,253.81566,
2370.929,251.875,
2368.019,244.1878,
2365.108,251.10798,
2362.197,255.23668,
2359.287,246.50508,
2356.376,253.85563,
2353.466,252.9367,
2350.555,244.77528,
2347.645,256.875,
2344.734,241.90261,
2341.823,262.46042,
2338.913,257.32274,
2336.002,240.13338,
2333.092,256.89767,
2330.181,264.83921,
2327.270,263.81999,
2324.360,276.4977,
2321.449,252.86143,
2318.539,267.70373,
2315.628,272.42896,
2312.718,276.99174,
2309.807,257.3779,
2306.896,276.36326,
2303.986,275.35555,
2301.075,278.64096,
2298.165,279.47118,
2295.254,274.00426,
2292.344,268.50569,
2289.433,274.89818,
2286.522,275.74111,
2283.612,273.63521,
2280.701,260.16202,
2277.791,283.5544,
2274.880,275.661,
2271.969,276.03549,
2269.059,282.34367,
2266.148,280.03861,
2263.238,276.07577,
2260.327,287.97833,
2257.417,278.95889,
2254.506,292.11148,
2251.595,298.01681,
2248.685,286.35389,
2245.774,284.57825,
2242.864,305.09696,
2239.953,297.97148,
2237.043,307.58893,
2234.132,289.86206,
2231.221,290.82337,
2228.311,294.00516,
2225.400,286.24089,
2222.490,301.10306,
2219.579,310.19119,
2216.669,303.40123,
2213.758,312.87763,
2210.847,341.83215,
2207.937,329.60792,
2205.026,334.98608,
2202.116,336.66162,
2199.205,343.82465,
2196.294,359.30498,
2193.384,347.40197,
2190.473,352.74472,
2187.563,381.817,
2184.652,371.83296,
2181.742,388.19384,
2178.831,389.44305,
2175.920,395.27574,
2173.010,386.67319,
2170.099,395.20636,
2167.189,375.11179,
2164.278,409.48907,
2161.368,421.16044,
2158.457,430.26402,
2155.546,444.9654,
2152.636,431.9708,
2149.725,448.67364,
2146.815,432.60912,
2143.904,449.58502,
2140.993,473.4094,
2138.083,467.13338,
2135.172,470.27844,
2132.262,468.73151,
2129.351,458.60947,
2126.441,469.36047,
2123.530,448.79643,
2120.619,441.875,
2117.709,431.85487,
2114.798,399.21341,
2111.888,404.68694,
2108.977,388.90147,
2106.067,381.21716,
2103.156,372.43714,
2100.245,371.85994,
2097.335,348.71793,
2094.424,356.3111,
2091.514,356.94217,
2088.603,356.04548,
2085.692,363.46607,
2082.782,349.73854,
2079.871,346.33941,
2076.961,351.55211,
2074.050,354.32955,
2071.140,375.15148,
2068.229,333.24219,
2065.318,335.76451,
2062.408,338.01117,
2059.497,343.30359,
2056.587,355.00287,
2053.676,345.25898,
2050.766,368.71954,
2047.855,348.0174,
2044.944,354.47115,
2042.034,364.875,
2039.123,362.49453,
2036.213,364.95059,
2033.302,370.07071,
2030.391,355.28209,
2027.481,371.19187,
2024.570,372.13232,
2021.660,351.11671,
2018.749,353.71079,
2015.839,368.95636,
2012.928,332.48406,
2010.017,342.42006,
2007.107,363.1797,
2004.196,372.22022,
2001.286,348.9563,
1998.375,345.52953,
1995.465,346.51518,
1992.554,358.14548,
1989.643,345.39346,
1986.733,350.66096,
1983.822,346.875,
1980.912,350.29112,
1978.001,357.79893,
1975.090,345.28874,
1972.180,342.77127,
1969.269,337.94969,
1966.359,340.9562,
1963.448,343.68345,
1960.538,335.57141,
1957.627,353.49111,
1954.716,346.16227,
1951.806,349.57693,
1948.895,345.15028,
1945.985,355.30474,
1943.074,351.3401,
1940.164,316.20168,
1937.253,312.37032,
1934.342,324.30228,
1931.432,317.02957,
1928.521,334.10989,
1925.611,356.56966,
1922.700,345.25484,
1919.790,332.26238,
1916.879,319.71199,
1913.968,337.85164,
1911.058,316.2714,
1908.147,322.93778,
1905.237,328.08822,
1902.326,322.72092,
1899.415,327.54695,
1896.505,318.26044,
1893.594,321.68299,
1890.684,334.12995,
1887.773,317.63385,
1884.863,319.16657,
1881.952,341.31233,
1879.041,339.04063,
1876.131,322.84494,
1873.220,309.41478,
1870.310,315.301,
1867.399,347.36321,
1864.489,330.30338,
1861.578,340.7816,
1858.667,341.04864,
1855.757,340.70078,
1852.846,316.64934,
1849.936,334.20032,
1847.025,340.46381,
1844.114,343.50796,
1841.204,331.5778,
1838.293,335.82677,
1835.383,367.6075,
1832.472,355.04891,
1829.562,356.37344,
1826.651,347.14812,
1823.740,344.97079,
1820.830,380.82806,
1817.919,376.21622,
1815.009,330.91954,
1812.098,354.39467,
1809.188,359.75096,
1806.277,370.63155,
1803.366,362.37409,
1800.456,392.03987,
1797.545,391.74041,
1794.635,358.68197,
1791.724,345.85556,
1788.813,356.27551,
1785.903,363.50287,
1782.992,380.53371,
1780.082,364.8245,
1777.171,349.88197,
1774.261,366.38481,
1771.350,349.875,
1768.439,363.91952,
1765.529,370.14533,
1762.618,354.39187,
1759.708,371.24474,
1756.797,384.10985,
1753.887,406.82543,
1750.976,408.59556,
1748.065,406.32047,
1745.155,404.57183,
1742.244,398.55073,
1739.334,378.70324,
1736.423,393.19086,
1733.512,402.875,
1730.602,402.875,
1727.691,411.31927,
1724.781,426.46023,
1721.870,439.5322,
1718.960,451.74179,
1716.049,409.40934,
1713.138,430.79985,
1710.228,423.69084,
1707.317,436.02814,
1704.407,417.21186,
1701.496,446.77917,
1698.586,455.41891,
1695.675,420.31807,
1692.764,444.38321,
1689.854,424.82774,
1686.943,451.89696,
1684.033,443.12336,
1681.122,493.00839,
1678.211,495.85597,
1675.301,456.99525,
1672.390,485.94678,
1669.480,509.88302,
1666.569,510.77343,
1663.659,503.51196,
1660.748,542.20279,
1657.837,559.70605,
1654.927,595.65669,
1652.016,544.8021,
1649.106,542.09533,
1646.195,553.15276,
1643.285,644.14322,
1640.374,570.87848,
1637.463,618.25331,
1634.553,638.62378,
1631.642,622.24417,
1628.732,656.32533,
1625.821,731.85799,
1622.911,706.02151,
1620.000,759.19467,
1617.089,838.28296,
1614.179,859.31098,
1611.268,941.71488,
1608.358,939.15594,
1605.447,936.98927,
1602.536,1022.6086,
1599.626,1012.3162,
1596.715,971.84815,
1593.805,953.56569,
1590.894,980.93711,
1587.984,961.49051,
1585.073,934.05213,
1582.162,923.19591,
1579.252,917.78349,
1576.341,944.11116,
1573.431,893.70329,
1570.520,871.75998,
1567.610,886.26741,
1564.699,881.72458,
1561.788,882.80453,
1558.878,857.56447,
1555.967,803.25312,
1553.057,814.40915,
1550.146,811.9805,
1547.235,758.14247,
1544.325,767.2001,
1541.414,767.79202,
1538.504,769.05132,
1535.593,789.4666,
1532.683,766.12105,
1529.772,764.86841,
1526.861,789.44939,
1523.951,781.0114,
1521.040,785.41156,
1518.130,795.51278,
1515.219,793.99439,
1512.309,807.44254,
1509.398,784.875,
1506.487,777.81238,
1503.577,738.9682,
1500.666,703.24007,
1497.756,739.01921,
1494.845,752.35472,
1491.934,739.85295,
1489.024,733.1155,
1486.113,691.1503,
1483.203,698.53301,
1480.292,698.17798,
1477.382,686.55953,
1474.471,694.61831,
1471.560,681.18468,
1468.650,673.50845,
1465.739,644.69343,
1462.829,656.92542,
1459.918,658.19529,
1457.008,663.67525,
1454.097,650.52394,
1451.186,600.39918,
1448.276,610.91667,
1445.365,645.37263,
1442.455,622.61471,
1439.544,640.11842,
1436.633,643.33081,
1433.723,625.23981,
1430.812,646.51076,
1427.902,616.875,
1424.991,616.875,
1422.081,599.44294,
1419.170,628.11711,
1416.259,628.01462,
1413.349,621.58831,
1410.438,628.97214,
1407.528,609.7003,
1404.617,610.37895,
1401.707,611.92589,
1398.796,579.85758,
1395.885,562.20973,
1392.975,572.979,
1390.064,535.85546,
1387.154,452.89294,
1384.243,399.45797,
1381.332,322.07226,
1378.422,375.98093,
1375.511,455.60731,
1372.601,557.32617,
1369.690,631.02391,
1366.780,636.33075,
1363.869,637.78091,
1360.958,666.60408,
1358.048,655.9559,
1355.137,677.24994,
1352.227,721.4829,
1349.316,730.93086,
1346.406,727.875,
1343.495,742.32452,
1340.584,776.94706,
1337.674,735.01739,
1334.763,730.94482,
1331.853,811.61392,
1328.942,824.6591,
1326.032,789.98769,
1323.121,779.65211,
1320.210,822.15985,
1317.300,853.90895,
1314.389,840.83294,
1311.479,814.01098,
1308.568,825.78566,
1305.657,862.9083,
1302.747,851.40491,
1299.836,839.5115,
1296.926,936.23406,
1294.015,922.44421,
1291.105,933.32204,
1288.194,1016.3468,
1285.283,1023.9869,
1282.373,1042.289,
1279.462,1059.7181,
1276.552,1057.3002,
1273.641,1064.1612,
1270.731,1079.4063,
1267.820,1063.4595,
1264.909,1058.49,
1261.999,1035.2731,
1259.088,1073.5822,
1256.178,1049.3249,
1253.267,1032.5999,
1250.356,1009.9119,
1247.446,997.35464,
1244.535,995.86607,
1241.625,986.78244,
1238.714,976.54543,
1235.804,982.94299,
1232.893,968.99981,
1229.982,969.59903,
1227.072,961.45122,
1224.161,903.72074,
1221.251,886.91893,
1218.340,838.88035,
1215.430,808.92018,
1212.519,821.6271,
1209.608,848.96251,
1206.698,857.78979,
1203.787,847.74435,
1200.877,858.82226,
1197.966,874.10796,
1195.055,905.59195,
1192.145,944.68545,
1189.234,967.55326,
1186.324,1003.3324,
1183.413,1022.5755,
1180.503,1015.875,
1177.592,1009.1375,
1174.681,990.16951,
1171.771,1013.6992,
1168.860,1049.4228,
1165.950,1032.7178,
1163.039,1027.875,
1160.129,1030.2344,
1157.218,1005.9153,
1154.307,978.24603,
1151.397,991.64827,
1148.486,1021.7309,
1145.576,987.53031,
1142.665,1002.6248,
1139.754,988.41605,
1136.844,970.16864,
1133.933,974.43211,
1131.023,982.81919,
1128.112,979.23282,
1125.202,968.94264,
1122.291,961.74696,
1119.380,953.94429,
1116.470,961.00452,
1113.559,954.91576,
1110.649,941.08778,
1107.738,923.087,
1104.828,914.1233,
1101.917,919.12958,
1099.006,931.78209,
1096.096,954.875,
1093.185,954.875,
1090.275,957.30281,
1087.364,948.26928,
1084.453,966.93603,
1081.543,976.98702,
1078.632,988.81261,
1075.722,1036.4989,
1072.811,1030.9657,
1069.901,975.95028,
1066.990,971.875,
1064.079,995.69299,
1061.169,995.27667,
1058.258,988.8394,
1055.348,990.22937,
1052.437,986.49881,
1049.527,999.53934,
1046.616,990.85104,
1043.705,989.875,
1040.795,993.06752,
1037.884,1010.0471,
1034.974,1016.6817,
1032.063,996.19831,
1029.153,978.40632,
1026.242,1007.8148,
1023.331,994.70924,
1020.421,999.54312,
1017.510,1007.3572,
1014.600,1014.6814,
1011.689,1035.5539,
1008.778,1069.7436,
1005.868,1040.0835,
1002.957,1063.3131,
1000.047,1120.747,
997.136,1127.9538,
994.226,1113.5212,
991.315,1111.7463,
988.404,1110.5531,
985.494,1047.4312,
982.583,1072.2714,
979.673,1064.1687,
976.762,1061.0492,
973.852,1060.991,
970.941,1049.2053,
968.030,1025.0773,
965.120,1031.9573,
962.209,1051.5658,
959.299,1045.6678,
956.388,1046.3547,
953.477,1049.464,
950.567,1056.1949,
947.656,1073.1984,
944.746,1045.1631,
941.835,1065.74,
938.925,1079.4297,
936.014,1100.5673,
933.103,1110.5193,
930.193,1105.0675,
927.282,1127.996,
924.372,1093.3262,
921.461,1083.7202,
918.551,1065.0279,
915.640,1066.0483,
912.729,1070.4572,
909.819,1034.5422,
906.908,1039.5968,
903.998,1020.7863,
901.087,1037.5162,
898.176,1045.103,
895.266,1044.636,
892.355,1060.6862,
889.445,1091.7391,
886.534,1093.5447,
883.624,1088.4923,
880.713,1085.875,
877.802,1091.4333,
874.892,1099.8527,
871.981,1090.6777,
869.071,1082.3236,
866.160,1085.0148,
863.250,1073.2457,
860.339,1067.6765,
857.428,1070.5009,
854.518,1031.6453,
851.607,1058.2715,
848.697,1080.0704,
845.786,1078.0146,
842.875,1083.556,
839.965,1107.8215,
837.054,1094.0983,
834.144,1113.9883,
831.233,1109.8756,
828.323,1122.6904,
825.412,1133.4357,
822.501,1121.2155,
819.591,1128.6531,
816.680,1108.0416,
813.770,1094.104,
810.859,1079.3989,
807.949,1076.6946,
805.038,1097.0874,
802.127,1074.0398,
799.217,1077.8381,
796.306,1066.8208,
793.396,1058.4323,
790.485,1066.1395,
787.574,1085.0654,
784.664,1063.7425,
781.753,1086.7144,
778.843,1109.1866,
775.932,1121.0355,
773.022,1120.5495,
770.111,1086.2112,
767.200,1097.5786,
764.290,1083.9608,
761.379,1064.1793,
758.469,1053.2472,
755.558,1049.4162,
752.648,1000.54,
749.737,1003.9308,
746.826,962.85422,
743.916,884.69933,
741.005,791.4944,
738.095,495.97123,
735.184,261.37334,
732.274,246.03448,
729.363,425.59043,
726.452,706.07383,
723.542,928.65699,
720.631,989.04096,
717.721,1009.0306,
714.810,1041.4259,
711.899,1087.6869,
708.989,1086.88,
706.078,1058.8294,
703.168,1059.1617,
700.257,1072.1264,
697.347,1081.2666,
694.436,1071.8095,
691.525,1069.3981,
688.615,1042.4607,
685.704,1051.4815,
682.794,1081.3006,
679.883,1073.1273,
676.973,1078.7369,
674.062,1058.8183,
671.151,1097.283,
668.241,1152.3451,
665.330,1122.2532,
662.420,1130.2405,
659.509,1120.4462,
656.598,1129.0212,
653.688,1139.4433,
650.777,1108.7931,
647.867,1135.8682,
644.956,1138.7792,
642.046,1129.8268,
639.135,1121.1327,
636.224,1125.6522,
633.314,1081.1916,
630.403,1080.5168,
627.493,1096.7087,
624.582,1106.9904,
621.672,1089.5666,
618.761,1117.7527,
615.850,1103.1825,
612.940,1092.7549,
610.029,1109.4804,
607.119,1107.1115,
604.208,1120.3653,
601.297,1112.9135,
598.387,1091.5627,
595.476,1069.7608,
592.566,1057.9548,
589.655,1062.3539,
586.745,1043.7426,
583.834,1012.8987,
580.923,1005.766,
578.013,987.71712,
575.102,1021.3054,
572.192,1053.4478,
569.281,1062.8276,
566.371,1079.2627,
563.460,1104.1555,
560.549,1111.9259,
557.639,1108.5322,
554.728,1107.3386,
551.818,1146.3544,
548.907,1162.7974,
545.996,1167.0974,
543.086,1164.0296,
540.175,1155.4645,
537.265,1168.6363,
534.354,1146.7837,
531.444,1109.286,
528.533,1086.0688,
525.622,1145.0408,
522.712,1132.9981,
519.801,1134.0596,
516.891,1162.6575,
513.980,1166.529,
511.070,1183.075,
508.159,1197.0385,
505.248,1202.6217,
502.338,1195.4683,
499.427,1181.5754,
496.517,1204.4608,
493.606,1219.4911,
490.695,1214.8661,
487.785,1257.9744,
484.874,1224.8091,
481.964,1196.2305,
479.053,1184.6687,
476.143,1175.4532,
473.232,1200.7735,
470.321,1198.224,
467.411,1177.2772,
464.500,1154.6811,
461.590,1147.0237,
458.679,1172.94,
455.769,1194.2997,
452.858,1191.1136,
449.947,1193.4054,
447.037,1205.4035,
444.126,1208.4386,
441.216,1203.6531,
438.305,1219.6536,
435.395,1194.3383,
432.484,1185.7095,
429.573,1193.875,
426.663,1193.875,
423.752,1229.4434,
420.842,1244.875,
417.931,1231.7314,
415.020,1185.4716,
412.110,1217.5292,
409.199,1230.853,
406.289,1236.5486,
403.378,1250.7111,
400.468,1202.3274,
397.557,1203.3278,
394.646,1187.0922,
391.736,1097.6879,
388.825,998.12935,
385.915,975.79352,
383.004,977.30631,
380.094,970.32813,
377.183,1057.6154,
374.272,1136.6958,
371.362,1190.5275,
368.451,1211.1546,
365.541,1248.6814,
362.630,1258.875,
359.719,1267.754,
356.809,1286.7908,
353.898,1252.3461,
350.988,1257.5221,
348.077,1261.1627,
345.167,1240.4805,
342.256,1252.4336,
339.345,1262.7836,
336.435,1265.2663,
333.524,1255.8045,
330.614,1253.5691,
327.703,1275.4648,
324.793,1297.6484,
321.882,1299.875,
318.971,1299.875,
316.061,1300.8516,
313.150,1301.875,
310.240,1301.875,
307.329,1362.6191,
304.418,1345.3833,
301.508,1278.9396,
298.597,1215.2637,
295.687,1148.2461,
292.776,1140.5418,
289.866,1196.7196,
286.955,1319.3481,
284.044,1443.1349,
281.134,1540.0523,
278.223,1614.8565,
275.313,1717.2794,
272.402,1780.1191,
269.492,1801.0031,
266.581,1786.1316,
263.670,1845.6812,
260.760,1875.9346,
257.849,1905.3256,
254.939,1955.2297,
252.028,1944.2935,
249.117,1927.0838,
246.207,1902.4045,
243.296,1865.8026,
240.386,1864.487,
237.475,1848.5866,
234.565,1818.9194,
231.654,1806.5029,
228.743,1790.6415,
225.833,1779.6554,
222.922,1775.9917,
220.012,1757.0492,
217.101,1733.6999,
214.191,1716.0936,
211.280,1716.821,
208.369,1677.179,
205.459,1642.7035,
202.548,1623.1341,
199.638,1642.0009,
196.727,1652.2134,
193.816,1655.3699,
190.906,1652.4591,
187.995,1669.1116,
185.085,1671.565,
182.174,1669.8338,
179.264,1677.0615,
176.353,1653.5254,
173.442,1659.8157,
170.532,1688.4065,
167.621,1632.8913,
164.711,1570.5739,
161.800,1510.1799,
158.890,1458.3596,
155.979,1349.7447,
153.068,1260.9179,
150.158,1167.5516,
147.247,965.80698,
144.337,783.13809,
141.426,618.3538,
138.516,473.54177,
135.605,326.74681,
132.694,221.95059,
129.784,150.70101,
126.873,98.496531,
123.963,62.835914,
121.052,41.042108,
118.141,33.903088,
115.231,30.322148,
112.320,26.75682,
109.410,23.465934,
106.499,21.329469,
103.589,22.555763,
100.678,21.158783,
97.767,14.049407,
94.857,11.103044,
91.946,13.502998,
89.036,17.520225,
86.125,9.0097618,
83.215,8.4677611,
80.304,8.6778366,
77.393,5.1369869,
74.483,12.081485,
71.572,14.063239,
68.662,10.459395,
65.751,6.2206885,
62.840,4.393298,
59.930,5.3732896,
57.019,11.013945,
54.109,5.3062307,
51.198,2.9862649,
48.288,7.8636751,
45.377,6.456919,
42.466,7.5238774,
39.556,9.7598814,
36.645,9.0576912,
33.735,14.067485,
30.824,16.66613,
27.914,9.6543778,
25.003,7.629725,
22.092,12.041473,
19.182,23.424189,
16.271,40.211952,
13.361,139.59575,
10.450,335.14278,
7.539,731.78591,
4.629,1170.4862,
1.718,1426.9306,
-1.192,1238.0044,
-4.103,776.35297,
-7.013,342.77588,
-9.924,-3.125,
