,PL7EB6~1,
Wavenumbers [1/cm],Intensity,
3014.167,5.875,
3011.256,-3.2749248,
3008.346,138.51831,
3005.435,158.83613,
3002.525,157.66751,
2999.614,178.49836,
2996.704,161.3348,
2993.793,176.98042,
2990.882,189.61547,
2987.972,195.875,
2985.061,203.41196,
2982.151,205.82962,
2979.240,220.19154,
2976.329,213.36135,
2973.419,229.32121,
2970.508,236.12495,
2967.598,231.73524,
2964.687,247.91984,
2961.777,245.96901,
2958.866,245.54662,
2955.955,242.66924,
2953.045,269.2598,
2950.134,275.02368,
2947.224,275.41591,
2944.313,288.93127,
2941.403,292.43476,
2938.492,301.86415,
2935.581,311.66515,
2932.671,301.99517,
2929.760,317.84425,
2926.850,295.80846,
2923.939,312.51519,
2921.028,318.03977,
2918.118,331.95561,
2915.207,336.28639,
2912.297,323.92578,
2909.386,314.05019,
2906.476,318.38622,
2903.565,328.55203,
2900.654,342.82746,
2897.744,336.48526,
2894.833,303.81318,
2891.923,326.82381,
2889.012,313.58598,
2886.102,307.29121,
2883.191,311.87217,
2880.280,244.497,
2877.370,177.42748,
2874.459,87.542195,
2871.549,204.29642,
2868.638,310.88318,
2865.727,308.29806,
2862.817,337.46188,
2859.906,316.69836,
2856.996,336.84783,
2854.085,348.15652,
2851.175,367.89613,
2848.264,364.14966,
2845.353,356.57306,
2842.443,349.66316,
2839.532,366.86003,
2836.622,338.66731,
2833.711,364.08223,
2830.801,355.28529,
2827.890,366.24912,
2824.979,370.86294,
2822.069,368.93186,
2819.158,371.21462,
2816.248,370.61053,
2813.337,359.71035,
2810.427,377.57335,
2807.516,382.97562,
2804.605,386.69231,
2801.695,383.6513,
2798.784,376.09677,
2795.874,373.57947,
2792.963,375.16053,
2790.052,380.87286,
2787.142,375.34854,
2784.231,362.71351,
2781.321,375.12068,
2778.410,368.02474,
2775.500,384.59706,
2772.589,370.22133,
2769.678,372.41084,
2766.768,382.42647,
2763.857,386.40101,
2760.947,379.84978,
2758.036,394.51206,
2755.126,396.35363,
2752.215,385.6204,
2749.304,374.89659,
2746.394,375.01404,
2743.483,398.425,
2740.573,388.22894,
2737.662,392.00221,
2734.751,402.31676,
2731.841,400.98306,
2728.930,397.99785,
2726.020,401.31887,
2723.109,405.30792,
2720.199,405.89367,
2717.288,413.61222,
2714.377,412.61664,
2711.467,403.39918,
2708.556,427.08763,
2705.646,441.1708,
2702.735,436.88016,
2699.825,444.80956,
2696.914,419.54087,
2694.003,408.31564,
2691.093,427.5537,
2688.182,423.23796,
2685.272,427.67158,
2682.361,436.875,
2679.450,434.04374,
2676.540,441.97662,
2673.629,438.24724,
2670.719,427.94062,
2667.808,427.11818,
2664.898,433.27773,
2661.987,432.10846,
2659.076,446.47629,
2656.166,447.15192,
2653.255,466.43622,
2650.345,456.3632,
2647.434,450.93273,
2644.524,467.4697,
2641.613,469.84672,
2638.702,472.90656,
2635.792,487.87798,
2632.881,466.60711,
2629.971,470.49247,
2627.060,462.70781,
2624.149,471.46874,
2621.239,467.10573,
2618.328,465.79023,
2615.418,461.55227,
2612.507,473.62988,
2609.597,477.51771,
2606.686,492.30468,
2603.775,459.2758,
2600.865,471.04909,
2597.954,479.01874,
2595.044,486.16995,
2592.133,480.81116,
2589.223,477.22448,
2586.312,506.84494,
2583.401,483.13782,
2580.491,498.97116,
2577.580,507.85189,
2574.670,496.91911,
2571.759,490.01114,
2568.848,490.22313,
2565.938,503.35116,
2563.027,495.43417,
2560.117,509.46386,
2557.206,504.56135,
2554.296,507.875,
2551.385,514.00706,
2548.474,512.72667,
2545.564,526.3052,
2542.653,517.01259,
2539.743,515.69016,
2536.832,523.32359,
2533.922,541.92231,
2531.011,543.50012,
2528.100,527.08054,
2525.190,534.84877,
2522.279,528.54671,
2519.369,523.68621,
2516.458,536.77018,
2513.548,552.77488,
2510.637,519.85872,
2507.726,535.18727,
2504.816,542.62585,
2501.905,536.5128,
2498.995,541.57641,
2496.084,540.86109,
2493.173,549.875,
2490.263,551.47048,
2487.352,571.7498,
2484.442,569.72939,
2481.531,574.50795,
2478.621,564.59059,
2475.710,571.81366,
2472.799,565.84807,
2469.889,576.72265,
2466.978,576.8235,
2464.068,554.76382,
2461.157,573.72003,
2458.247,569.72795,
2455.336,570.21551,
2452.425,578.7901,
2449.515,571.71493,
2446.604,593.33577,
2443.694,598.40951,
2440.783,592.49437,
2437.872,592.20318,
2434.962,597.46026,
2432.051,606.40621,
2429.141,610.21638,
2426.230,616.02751,
2423.320,611.40363,
2420.409,608.1186,
2417.498,620.03794,
2414.588,632.96243,
2411.677,623.16187,
2408.767,628.59843,
2405.856,618.12264,
2402.946,617.98224,
2400.035,618.07688,
2397.124,616.43649,
2394.214,617.631,
2391.303,610.33909,
2388.393,621.81921,
2385.482,621.09531,
2382.571,595.875,
2379.661,605.92133,
2376.750,639.66061,
2373.840,650.30626,
2370.929,646.90749,
2368.019,660.22413,
2365.108,662.31741,
2362.197,641.34616,
2359.287,638.85829,
2356.376,659.84154,
2353.466,661.26883,
2350.555,660.50491,
2347.645,666.34783,
2344.734,663.41876,
2341.823,686.44384,
2338.913,666.51977,
2336.002,676.37011,
2333.092,679.54195,
2330.181,683.47342,
2327.270,699.26994,
2324.360,697.33727,
2321.449,698.39882,
2318.539,706.85359,
2315.628,708.66477,
2312.718,702.80892,
2309.807,696.96801,
2306.896,711.62304,
2303.986,713.48541,
2301.075,709.47077,
2298.165,707.26928,
2295.254,709.83191,
2292.344,712.66337,
2289.433,723.25728,
2286.522,726.12062,
2283.612,732.05614,
2280.701,736.27859,
2277.791,728.99522,
2274.880,740.22084,
2271.969,768.55401,
2269.059,751.46899,
2266.148,759.11373,
2263.238,743.38467,
2260.327,746.5991,
2257.417,750.94055,
2254.506,766.761,
2251.595,758.72587,
2248.685,775.65957,
2245.774,797.89667,
2242.864,787.42114,
2239.953,775.8682,
2237.043,763.94035,
2234.132,798.85669,
2231.221,803.82065,
2228.311,769.90983,
2225.400,797.88991,
2222.490,776.87203,
2219.579,834.55881,
2216.669,820.44893,
2213.758,832.27111,
2210.847,842.84478,
2207.937,839.95644,
2205.026,826.31873,
2202.116,850.85694,
2199.205,859.10041,
2196.294,858.74298,
2193.384,860.61199,
2190.473,860.59096,
2187.563,893.01034,
2184.652,921.92928,
2181.742,940.58112,
2178.831,974.83222,
2175.920,988.0353,
2173.010,1027.2276,
2170.099,1092.7356,
2167.189,1143.4132,
2164.278,1223.5976,
2161.368,1287.4427,
2158.457,1367.6876,
2155.546,1427.8116,
2152.636,1512.6834,
2149.725,1579.1434,
2146.815,1662.339,
2143.904,1731.7746,
2140.993,1735.0654,
2138.083,1756.5345,
2135.172,1784.749,
2132.262,1797.3715,
2129.351,1767.9335,
2126.441,1716.4671,
2123.530,1656.6516,
2120.619,1542.1322,
2117.709,1478.2526,
2114.798,1395.344,
2111.888,1311.1896,
2108.977,1228.0008,
2106.067,1171.2312,
2103.156,1110.6042,
2100.245,1041.8562,
2097.335,1006.4562,
2094.424,971.18329,
2091.514,968.42862,
2088.603,925.11008,
2085.692,909.28393,
2082.782,908.875,
2079.871,899.01736,
2076.961,891.26247,
2074.050,913.03258,
2071.140,877.67953,
2068.229,882.14713,
2065.318,877.13374,
2062.408,870.82961,
2059.497,864.25594,
2056.587,869.93294,
2053.676,869.15868,
2050.766,876.18217,
2047.855,837.70413,
2044.944,832.54006,
2042.034,847.77688,
2039.123,862.13089,
2036.213,832.9306,
2033.302,858.28787,
2030.391,850.48564,
2027.481,825.25319,
2024.570,843.47438,
2021.660,859.16545,
2018.749,850.53309,
2015.839,841.60597,
2012.928,838.03607,
2010.017,840.96513,
2007.107,858.61892,
2004.196,854.31547,
2001.286,834.9563,
1998.375,823.875,
1995.465,780.61161,
1992.554,819.70986,
1989.643,786.32668,
1986.733,810.62412,
1983.822,814.56481,
1980.912,768.12336,
1978.001,790.96033,
1975.090,770.45363,
1972.180,779.35771,
1969.269,778.74281,
1966.359,779.17231,
1963.448,743.34923,
1960.538,781.81162,
1957.627,763.55919,
1954.716,756.96118,
1951.806,720.42146,
1948.895,734.95591,
1945.985,759.40278,
1943.074,744.47281,
1940.164,733.0479,
1937.253,703.37968,
1934.342,697.49906,
1931.432,706.10213,
1928.521,742.78692,
1925.611,726.6741,
1922.700,711.08356,
1919.790,657.47676,
1916.879,672.13126,
1913.968,705.83565,
1911.058,676.6768,
1908.147,679.32176,
1905.237,695.61752,
1902.326,634.22459,
1899.415,666.09693,
1896.505,632.39301,
1893.594,630.68905,
1890.684,650.75074,
1887.773,656.09928,
1884.863,648.68593,
1881.952,684.53963,
1879.041,649.43366,
1876.131,685.80962,
1873.220,669.1094,
1870.310,652.80776,
1867.399,659.74705,
1864.489,652.35485,
1861.578,689.90239,
1858.667,697.381,
1855.757,681.87858,
1852.846,679.63397,
1849.936,676.10824,
1847.025,671.39809,
1844.114,697.05852,
1841.204,695.13024,
1838.293,713.84839,
1835.383,703.64303,
1832.472,683.65413,
1829.562,712.9823,
1826.651,707.6779,
1823.740,718.25818,
1820.830,723.56002,
1817.919,693.55745,
1815.009,714.27449,
1812.098,737.72538,
1809.188,699.54176,
1806.277,721.3217,
1803.366,709.45727,
1800.456,742.83081,
1797.545,724.13745,
1794.635,719.58404,
1791.724,741.50602,
1788.813,753.06626,
1785.903,724.23354,
1782.992,702.24306,
1780.082,640.90809,
1777.171,594.53666,
1774.261,610.91571,
1771.350,690.07951,
1768.439,740.43135,
1765.529,770.42037,
1762.618,759.72936,
1759.708,765.22299,
1756.797,770.6553,
1753.887,759.61844,
1750.976,753.74738,
1748.065,763.77822,
1745.155,743.13327,
1742.244,723.56432,
1739.334,788.97616,
1736.423,785.96103,
1733.512,815.53366,
1730.602,825.89086,
1727.691,800.07752,
1724.781,795.23473,
1721.870,789.43687,
1718.960,796.09732,
1716.049,801.2309,
1713.138,832.65485,
1710.228,837.0047,
1707.317,839.52871,
1704.407,811.12629,
1701.496,846.16001,
1698.586,863.73477,
1695.675,859.26075,
1692.764,897.69059,
1689.854,853.95371,
1686.943,865.40284,
1684.033,952.66457,
1681.122,896.87755,
1678.211,948.37058,
1675.301,955.85342,
1672.390,972.85406,
1669.480,966.10764,
1666.569,995.14161,
1663.659,1016.1527,
1660.748,1033.2028,
1657.837,1049.8531,
1654.927,1050.3042,
1652.016,1111.3815,
1649.106,1171.1161,
1646.195,1142.5054,
1643.285,1208.7839,
1640.374,1205.5649,
1637.463,1239.7485,
1634.553,1342.1262,
1631.642,1359.9825,
1628.732,1461.6868,
1625.821,1597.93,
1622.911,1681.4016,
1620.000,1858.6198,
1617.089,1997.1088,
1614.179,2136.8987,
1611.268,2300.7035,
1608.358,2417.4435,
1605.447,2507.7328,
1602.536,2589.2897,
1599.626,2535.9993,
1596.715,2605.2983,
1593.805,2503.7665,
1590.894,2467.0969,
1587.984,2464.7411,
1585.073,2376.3901,
1582.162,2378.4076,
1579.252,2327.0488,
1576.341,2292.4452,
1573.431,2305.6712,
1570.520,2307.8175,
1567.610,2277.0706,
1564.699,2216.1229,
1561.788,2144.7628,
1558.878,2143.3579,
1555.967,2082.8445,
1553.057,2034.1165,
1550.146,1990.6169,
1547.235,1923.6005,
1544.325,1867.4261,
1541.414,1850.5753,
1538.504,1810.7432,
1535.593,1745.5555,
1532.683,1699.5804,
1529.772,1664.8002,
1526.861,1668.1868,
1523.951,1686.4388,
1521.040,1653.4593,
1518.130,1597.0785,
1515.219,1549.9141,
1512.309,1561.7984,
1509.398,1508.816,
1506.487,1519.2691,
1503.577,1479.7316,
1500.666,1454.1281,
1497.756,1483.9084,
1494.845,1435.0746,
1491.934,1415.8152,
1489.024,1397.5278,
1486.113,1344.0237,
1483.203,1303.4601,
1480.292,1244.5703,
1477.382,1214.6688,
1474.471,1173.8082,
1471.560,1184.645,
1468.650,1140.9462,
1465.739,1112.3916,
1462.829,1123.6018,
1459.918,1098.0681,
1457.008,1060.7364,
1454.097,1053.2615,
1451.186,1047.3895,
1448.276,1057.9062,
1445.365,1109.3063,
1442.455,1127.6624,
1439.544,1093.4645,
1436.633,1097.8353,
1433.723,1059.9996,
1430.812,1058.1413,
1427.902,1023.8299,
1424.991,1021.9344,
1422.081,1039.3071,
1419.170,1043.4672,
1416.259,994.46115,
1413.349,991.18265,
1410.438,1047.758,
1407.528,1002.6384,
1404.617,975.44331,
1401.707,960.6175,
1398.796,936.15473,
1395.885,971.80054,
1392.975,997.64449,
1390.064,936.52053,
1387.154,934.61357,
1384.243,950.66881,
1381.332,968.10034,
1378.422,964.67669,
1375.511,1019.01,
1372.601,1139.6791,
1369.690,1112.1572,
1366.780,1229.4325,
1363.869,1265.5074,
1360.958,1223.9609,
1358.048,1286.1253,
1355.137,1331.7843,
1352.227,1350.6137,
1349.316,1425.9244,
1346.406,1498.4544,
1343.495,1543.788,
1340.584,1612.4469,
1337.674,1593.4879,
1334.763,1680.887,
1331.853,1654.9245,
1328.942,1688.5641,
1326.032,1760.5715,
1323.121,1827.0015,
1320.210,1896.8168,
1317.300,1928.7773,
1314.389,2042.8494,
1311.479,2135.5159,
1308.568,2160.7452,
1305.657,2245.08,
1302.747,2289.1867,
1299.836,2348.1798,
1296.926,2482.0797,
1294.015,2551.0289,
1291.105,2694.7617,
1288.194,2798.5418,
1285.283,2904.3634,
1282.373,2980.2733,
1279.462,3060.3249,
1276.552,3131.8909,
1273.641,3192.6231,
1270.731,3227.5854,
1267.820,3206.8709,
1264.909,3266.0616,
1261.999,3252.3091,
1259.088,3236.803,
1256.178,3157.9375,
1253.267,3131.8327,
1250.356,3039.1547,
1247.446,2871.3154,
1244.535,2746.701,
1241.625,2652.5492,
1238.714,2532.6911,
1235.804,2440.0207,
1232.893,2375.7672,
1229.982,2296.9857,
1227.072,2270.7317,
1224.161,2252.9054,
1221.251,2205.2044,
1218.340,2180.1578,
1215.430,2161.6622,
1212.519,2137.745,
1209.608,2092.8162,
1206.698,2046.5135,
1203.787,2062.1363,
1200.877,2047.0013,
1197.966,2129.724,
1195.055,2214.9336,
1192.145,2261.1828,
1189.234,2328.9687,
1186.324,2390.9689,
1183.413,2419.5247,
1180.503,2429.6201,
1177.592,2434.5112,
1174.681,2398.8921,
1171.771,2344.0398,
1168.860,2351.1846,
1165.950,2369.6134,
1163.039,2379.4622,
1160.129,2381.875,
1157.218,2352.5501,
1154.307,2325.3273,
1151.397,2337.8279,
1148.486,2345.1315,
1145.576,2307.2605,
1142.665,2316.1396,
1139.754,2277.0072,
1136.844,2272.0768,
1133.933,2259.2123,
1131.023,2248.4029,
1128.112,2251.803,
1125.202,2250.6625,
1122.291,2224.3737,
1119.380,2221.386,
1116.470,2273.4552,
1113.559,2273.689,
1110.649,2251.5748,
1107.738,2224.8005,
1104.828,2221.6936,
1101.917,2227.4071,
1099.006,2211.1841,
1096.096,2239.0474,
1093.185,2209.1953,
1090.275,2240.0551,
1087.364,2256.1085,
1084.453,2284.061,
1081.543,2331.7976,
1078.632,2358.2196,
1075.722,2340.1407,
1072.811,2360.8273,
1069.901,2332.0097,
1066.990,2329.875,
1064.079,2293.8078,
1061.169,2303.3855,
1058.258,2304.1242,
1055.348,2307.3285,
1052.437,2377.6274,
1049.527,2350.875,
1046.616,2350.875,
1043.705,2408.6824,
1040.795,2400.9733,
1037.884,2395.9783,
1034.974,2406.7371,
1032.063,2407.252,
1029.153,2409.9883,
1026.242,2502.5386,
1023.331,2464.211,
1020.421,2483.7591,
1017.510,2499.7969,
1014.600,2516.8317,
1011.689,2539.0108,
1008.778,2557.8708,
1005.868,2622.0681,
1002.957,2643.5769,
1000.047,2734.963,
997.136,2859.4978,
994.226,2907.8137,
991.315,2905.8379,
988.404,2939.7413,
985.494,2902.3763,
982.583,2880.1059,
979.673,2884.9231,
976.762,2914.2946,
973.852,2933.317,
970.941,2940.3954,
968.030,2953.7709,
965.120,2941.9323,
962.209,2955.573,
959.299,2969.9152,
956.388,2977.1149,
953.477,2985.0404,
950.567,2992.8293,
947.656,2991.769,
944.746,3006.2114,
941.835,3008.4946,
938.925,2966.7598,
936.014,2957.5207,
933.103,2958.9291,
930.193,2922.2952,
927.282,2856.0583,
924.372,2859.4407,
921.461,2789.1806,
918.551,2748.1898,
915.640,2721.577,
912.729,2687.4572,
909.819,2648.6509,
906.908,2631.8024,
903.998,2661.0988,
901.087,2666.9655,
898.176,2677.3277,
895.266,2695.9056,
892.355,2715.6286,
889.445,2751.7171,
886.534,2756.8842,
883.624,2859.4726,
880.713,2917.5511,
877.802,2905.7263,
874.892,2821.7295,
871.981,2614.0342,
869.071,2493.7347,
866.160,2567.3995,
863.250,2673.3035,
860.339,2735.5287,
857.428,2747.1273,
854.518,2759.7196,
851.607,2719.7802,
848.697,2566.37,
845.786,2529.975,
842.875,2593.8785,
839.965,2673.8074,
837.054,2732.9773,
834.144,2742.0936,
831.233,2735.8756,
828.323,2700.717,
825.412,2660.182,
822.501,2635.7685,
819.591,2601.8861,
816.680,2571.2275,
813.770,2521.8993,
810.859,2484.6915,
807.949,2469.0482,
805.038,2472.2511,
802.127,2516.7,
799.217,2478.3877,
796.306,2436.064,
793.396,2429.2797,
790.485,2445.1364,
787.574,2422.2726,
784.664,2485.4212,
781.753,2475.4035,
778.843,2501.1411,
775.932,2550.2946,
773.022,2571.6907,
770.111,2544.7106,
767.200,2517.7517,
764.290,2493.6944,
761.379,2473.2099,
758.469,2473.0588,
755.558,2521.8539,
752.648,2487.6405,
749.737,2497.1947,
746.826,2472.3071,
743.916,2400.0888,
741.005,2307.281,
738.095,2257.7565,
735.184,2201.1058,
732.274,2194.5483,
729.363,2239.1531,
726.452,2307.5527,
723.542,2333.4533,
720.631,2452.614,
717.721,2476.8452,
714.810,2471.3011,
711.899,2483.8354,
708.989,2513.6916,
706.078,2492.2398,
703.168,2477.7667,
700.257,2454.547,
697.347,2429.4403,
694.436,2429.097,
691.525,2474.1101,
688.615,2451.1716,
685.704,2436.6236,
682.794,2447.7898,
679.883,2463.9471,
676.973,2465.5498,
674.062,2470.3416,
671.151,2470.245,
668.241,2466.875,
665.330,2465.7027,
662.420,2440.942,
659.509,2439.6846,
656.598,2437.9803,
653.688,2446.2175,
650.777,2491.4691,
647.867,2508.9883,
644.956,2494.9196,
642.046,2432.0502,
639.135,2368.9362,
636.224,2406.9148,
633.314,2414.8542,
630.403,2426.9256,
627.493,2436.1794,
624.582,2433.1653,
621.672,2403.0695,
618.761,2398.0753,
615.850,2424.9754,
612.940,2440.0197,
610.029,2428.5576,
607.119,2450.6673,
604.208,2462.1052,
601.297,2446.4328,
598.387,2434.0408,
595.476,2450.538,
592.566,2436.3707,
589.655,2394.3537,
586.745,2390.2337,
583.834,2408.4833,
580.923,2392.5528,
578.013,2339.1908,
575.102,2345.5242,
572.192,2368.7353,
569.281,2388.2178,
566.371,2417.9575,
563.460,2430.7516,
560.549,2424.6421,
557.639,2410.3837,
554.728,2401.0228,
551.818,2403.3638,
548.907,2440.4398,
545.996,2459.9871,
543.086,2460.0822,
540.175,2488.8921,
537.265,2462.6281,
534.354,2477.9629,
531.444,2504.711,
528.533,2507.7027,
525.622,2519.3419,
522.712,2550.9992,
519.801,2603.4805,
516.891,2661.9441,
513.980,2682.0758,
511.070,2659.9272,
508.159,2676.6187,
505.248,2738.1718,
502.338,2835.7787,
499.427,2866.652,
496.517,2916.1679,
493.606,2931.3869,
490.695,2909.1455,
487.785,2983.0454,
484.874,2984.5354,
481.964,2994.2403,
479.053,2999.5116,
476.143,2931.163,
473.232,2895.9406,
470.321,2920.3682,
467.411,2947.7315,
464.500,2916.1744,
461.590,2967.4789,
458.679,3000.0347,
455.769,3013.6147,
452.858,3014.1359,
449.947,3045.4571,
447.037,3072.5049,
444.126,3124.6932,
441.216,3192.727,
438.305,3203.3941,
435.395,3176.027,
432.484,3162.9588,
429.573,3173.1526,
426.663,3204.3184,
423.752,3055.5351,
420.842,2864.2864,
417.931,2699.1458,
415.020,2643.7856,
412.110,2980.6119,
409.199,3193.3835,
406.289,3278.9876,
403.378,3257.5856,
400.468,3172.1582,
397.557,3211.7144,
394.646,3293.4598,
391.736,3345.2513,
388.825,3388.2424,
385.915,3374.7975,
383.004,3361.5835,
380.094,3386.7196,
377.183,3403.274,
374.272,3463.7814,
371.362,3514.1126,
368.451,3522.3309,
365.541,3529.8363,
362.630,3524.2276,
359.719,3509.5879,
356.809,3490.8718,
353.898,3507.3454,
350.988,3547.1366,
348.077,3575.1325,
345.167,3569.3235,
342.256,3538.6937,
339.345,3518.1835,
336.435,3532.5807,
333.524,3595.8885,
330.614,3564.592,
327.703,3586.1927,
324.793,3617.6795,
321.882,3623.0733,
318.971,3704.852,
316.061,3734.3399,
313.150,3749.0393,
310.240,3791.3399,
307.329,3807.1677,
304.418,3813.331,
301.508,3793.3949,
298.597,3716.3916,
295.687,3717.3246,
292.776,3737.9584,
289.866,3772.7733,
286.955,3824.4841,
284.044,3891.3299,
281.134,3911.4338,
278.223,3895.713,
275.313,3956.1352,
272.402,3978.1695,
269.492,3959.8436,
266.581,3903.773,
263.670,3874.3658,
260.760,3951.5459,
257.849,4032.4413,
254.939,4039.7801,
252.028,4071.0003,
249.117,4065.0587,
246.207,4056.5655,
243.296,4105.612,
240.386,4098.4682,
237.475,4096.1011,
234.565,4098.6187,
231.654,4071.5945,
228.743,4078.5331,
225.833,4075.984,
222.922,4047.6859,
220.012,4022.1865,
217.101,3994.2464,
214.191,3961.8542,
211.280,3921.8437,
208.369,3923.5847,
205.459,3916.293,
202.548,3898.2399,
199.638,3877.1961,
196.727,3871.1464,
193.816,3885.2272,
190.906,3920.6211,
187.995,3913.3808,
185.085,3927.425,
182.174,3945.6791,
179.264,3944.9564,
176.353,3979.4771,
173.442,3995.2494,
170.532,3984.6746,
167.621,3948.6259,
164.711,3917.3267,
161.800,3835.205,
158.890,3651.6745,
155.979,3515.5186,
153.068,3341.0399,
150.158,3097.808,
147.247,2674.2162,
144.337,2263.6935,
141.426,1847.6857,
138.516,1416.8341,
135.605,984.98573,
132.694,657.99679,
129.784,425.55853,
126.873,285.39308,
123.963,184.03402,
121.052,112.72751,
118.141,72.0351,
115.231,61.927015,
112.320,51.944097,
109.410,42.102382,
106.499,32.844364,
103.589,32.555763,
100.678,33.060135,
97.767,30.927322,
94.857,23.94511,
91.946,24.906109,
89.036,29.520225,
86.125,21.009762,
83.215,19.936841,
80.304,19.677837,
77.393,16.136987,
74.483,17.18527,
71.572,16.787944,
68.662,14.875,
65.751,14.875,
62.840,17.28351,
59.930,18.751283,
57.019,14.520791,
54.109,9.0977132,
51.198,7.0814371,
48.288,9.875,
45.377,9.875,
42.466,5.7528066,
39.556,1.6017787,
36.645,12.134632,
33.735,11.759509,
30.824,8.654113,
27.914,7.9529378,
25.003,14.724012,
22.092,16.291764,
19.182,10.531757,
16.271,0.039405073,
13.361,18.212273,
10.450,52.721072,
7.539,75.067164,
4.629,57.640376,
1.718,61.746865,
-1.192,146.10135,
-4.103,71.801272,
-7.013,10.794553,
-9.924,-3.125,
