,PL9C47~1,
Raman shift [1/cm],Intensity,
3014.167,1.125,
3011.256,-2.3249893,
3008.346,218.28707,
3005.435,267.125,
3002.525,273.46504,
2999.614,284.97696,
2996.704,297.53222,
2993.793,313.13422,
2990.882,312.33871,
2987.972,309.24103,
2985.061,336.5585,
2982.151,336.84096,
2979.240,355.17538,
2976.329,368.90367,
2973.419,373.3096,
2970.508,369.80836,
2967.598,394.74267,
2964.687,392.85598,
2961.777,413.62087,
2958.866,417.12352,
2955.955,425.19579,
2953.045,448.55675,
2950.134,460.16878,
2947.224,478.86878,
2944.313,477.31588,
2941.403,486.125,
2938.492,503.19007,
2935.581,517.63055,
2932.671,513.96621,
2929.760,519.59038,
2926.850,524.81147,
2923.939,538.92406,
2921.028,545.20738,
2918.118,554.58974,
2915.207,588.41608,
2912.297,569.1927,
2909.386,568.76003,
2906.476,566.19525,
2903.565,585.39982,
2900.654,575.125,
2897.744,571.07471,
2894.833,560.52718,
2891.923,560.8558,
2889.012,566.37356,
2886.102,561.46015,
2883.191,556.12406,
2880.280,537.78528,
2877.370,535.17727,
2874.459,515.35153,
2871.549,564.54642,
2868.638,591.89819,
2865.727,595.125,
2862.817,590.02474,
2859.906,608.75748,
2856.996,604.09783,
2854.085,597.80145,
2851.175,610.33886,
2848.264,606.1985,
2845.353,605.9309,
2842.443,591.93405,
2839.532,582.57277,
2836.622,577.33854,
2833.711,585.70271,
2830.801,561.94558,
2827.890,564.44147,
2824.979,585.40899,
2822.069,594.89756,
2819.158,579.3056,
2816.248,586.125,
2813.337,614.23841,
2810.427,604.1319,
2807.516,572.76547,
2804.605,599.89904,
2801.695,602.48028,
2798.784,586.82523,
2795.874,613.56565,
2792.963,595.69628,
2790.052,579.12779,
2787.142,595.651,
2784.231,579.86566,
2781.321,600.61059,
2778.410,568.10469,
2775.500,583.54948,
2772.589,590.24044,
2769.678,599.01575,
2766.768,600.82014,
2763.857,597.38897,
2760.947,595.57141,
2758.036,605.76206,
2755.126,611.17414,
2752.215,611.91142,
2749.304,613.5081,
2746.394,619.87698,
2743.483,626.27502,
2740.573,619.57631,
2737.662,622.90163,
2734.751,631.61515,
2731.841,623.07005,
2728.930,635.61245,
2726.020,633.14583,
2723.109,623.41409,
2720.199,634.34062,
2717.288,636.75639,
2714.377,660.76632,
2711.467,665.94478,
2708.556,662.16753,
2705.646,677.49123,
2702.735,666.46005,
2699.825,671.05956,
2696.914,657.12452,
2694.003,681.25345,
2691.093,682.125,
2688.182,679.83389,
2685.272,662.24022,
2682.361,680.64247,
2679.450,674.26086,
2676.540,677.94208,
2673.629,670.45235,
2670.719,671.84034,
2667.808,679.68728,
2664.898,675.50146,
2661.987,693.05849,
2659.076,696.50647,
2656.166,698.77003,
2653.255,697.125,
2650.345,704.96529,
2647.434,703.32534,
2644.524,717.28328,
2641.613,716.38207,
2638.702,730.8725,
2635.792,719.56269,
2632.881,724.47608,
2629.971,725.63505,
2627.060,714.78813,
2624.149,733.01876,
2621.239,725.63389,
2618.328,735.61635,
2615.418,723.79318,
2612.507,733.05382,
2609.597,745.48229,
2606.686,737.90412,
2603.775,745.92659,
2600.865,777.88276,
2597.954,753.07709,
2595.044,749.15157,
2592.133,760.85766,
2589.223,778.36606,
2586.312,779.02454,
2583.401,765.40969,
2580.491,794.90379,
2577.580,787.11675,
2574.670,776.86699,
2571.759,776.88783,
2568.848,764.25195,
2565.938,779.41055,
2563.027,802.95453,
2560.117,804.85397,
2557.206,793.27629,
2554.296,800.86413,
2551.385,802.20717,
2548.474,827.64359,
2545.564,812.66314,
2542.653,812.35654,
2539.743,821.52026,
2536.832,841.45211,
2533.922,840.52577,
2531.011,813.02416,
2528.100,834.86018,
2525.190,838.24016,
2522.279,845.64088,
2519.369,843.14465,
2516.458,818.12854,
2513.548,860.15174,
2510.637,856.57166,
2507.726,849.06181,
2504.816,846.62443,
2501.905,835.00915,
2498.995,849.70697,
2496.084,845.8846,
2493.173,855.99354,
2490.263,863.11371,
2487.352,868.45887,
2484.442,877.83377,
2481.531,891.07704,
2478.621,898.35722,
2475.710,891.102,
2472.799,886.39856,
2469.889,879.18594,
2466.978,895.88771,
2464.068,889.71755,
2461.157,898.55239,
2458.247,903.05131,
2455.336,888.08195,
2452.425,902.60615,
2449.515,901.59694,
2446.604,917.76551,
2443.694,921.14801,
2440.783,923.41216,
2437.872,929.81783,
2434.962,950.48905,
2432.051,951.27304,
2429.141,938.7192,
2426.230,928.64653,
2423.320,952.18226,
2420.409,955.44535,
2417.498,984.08288,
2414.588,987.5851,
2411.677,977.97753,
2408.767,958.00196,
2405.856,983.08932,
2402.946,977.86316,
2400.035,953.95127,
2397.124,980.68649,
2394.214,985.7738,
2391.303,984.98137,
2388.393,1005.5204,
2385.482,1000.6978,
2382.571,1008.2639,
2379.661,1018.7529,
2376.750,1039.5411,
2373.840,1029.2407,
2370.929,1008.2766,
2368.019,1050.9686,
2365.108,1035.4522,
2362.197,1031.6675,
2359.287,1043.3183,
2356.376,1054.1074,
2353.466,1059.7003,
2350.555,1055.0646,
2347.645,1048.7819,
2344.734,1060.8531,
2341.823,1069.0089,
2338.913,1069.2175,
2336.002,1080.0482,
2333.092,1102.6542,
2330.181,1096.46,
2327.270,1091.6751,
2324.360,1086.099,
2321.449,1109.4005,
2318.539,1105.4247,
2315.628,1141.4432,
2312.718,1149.3585,
2309.807,1144.8954,
2306.896,1130.1407,
2303.986,1134.8198,
2301.075,1133.742,
2298.165,1132.5288,
2295.254,1137.9957,
2292.344,1132.0213,
2289.433,1131.4995,
2286.522,1142.6384,
2283.612,1174.8674,
2280.701,1155.3717,
2277.791,1190.3636,
2274.880,1168.2731,
2271.969,1165.7299,
2269.059,1195.2967,
2266.148,1192.4522,
2263.238,1222.3103,
2260.327,1206.2286,
2257.417,1220.6506,
2254.506,1238.9484,
2251.595,1228.7325,
2248.685,1220.4845,
2245.774,1206.499,
2242.864,1240.8008,
2239.953,1234.0768,
2237.043,1243.8796,
2234.132,1256.9095,
2231.221,1248.2568,
2228.311,1293.4871,
2225.400,1274.0969,
2222.490,1279.6235,
2219.579,1312.2278,
2216.669,1313.1584,
2213.758,1304.8204,
2210.847,1333.9486,
2207.937,1343.0436,
2205.026,1409.1256,
2202.116,1403.3511,
2199.205,1438.3121,
2196.294,1454.431,
2193.384,1470.7825,
2190.473,1491.4266,
2187.563,1491.5794,
2184.652,1585.8781,
2181.742,1614.9463,
2178.831,1697.8683,
2175.920,1746.7771,
2173.010,1820.3047,
2170.099,1940.1806,
2167.189,2041.7564,
2164.278,2142.4778,
2161.368,2260.4058,
2158.457,2410.2657,
2155.546,2514.6837,
2152.636,2656.3109,
2149.725,2708.4539,
2146.815,2770.0228,
2143.904,2848.5228,
2140.993,2847.781,
2138.083,2854.736,
2135.172,2839.6292,
2132.262,2829.7368,
2129.351,2768.9971,
2126.441,2673.3772,
2123.530,2611.7108,
2120.619,2470.7495,
2117.709,2326.726,
2114.798,2180.8247,
2111.888,2094.6892,
2108.977,1989.4627,
2106.067,1846.2272,
2103.156,1813.125,
2100.245,1725.1112,
2097.335,1698.9103,
2094.424,1648.7377,
2091.514,1593.203,
2088.603,1587.9868,
2085.692,1578.9911,
2082.782,1558.2657,
2079.871,1570.9476,
2076.961,1544.3206,
2074.050,1531.0098,
2071.140,1508.8032,
2068.229,1502.4987,
2065.318,1506.5833,
2062.408,1510.473,
2059.497,1491.9345,
2056.587,1486.6135,
2053.676,1471.6924,
2050.766,1478.3552,
2047.855,1440.3528,
2044.944,1451.8493,
2042.034,1472.807,
2039.123,1467.9061,
2036.213,1467.1849,
2033.302,1455.3858,
2030.391,1471.6501,
2027.481,1478.3811,
2024.570,1494.1389,
2021.660,1467.958,
2018.749,1481.5809,
2015.839,1492.7215,
2012.928,1490.3549,
2010.017,1482.0349,
2007.107,1469.4054,
2004.196,1492.9703,
2001.286,1493.2275,
1998.375,1475.7746,
1995.465,1470.5518,
1992.554,1457.8545,
1989.643,1464.8139,
1986.733,1472.1618,
1983.822,1456.3946,
1980.912,1456.6095,
1978.001,1437.3959,
1975.090,1461.4853,
1972.180,1467.9535,
1969.269,1462.0877,
1966.359,1464.4763,
1963.448,1465.586,
1960.538,1454.7639,
1957.627,1444.9919,
1954.716,1477.1483,
1951.806,1425.3173,
1948.895,1452.3334,
1945.985,1464.3766,
1943.074,1406.6968,
1940.164,1428.6154,
1937.253,1448.1899,
1934.342,1468.125,
1931.432,1426.5603,
1928.521,1416.2563,
1925.611,1438.6573,
1922.700,1410.6761,
1919.790,1452.9395,
1916.879,1460.1947,
1913.968,1419.1754,
1911.058,1427.5875,
1908.147,1437.7119,
1905.237,1449.8087,
1902.326,1414.6731,
1899.415,1431.9872,
1896.505,1410.2576,
1893.594,1427.8446,
1890.684,1438.478,
1887.773,1441.6334,
1884.863,1451.5897,
1881.952,1433.2002,
1879.041,1423.3685,
1876.131,1437.7838,
1873.220,1409.7443,
1870.310,1419.0487,
1867.399,1427.013,
1864.489,1434.1125,
1861.578,1410.993,
1858.667,1436.3136,
1855.757,1474.5379,
1852.846,1455.0994,
1849.936,1450.101,
1847.025,1469.597,
1844.114,1463.125,
1841.204,1478.0096,
1838.293,1493.13,
1835.383,1507.613,
1832.472,1506.1128,
1829.562,1500.8742,
1826.651,1474.0388,
1823.740,1507.4431,
1820.830,1506.6052,
1817.919,1524.7419,
1815.009,1518.994,
1812.098,1525.2037,
1809.188,1534.5668,
1806.277,1522.4127,
1803.366,1571.0769,
1800.456,1510.9935,
1797.545,1546.6284,
1794.635,1576.8679,
1791.724,1560.3384,
1788.813,1611.9119,
1785.903,1587.3051,
1782.992,1612.7628,
1780.082,1559.8159,
1777.171,1602.7877,
1774.261,1601.9953,
1771.350,1622.1675,
1768.439,1615.6994,
1765.529,1611.488,
1762.618,1639.9776,
1759.708,1640.8964,
1756.797,1617.2689,
1753.887,1642.6133,
1750.976,1617.7971,
1748.065,1631.0635,
1745.155,1659.9572,
1742.244,1625.0454,
1739.334,1675.2803,
1736.423,1693.7007,
1733.512,1701.9502,
1730.602,1716.8492,
1727.691,1700.1658,
1724.781,1731.8807,
1721.870,1725.2249,
1718.960,1745.792,
1716.049,1745.2522,
1713.138,1764.6449,
1710.228,1798.5854,
1707.317,1758.0119,
1704.407,1792.5529,
1701.496,1791.6557,
1698.586,1802.2128,
1695.675,1792.8322,
1692.764,1852.7152,
1689.854,1900.1329,
1686.943,1902.125,
1684.033,1932.3551,
1681.122,1897.7367,
1678.211,1966.4588,
1675.301,1996.0356,
1672.390,2013.2237,
1669.480,2046.7106,
1666.569,2120.0264,
1663.659,2190.6476,
1660.748,2221.373,
1657.837,2185.137,
1654.927,2276.8822,
1652.016,2350.0035,
1649.106,2346.4959,
1646.195,2402.18,
1643.285,2445.9681,
1640.374,2483.0658,
1637.463,2528.422,
1634.553,2600.6915,
1631.642,2705.9828,
1628.732,2785.0375,
1625.821,2938.18,
1622.911,3021.6516,
1620.000,3177.147,
1617.089,3412.3887,
1614.179,3554.1487,
1611.268,3742.024,
1608.358,3887.3357,
1605.447,4030.8404,
1602.536,4132.3137,
1599.626,4176.8422,
1596.715,4233.6735,
1593.805,4189.9367,
1590.894,4104.8647,
1587.984,4082.8658,
1585.073,4024.1203,
1582.162,4084.2554,
1579.252,4021.2047,
1576.341,3939.2389,
1573.431,3941.9212,
1570.520,3909.6705,
1567.610,3935.3805,
1564.699,3913.3236,
1561.788,3862.8014,
1558.878,3747.4416,
1555.967,3681.3051,
1553.057,3621.3669,
1550.146,3566.6996,
1547.235,3552.4863,
1544.325,3506.6203,
1541.414,3452.3031,
1538.504,3387.2862,
1535.593,3327.9521,
1532.683,3327.0693,
1529.772,3311.8005,
1526.861,3246.5713,
1523.951,3213.0885,
1521.040,3192.2936,
1518.130,3120.0384,
1515.219,3075.4462,
1512.309,3029.179,
1509.398,3016.066,
1506.487,3029.0544,
1503.577,3003.9207,
1500.666,2984.9691,
1497.756,2937.9557,
1494.845,2958.9243,
1491.934,2929.9423,
1489.024,2874.1177,
1486.113,2869.3434,
1483.203,2807.8414,
1480.292,2790.7914,
1477.382,2765.6858,
1474.471,2701.8042,
1471.560,2685.5763,
1468.650,2662.2104,
1465.739,2647.9225,
1462.829,2624.6396,
1459.918,2621.1748,
1457.008,2644.8483,
1454.097,2621.6902,
1451.186,2581.036,
1448.276,2602.0976,
1445.365,2640.1266,
1442.455,2664.3181,
1439.544,2657.0368,
1436.633,2593.3881,
1433.723,2633.0124,
1430.812,2596.7367,
1427.902,2504.2603,
1424.991,2509.9469,
1422.081,2497.2803,
1419.170,2503.9015,
1416.259,2497.0244,
1413.349,2451.321,
1410.438,2439.9241,
1407.528,2477.8183,
1404.617,2480.5112,
1401.707,2471.8346,
1398.796,2463.3243,
1395.885,2483.6095,
1392.975,2526.8748,
1390.064,2504.1152,
1387.154,2452.2361,
1384.243,2392.3649,
1381.332,2354.5717,
1378.422,2359.7377,
1375.511,2546.1571,
1372.601,2686.439,
1369.690,2787.2761,
1366.780,2855.1914,
1363.869,2877.8427,
1360.958,2884.4261,
1358.048,2900.9578,
1355.137,3020.993,
1352.227,3098.1641,
1349.316,3121.1174,
1346.406,3220.1575,
1343.495,3285.8097,
1340.584,3343.732,
1337.674,3357.021,
1334.763,3408.5597,
1331.853,3472.5386,
1328.942,3562.2925,
1326.032,3557.6282,
1323.121,3621.5528,
1320.210,3678.421,
1317.300,3726.9975,
1314.389,3765.5698,
1311.479,3778.5037,
1308.568,3805.2971,
1305.657,3888.0636,
1302.747,3967.5841,
1299.836,4002.5158,
1296.926,4101.6715,
1294.015,4177.9754,
1291.105,4258.6127,
1288.194,4383.3453,
1285.283,4492.3173,
1282.373,4585.5076,
1279.462,4639.7913,
1276.552,4690.4322,
1273.641,4723.9125,
1270.731,4724.7683,
1267.820,4742.6607,
1264.909,4692.7072,
1261.999,4675.7908,
1259.088,4694.0332,
1256.178,4662.5797,
1253.267,4567.3631,
1250.356,4508.9713,
1247.446,4404.9425,
1244.535,4309.4197,
1241.625,4235.7547,
1238.714,4144.9888,
1235.804,4064.1105,
1232.893,4014.8846,
1229.982,3967.4147,
1227.072,3857.8719,
1224.161,3790.4492,
1221.251,3735.9435,
1218.340,3672.5391,
1215.430,3614.7445,
1212.519,3541.1325,
1209.608,3495.5281,
1206.698,3518.6357,
1203.787,3525.7331,
1200.877,3556.3479,
1197.966,3559.9445,
1195.055,3700.911,
1192.145,3772.4596,
1189.234,3871.1704,
1186.324,3945.5824,
1183.413,4020.0286,
1180.503,4061.5406,
1177.592,4023.0746,
1174.681,4027.0017,
1171.771,3961.7554,
1168.860,3859.0501,
1165.950,3791.0722,
1163.039,3724.7448,
1160.129,3705.0743,
1157.218,3701.3562,
1154.307,3681.026,
1151.397,3635.4886,
1148.486,3576.8224,
1145.576,3591.3926,
1142.665,3574.5223,
1139.754,3550.3434,
1136.844,3483.4983,
1133.933,3444.8084,
1131.023,3455.4809,
1128.112,3466.7694,
1125.202,3436.7724,
1122.291,3411.528,
1119.380,3483.7526,
1116.470,3445.8038,
1113.559,3433.3925,
1110.649,3452.0801,
1107.738,3462.5892,
1104.828,3469.6148,
1101.917,3485.1548,
1099.006,3502.2073,
1096.096,3523.8136,
1093.185,3486.0595,
1090.275,3500.1197,
1087.364,3499.3221,
1084.453,3510.6241,
1081.543,3508.8548,
1078.632,3484.35,
1075.722,3473.7758,
1072.811,3511.7455,
1069.901,3520.4781,
1066.990,3536.4833,
1064.079,3557.1378,
1061.169,3589.4263,
1058.258,3631.1462,
1055.348,3674.3531,
1052.437,3699.2375,
1049.527,3665.2663,
1046.616,3694.8065,
1043.705,3731.2679,
1040.795,3754.5336,
1037.884,3762.125,
1034.974,3788.9394,
1032.063,3820.5332,
1029.153,3778.2675,
1026.242,3787.782,
1023.331,3818.9564,
1020.421,3820.2453,
1017.510,3851.1813,
1014.600,3878.8167,
1011.689,3904.7858,
1008.778,3971.8954,
1005.868,4018.3142,
1002.957,4150.8088,
1000.047,4302.1651,
997.136,4416.3182,
994.226,4454.9866,
991.315,4425.7265,
988.404,4363.8847,
985.494,4284.0701,
982.583,4236.9595,
979.673,4217.687,
976.762,4172.0279,
973.852,4128.0967,
970.941,4130.7608,
968.030,4173.1075,
965.120,4122.1465,
962.209,4127.2617,
959.299,4166.3705,
956.388,4198.9239,
953.477,4218.2904,
950.567,4224.2493,
947.656,4212.7827,
944.746,4187.296,
941.835,4224.996,
938.925,4243.3377,
936.014,4279.992,
933.103,4300.5322,
930.193,4271.3369,
927.282,4228.0921,
924.372,4153.6787,
921.461,4201.5642,
918.551,4108.2621,
915.640,4037.1735,
912.729,4038.9755,
909.819,4003.125,
906.908,4003.125,
903.998,3984.8316,
901.087,4029.7725,
898.176,4077.69,
895.266,4104.8382,
892.355,4125.9203,
889.445,4172.9193,
886.534,4173.125,
883.624,4220.8961,
880.713,4233.4075,
877.802,4232.1572,
874.892,4246.9188,
871.981,4235.6454,
869.071,4172.9894,
866.160,4180.7539,
863.250,4218.4804,
860.339,4224.7205,
857.428,4188.6989,
854.518,4189.6566,
851.607,4138.9004,
848.697,4147.3204,
845.786,4154.0871,
842.875,4172.0006,
839.965,4211.9747,
837.054,4233.8273,
834.144,4207.3072,
831.233,4215.4574,
828.323,4224.1033,
825.412,4205.8413,
822.501,4165.657,
819.591,4179.7058,
816.680,4105.6056,
813.770,4060.1854,
810.859,4028.3316,
807.949,3999.4786,
805.038,3976.6139,
802.127,3997.1921,
799.217,3988.6895,
796.306,3948.2328,
793.396,3907.2775,
790.485,3888.1779,
787.574,3892.7478,
784.664,3909.15,
781.753,3900.7183,
778.843,3938.2522,
775.932,3957.1995,
773.022,3910.41,
770.111,3983.1744,
767.200,3991.9316,
764.290,3978.6781,
761.379,3952.3703,
758.469,3931.4733,
755.558,3942.3745,
752.648,3883.723,
749.737,3876.0417,
746.826,3855.2802,
743.916,3778.8645,
741.005,3625.8319,
738.095,3419.6152,
735.184,3209.2095,
732.274,3147.2206,
729.363,3286.9013,
726.452,3581.9085,
723.542,3807.7293,
720.631,3877.4654,
717.721,3877.9396,
714.810,3881.8749,
711.899,3900.8477,
708.989,3865.343,
706.078,3894.7732,
703.168,3857.1907,
700.257,3826.8873,
697.347,3819.6908,
694.436,3800.7142,
691.525,3822.4169,
688.615,3800.7107,
685.704,3810.5949,
682.794,3836.8698,
679.883,3814.9632,
676.973,3855.8331,
674.062,3875.6105,
671.151,3856.2635,
668.241,3827.6517,
665.330,3843.0704,
662.420,3863.0387,
659.509,3851.8867,
656.598,3851.3472,
653.688,3855.2237,
650.777,3833.7451,
647.867,3881.5248,
644.956,3882.8377,
642.046,3887.9046,
639.135,3910.0421,
636.224,3936.0812,
633.314,3927.3479,
630.403,3907.9799,
627.493,3922.2421,
624.582,3969.2456,
621.672,3992.2134,
618.761,3979.4461,
615.850,4020.306,
612.940,4067.7126,
610.029,4085.363,
607.119,4068.7808,
604.208,4010.3239,
601.297,4014.045,
598.387,4060.0427,
595.476,4098.3601,
592.566,4005.486,
589.655,4022.1674,
586.745,4024.9361,
583.834,3992.3891,
580.923,3947.0065,
578.013,3927.3882,
575.102,3925.5665,
572.192,3952.4203,
569.281,4006.67,
566.371,4065.3668,
563.460,4073.9469,
560.549,4075.125,
557.639,4078.0792,
554.728,4092.2839,
551.818,4189.8234,
548.907,4176.9979,
545.996,4145.7941,
543.086,4135.6546,
540.175,4156.678,
537.265,4181.3019,
534.354,4212.7011,
531.444,4239.3049,
528.533,4252.3875,
525.622,4284.2013,
522.712,4325.7099,
519.801,4366.4552,
516.891,4402.8547,
513.980,4436.1494,
511.070,4480.6815,
508.159,4538.7181,
505.248,4609.1627,
502.338,4687.3509,
499.427,4695.0692,
496.517,4757.6502,
493.606,4815.5657,
490.695,4833.5247,
487.785,4800.4237,
484.874,4837.1296,
481.964,4870.0917,
479.053,4867.5778,
476.143,4798.4611,
473.232,4842.325,
470.321,4835.3365,
467.411,4810.4043,
464.500,4815.8063,
461.590,4763.7359,
458.679,4796.4503,
455.769,4816.5362,
452.858,4781.2152,
449.947,4830.1068,
447.037,4815.8546,
444.126,4789.4038,
441.216,4775.8874,
438.305,4803.3169,
435.395,4806.4694,
432.484,4783.2036,
429.573,4760.3551,
426.663,4799.8824,
423.752,4757.7928,
420.842,4691.0863,
417.931,4660.3348,
415.020,4749.0627,
412.110,4823.0915,
409.199,4867.7069,
406.289,4890.8147,
403.378,4902.0482,
400.468,4879.3683,
397.557,4846.4175,
394.646,4811.0818,
391.736,4779.5556,
388.825,4730.5305,
385.915,4713.464,
383.004,4737.6805,
380.094,4810.3056,
377.183,4931.4543,
374.272,5010.7186,
371.362,5068.2563,
368.451,5113.6691,
365.541,5106.1637,
362.630,5161.4803,
359.719,5205.8694,
356.809,5201.5685,
353.898,5258.4772,
350.988,5239.9483,
348.077,5221.5797,
345.167,5249.1306,
342.256,5288.7252,
339.345,5307.5651,
336.435,5351.0448,
333.524,5446.6787,
330.614,5432.5208,
327.703,5437.3663,
324.793,5456.6944,
321.882,5487.3017,
318.971,5560.1591,
316.061,5556.8028,
313.150,5557.6106,
310.240,5655.5699,
307.329,5637.6859,
304.418,5656.9381,
301.508,5676.3403,
298.597,5624.5112,
295.687,5587.6175,
292.776,5661.2921,
289.866,5832.3651,
286.955,6051.7666,
284.044,6245.0448,
281.134,6435.3998,
278.223,6623.4835,
275.313,6790.0128,
272.402,6988.3588,
269.492,7130.8395,
266.581,7189.9581,
263.670,7271.5631,
260.760,7425.7208,
257.849,7578.7432,
254.939,7674.8818,
252.028,7783.9779,
249.117,7826.0387,
246.207,7836.7849,
243.296,7874.1188,
240.386,7893.7968,
237.475,7859.8644,
234.565,7770.4986,
231.654,7633.1865,
228.743,7545.4375,
225.833,7484.7459,
222.922,7445.9404,
220.012,7463.4257,
217.101,7384.7219,
214.191,7312.8613,
211.280,7365.2387,
208.369,7313.2815,
205.459,7255.782,
202.548,7211.3785,
199.638,7218.635,
196.727,7224.1585,
193.816,7240.069,
190.906,7269.4393,
187.995,7249.8907,
185.085,7312.1619,
182.174,7366.9902,
179.264,7285.3176,
176.353,7375.4457,
173.442,7383.6299,
170.532,7301.4691,
167.621,7313.0047,
164.711,7178.9518,
161.800,6951.6581,
158.890,6648.6528,
155.979,6243.1545,
153.068,5746.6973,
150.158,5167.8487,
147.247,4513.7942,
144.337,3690.5933,
141.426,2869.1973,
138.516,2128.6486,
135.605,1514.8342,
132.694,1028.6361,
129.784,662.80542,
126.873,435.39413,
123.963,298.07378,
121.052,208.44489,
118.141,156.33004,
115.231,122.72819,
112.320,100.22865,
109.410,84.579763,
106.499,66.063727,
103.589,59.323728,
100.678,54.408783,
97.767,47.299407,
94.857,42.274077,
91.946,39.318778,
89.036,38.802387,
86.125,43.057619,
83.215,39.346717,
80.304,36.322163,
77.393,39.863013,
74.483,24.401761,
71.572,20.473225,
68.662,27.778663,
65.751,24.246407,
62.840,21.198192,
59.930,18.001283,
57.019,13.770791,
54.109,13.125,
51.198,14.934656,
48.288,19.187287,
45.377,26.924446,
42.466,26.827245,
39.556,22.009881,
36.645,21.307691,
33.735,19.567255,
30.824,19.671209,
27.914,24.579436,
25.003,22.011813,
22.092,18.833382,
19.182,16.76572,
16.271,36.351444,
13.361,151.17533,
10.450,352.93153,
7.539,671.36334,
4.629,838.28597,
1.718,803.37432,
-1.192,432.49343,
-4.103,188.24009,
-7.013,43.18768,
-9.924,2.125,
