,PL12AC~1,
Wavenumbers [1/cm],Intensity,
3014.167,4,
3011.256,-2.3499678,
3008.346,362.80538,
3005.435,429.11661,
3002.525,442.13255,
2999.614,479.53374,
2996.704,468.81443,
2993.793,482.61002,
2990.882,514.33577,
2987.972,514.98487,
2985.061,532.83747,
2982.151,548.43192,
2979.240,569.74809,
2976.329,582.2541,
2973.419,596.33864,
2970.508,623.53315,
2967.598,623.05141,
2964.687,644,
2961.777,647.62397,
2958.866,676.00297,
2955.955,683.38273,
2953.045,704.40271,
2950.134,717.93585,
2947.224,717.62272,
2944.313,767.60684,
2941.403,795.76277,
2938.492,775.98915,
2935.581,781.5644,
2932.671,807.96139,
2929.760,825.15771,
2926.850,813.14963,
2923.939,821.32245,
2921.028,829.18252,
2918.118,853.7204,
2915.207,848.17078,
2912.297,850.96192,
2909.386,862.19708,
2906.476,841.65171,
2903.565,856.67703,
2900.654,859.94136,
2897.744,872.25824,
2894.833,818.12363,
2891.923,842.65071,
2889.012,816.95376,
2886.102,812.67029,
2883.191,795.00472,
2880.280,682.13393,
2877.370,495.76198,
2874.459,381.42205,
2871.549,591.14597,
2868.638,824.56069,
2865.727,824.53073,
2862.817,857.94383,
2859.906,864.93732,
2856.996,888.46151,
2854.085,886.43696,
2851.175,883.68977,
2848.264,896.69633,
2845.353,913,
2842.443,917.39234,
2839.532,923.22389,
2836.622,913.48307,
2833.711,901.31868,
2830.801,916.88456,
2827.890,908.10314,
2824.979,928.67982,
2822.069,925.50037,
2819.158,958.35848,
2816.248,934.27605,
2813.337,951.92804,
2810.427,971.77961,
2807.516,979.52516,
2804.605,976.69953,
2801.695,978.59207,
2798.784,972.48254,
2795.874,956.70447,
2792.963,970.50011,
2790.052,952.0045,
2787.142,949.03958,
2784.231,958.58075,
2781.321,942.6857,
2778.410,940.48984,
2775.500,966.97585,
2772.589,961.65367,
2769.678,971.53236,
2766.768,969.76697,
2763.857,981.84586,
2760.947,1005.9559,
2758.036,983.7515,
2755.126,981.61325,
2752.215,1012.9547,
2749.304,981.64034,
2746.394,989.69353,
2743.483,1009.7499,
2740.573,998.8207,
2737.662,1000.4571,
2734.751,1010.1165,
2731.841,1005.6483,
2728.930,1019.1823,
2726.020,1023.2402,
2723.109,1050.2987,
2720.199,1041.4312,
2717.288,1051.1569,
2714.377,1061.4833,
2711.467,1059.7209,
2708.556,1071.1811,
2705.646,1101.1832,
2702.735,1058.6907,
2699.825,1097.651,
2696.914,1091.3327,
2694.003,1093.8163,
2691.093,1081.2322,
2688.182,1073.3081,
2685.272,1092.0085,
2682.361,1079.2467,
2679.450,1093.5844,
2676.540,1104.7561,
2673.629,1086.0314,
2670.719,1088.0582,
2667.808,1127.4437,
2664.898,1130.1819,
2661.987,1114.7998,
2659.076,1125.3297,
2656.166,1140.1775,
2653.255,1148.2194,
2650.345,1147.3757,
2647.434,1179.1137,
2644.524,1163.247,
2641.613,1166.5713,
2638.702,1159.0947,
2635.792,1170.7188,
2632.881,1178.6606,
2629.971,1163.1878,
2627.060,1169.9981,
2624.149,1173.0563,
2621.239,1186.0534,
2618.328,1188.9576,
2615.418,1189.9909,
2612.507,1198.9644,
2609.597,1189.2854,
2606.686,1219.8835,
2603.775,1217.0833,
2600.865,1222.6484,
2597.954,1258.1375,
2595.044,1255.5368,
2592.133,1242.8085,
2589.223,1240.9642,
2586.312,1287.5076,
2583.401,1269.0183,
2580.491,1286.4519,
2577.580,1264.0017,
2574.670,1263.3396,
2571.759,1254.5959,
2568.848,1254.2928,
2565.938,1270.5714,
2563.027,1282.5863,
2560.117,1274.299,
2557.206,1307.2989,
2554.296,1294.4325,
2551.385,1301.8019,
2548.474,1306.1855,
2545.564,1344.9554,
2542.653,1330.6208,
2539.743,1322.1725,
2536.832,1334.4299,
2533.922,1351.8108,
2531.011,1342.4748,
2528.100,1340.4704,
2525.190,1338.534,
2522.279,1344.531,
2519.369,1341.6411,
2516.458,1345.3251,
2513.548,1354.6088,
2510.637,1348.906,
2507.726,1372.0669,
2504.816,1372.5017,
2501.905,1365.1451,
2498.995,1383.7014,
2496.084,1390.0384,
2493.173,1403.947,
2490.263,1402.9774,
2487.352,1408.2504,
2484.442,1420.2655,
2481.531,1414.4098,
2478.621,1431.8532,
2475.710,1439.954,
2472.799,1433.5067,
2469.889,1446.543,
2466.978,1441.0724,
2464.068,1431.0846,
2461.157,1439.7325,
2458.247,1451.2648,
2455.336,1428.6418,
2452.425,1484.4293,
2449.515,1484.8212,
2446.604,1503.9424,
2443.694,1490.3717,
2440.783,1526.5327,
2437.872,1495.5315,
2434.962,1525.7558,
2432.051,1517.4819,
2429.141,1526.9002,
2426.230,1536.0221,
2423.320,1526.1571,
2420.409,1526.6218,
2417.498,1548.1377,
2414.588,1571.1749,
2411.677,1552.3944,
2408.767,1572.8652,
2405.856,1578.0787,
2402.946,1572.9053,
2400.035,1618.9625,
2397.124,1590.5401,
2394.214,1581.2708,
2391.303,1592.9668,
2388.393,1575.1116,
2385.482,1565.0881,
2382.571,1545.9744,
2379.661,1569.3951,
2376.750,1607.628,
2373.840,1629.9812,
2370.929,1628.0541,
2368.019,1616.4329,
2365.108,1647.2539,
2362.197,1672.5699,
2359.287,1665.8234,
2356.376,1687.956,
2353.466,1679.637,
2350.555,1673.1601,
2347.645,1678,
2344.734,1690.6083,
2341.823,1700.8839,
2338.913,1702.6179,
2336.002,1723.6292,
2333.092,1727.5057,
2330.181,1729.4911,
2327.270,1735.615,
2324.360,1759.3608,
2321.449,1784.8776,
2318.539,1781.7645,
2315.628,1760.5384,
2312.718,1783.3811,
2309.807,1776.6831,
2306.896,1790.2833,
2303.986,1807.3507,
2301.075,1796.9575,
2298.165,1803.7599,
2295.254,1782.5601,
2292.344,1825.3111,
2289.433,1837.6255,
2286.522,1827,
2283.612,1851.8419,
2280.701,1863,
2277.791,1877.2787,
2274.880,1872.1978,
2271.969,1909.2634,
2269.059,1898.6758,
2266.148,1898.5409,
2263.238,1918.6911,
2260.327,1913.5518,
2257.417,1922.8978,
2254.506,1929,
2251.595,1934.1382,
2248.685,1951.9942,
2245.774,1966.9119,
2242.864,1957,
2239.953,1957.2276,
2237.043,1953.7139,
2234.132,1941.4935,
2231.221,1948.3696,
2228.311,1988.6636,
2225.400,2015.4636,
2222.490,2067.2997,
2219.579,2066.8457,
2216.669,2067.938,
2213.758,2094.6981,
2210.847,2084.267,
2207.937,2110.697,
2205.026,2152.0012,
2202.116,2124.7197,
2199.205,2157.3861,
2196.294,2195.116,
2193.384,2193.053,
2190.473,2251.6326,
2187.563,2246.3528,
2184.652,2324.2714,
2181.742,2372.6159,
2178.831,2436.7861,
2175.920,2490.561,
2173.010,2602.3571,
2170.099,2720.1905,
2167.189,2894.6458,
2164.278,3013.6402,
2161.368,3232.2801,
2158.457,3437.8089,
2155.546,3665.3886,
2152.636,3865.7603,
2149.725,4007.7113,
2146.815,4248.3251,
2143.904,4382.3419,
2140.993,4498.4337,
2138.083,4571.8965,
2135.172,4665.5886,
2132.262,4671.1884,
2129.351,4636.6931,
2126.441,4519.1453,
2123.530,4405.497,
2120.619,4158.1663,
2117.709,3938.3172,
2114.798,3722.1338,
2111.888,3499.8423,
2108.977,3268.2118,
2106.067,3078.2098,
2103.156,2906.3852,
2100.245,2737.9599,
2097.335,2661.9581,
2094.424,2566.1015,
2091.514,2519.1907,
2088.603,2451.9955,
2085.692,2413.316,
2082.782,2391.7431,
2079.871,2357.07,
2076.961,2301.4226,
2074.050,2346.2182,
2071.140,2281.1717,
2068.229,2324.918,
2065.318,2302.1347,
2062.408,2269.7042,
2059.497,2251.1905,
2056.587,2258.6394,
2053.676,2278.5157,
2050.766,2222.9268,
2047.855,2238.2595,
2044.944,2213,
2042.034,2217.7399,
2039.123,2245.2424,
2036.213,2246.4466,
2033.302,2249.5213,
2030.391,2234.7808,
2027.481,2240.268,
2024.570,2257.5855,
2021.660,2279.6992,
2018.749,2256.1777,
2015.839,2281.292,
2012.928,2249.8507,
2010.017,2259.3105,
2007.107,2276.9514,
2004.196,2257.8809,
2001.286,2265.689,
1998.375,2235.7273,
1995.465,2223.7196,
1992.554,2198.7061,
1989.643,2202.7235,
1986.733,2216.4281,
1983.822,2222.7304,
1980.912,2213.8613,
1978.001,2208.7458,
1975.090,2206.7969,
1972.180,2197.863,
1969.269,2206.8133,
1966.359,2210.3242,
1963.448,2186.4676,
1960.538,2227.8791,
1957.627,2186.3931,
1954.716,2222.736,
1951.806,2195.9071,
1948.895,2178.6983,
1945.985,2194.6046,
1943.074,2157.4391,
1940.164,2171.6542,
1937.253,2172.0223,
1934.342,2129.9572,
1931.432,2113.4543,
1928.521,2146.5613,
1925.611,2139.4484,
1922.700,2112.9627,
1919.790,2102.1099,
1916.879,2102.8605,
1913.968,2111.9889,
1911.058,2157.2913,
1908.147,2125.3767,
1905.237,2150.919,
1902.326,2089.9555,
1899.415,2081.9731,
1896.505,2033.2107,
1893.594,2039.805,
1890.684,2093.8822,
1887.773,2113.0691,
1884.863,2112.4647,
1881.952,2124.7649,
1879.041,2164.555,
1876.131,2143.4248,
1873.220,2130.7699,
1870.310,2155.991,
1867.399,2116.6717,
1864.489,2152,
1861.578,2152.934,
1858.667,2163.4671,
1855.757,2169.8079,
1852.846,2167.5333,
1849.936,2192.1391,
1847.025,2196.944,
1844.114,2187.2188,
1841.204,2207.7867,
1838.293,2213.0233,
1835.383,2190.8025,
1832.472,2182.2209,
1829.562,2213.5789,
1826.651,2237.4702,
1823.740,2256.0154,
1820.830,2275.1182,
1817.919,2225.2512,
1815.009,2299.4796,
1812.098,2257.4489,
1809.188,2251,
1806.277,2251.9779,
1803.366,2336.1349,
1800.456,2286.264,
1797.545,2311.5034,
1794.635,2343.42,
1791.724,2334.7475,
1788.813,2363.7805,
1785.903,2307.9244,
1782.992,2280.0058,
1780.082,2127.7649,
1777.171,2051.666,
1774.261,2079.6606,
1771.350,2205.4223,
1768.439,2358.5591,
1765.529,2388.7221,
1762.618,2384.5044,
1759.708,2404.7825,
1756.797,2410.0606,
1753.887,2406.6399,
1750.976,2410.5105,
1748.065,2447.8064,
1745.155,2478.6902,
1742.244,2444.6233,
1739.334,2477.7765,
1736.423,2500.8804,
1733.512,2508.7317,
1730.602,2549.4008,
1727.691,2539.7378,
1724.781,2547.1584,
1721.870,2566.2906,
1718.960,2596.3114,
1716.049,2624.6523,
1713.138,2682.0097,
1710.228,2629.2089,
1707.317,2650.0754,
1704.407,2662.0856,
1701.496,2713.1351,
1698.586,2707.8362,
1695.675,2706.0643,
1692.764,2789.3115,
1689.854,2747.122,
1686.943,2838.7286,
1684.033,2860.5281,
1681.122,2885.5752,
1678.211,2909.7716,
1675.301,2952.8674,
1672.390,2997.1555,
1669.480,3049.7059,
1666.569,3138.2061,
1663.659,3231.8693,
1660.748,3225.639,
1657.837,3310.4871,
1654.927,3377.3514,
1652.016,3394.8187,
1649.106,3509.3709,
1646.195,3565.7743,
1643.285,3639.4811,
1640.374,3705.5296,
1637.463,3828.5036,
1634.553,4075.8916,
1631.642,4203.6504,
1628.732,4355.4873,
1625.821,4605.2035,
1622.911,4914.2475,
1620.000,5171.7369,
1617.089,5574.8806,
1614.179,5859.9627,
1611.268,6227.1326,
1608.358,6600.3477,
1605.447,6840.5161,
1602.536,6892.2074,
1599.626,7011.8315,
1596.715,6963.9135,
1593.805,6899.8684,
1590.894,6865.6992,
1587.984,6771.0603,
1585.073,6745.9394,
1582.162,6667.1905,
1579.252,6561.9869,
1576.341,6564.4298,
1573.431,6507.3461,
1570.520,6511.4026,
1567.610,6407.7238,
1564.699,6387.4007,
1561.788,6268.6491,
1558.878,6186.6412,
1555.967,6069.9363,
1553.057,5914.2941,
1550.146,5781.0256,
1547.235,5674.9674,
1544.325,5560.4809,
1541.414,5452.1545,
1538.504,5366.382,
1535.593,5316.2879,
1532.683,5248.0351,
1529.772,5129.6821,
1526.861,5085.7374,
1523.951,5113.9183,
1521.040,5106.796,
1518.130,5073.6242,
1515.219,4984.1997,
1512.309,4953.626,
1509.398,4806.7323,
1506.487,4721.0319,
1503.577,4682.7957,
1500.666,4657.6883,
1497.756,4562.5935,
1494.845,4589.5976,
1491.934,4483.9465,
1489.024,4467.5841,
1486.113,4354.8069,
1483.203,4322.0195,
1480.292,4201.9054,
1477.382,4154.3278,
1474.471,4029.0563,
1471.560,4015.4956,
1468.650,4014.4342,
1465.739,3970.2896,
1462.829,3957.5491,
1459.918,3951.8452,
1457.008,3898.8456,
1454.097,3857.9243,
1451.186,3869.3965,
1448.276,3888.0587,
1445.365,3917.8254,
1442.455,3945.7743,
1439.544,3892.8974,
1436.633,3894.9513,
1433.723,3889.6261,
1430.812,3882.0499,
1427.902,3819.5265,
1424.991,3799.6234,
1422.081,3906.3448,
1419.170,3877.1173,
1416.259,3930.1346,
1413.349,3915.3008,
1410.438,3930.4923,
1407.528,3922.3315,
1404.617,3863.2684,
1401.707,3834.2994,
1398.796,3819.6469,
1395.885,3845.9532,
1392.975,3901.9578,
1390.064,3873.2309,
1387.154,3852.3268,
1384.243,3833.3786,
1381.332,3819.0986,
1378.422,3852.4051,
1375.511,4015.405,
1372.601,4147.0198,
1369.690,4213.7195,
1366.780,4366.3584,
1363.869,4416.3501,
1360.958,4477.7786,
1358.048,4580.5707,
1355.137,4631.5257,
1352.227,4712.0658,
1349.316,4892.5424,
1346.406,5030.5124,
1343.495,5066.899,
1340.584,5158.6425,
1337.674,5190.0769,
1334.763,5276.0465,
1331.853,5329.8259,
1328.942,5383.5889,
1326.032,5548.2304,
1323.121,5627.7169,
1320.210,5733.5652,
1317.300,5840.3841,
1314.389,5958.0292,
1311.479,6077.4948,
1308.568,6204.6544,
1305.657,6386.025,
1302.747,6585.9351,
1299.836,6736.6244,
1296.926,6947.5375,
1294.015,7088.194,
1291.105,7278.0332,
1288.194,7493.1008,
1285.283,7752.2209,
1282.373,7927.1247,
1279.462,8082.6647,
1276.552,8227.8585,
1273.641,8323.4336,
1270.731,8359.7075,
1267.820,8358.4257,
1264.909,8403.2089,
1261.999,8410.4355,
1259.088,8367.5658,
1256.178,8203.1297,
1253.267,8099.2805,
1250.356,7845.7337,
1247.446,7518.3242,
1244.535,7211.3844,
1241.625,6937.1188,
1238.714,6674.2619,
1235.804,6429.2867,
1232.893,6237.0278,
1229.982,6108.2709,
1227.072,6027.6981,
1224.161,5915.256,
1221.251,5783.3236,
1218.340,5686.0491,
1215.430,5579.6777,
1212.519,5547.0711,
1209.608,5531.7418,
1206.698,5424.3825,
1203.787,5377.5176,
1200.877,5405.6219,
1197.966,5464.0672,
1195.055,5680.3122,
1192.145,5821.4367,
1189.234,5982.5145,
1186.324,6080.4574,
1183.413,6128.8477,
1180.503,6166.4196,
1177.592,6158.6965,
1174.681,6079.4247,
1171.771,6040.7527,
1168.860,6030.0357,
1165.950,6041.0943,
1163.039,6019.5559,
1160.129,6012.5391,
1157.218,5950.1006,
1154.307,5879.629,
1151.397,5861.7952,
1148.486,5810.6023,
1145.576,5792.1045,
1142.665,5679.3395,
1139.754,5731.0222,
1136.844,5666.5661,
1133.933,5598.9826,
1131.023,5561.7813,
1128.112,5538.0727,
1125.202,5511.372,
1122.291,5480.7574,
1119.380,5500.2512,
1116.470,5525.8445,
1113.559,5522.814,
1110.649,5500.0449,
1107.738,5438.0973,
1104.828,5384.8458,
1101.917,5370.2248,
1099.006,5364.9485,
1096.096,5361.9889,
1093.185,5394.475,
1090.275,5407.5205,
1087.364,5465.5759,
1084.453,5572.5573,
1081.543,5647.3937,
1078.632,5679.2367,
1075.722,5700.4507,
1072.811,5630.3031,
1069.901,5648.6416,
1066.990,5623.3251,
1064.079,5544.185,
1061.169,5552.5272,
1058.258,5560.7439,
1055.348,5544.9892,
1052.437,5595.9518,
1049.527,5612.3091,
1046.616,5646.1934,
1043.705,5694.7044,
1040.795,5662.6662,
1037.884,5671.8959,
1034.974,5712.7036,
1032.063,5742.5994,
1029.153,5805.3236,
1026.242,5833.0022,
1023.331,5850.6656,
1020.421,5873.5188,
1017.510,5906.6521,
1014.600,5944.6089,
1011.689,5989.3848,
1008.778,6055.74,
1005.868,6160.1969,
1002.957,6293.5518,
1000.047,6533.1281,
997.136,6784.7371,
994.226,6933.4457,
991.315,6969.3911,
988.404,6955.6781,
985.494,6890.5999,
982.583,6828.0713,
979.673,6821.1949,
976.762,6864.2714,
973.852,6891.7899,
970.941,6907.0792,
968.030,6946.6936,
965.120,6928.1897,
962.209,6973.3745,
959.299,6959.7525,
956.388,6985.7178,
953.477,7006.4236,
950.567,7006.4113,
947.656,7030.1033,
944.746,7008.0149,
941.835,7011.0491,
938.925,7038.322,
936.014,7032.7786,
933.103,7011.5283,
930.193,6980.4323,
927.282,6870.4254,
924.372,6804.468,
921.461,6688.4856,
918.551,6591.3257,
915.640,6483.9836,
912.729,6375.8733,
909.819,6320.8888,
906.908,6320.0464,
903.998,6264.3245,
901.087,6258.9111,
898.176,6319.8318,
895.266,6397.5047,
892.355,6442.1095,
889.445,6490.787,
886.534,6537.7528,
883.624,6646.5791,
880.713,6715.9246,
877.802,6702.6504,
874.892,6586.8683,
871.981,6345.2986,
869.071,6103.8643,
866.160,6229.6602,
863.250,6414.0342,
860.339,6535.5524,
857.428,6577.5305,
854.518,6578.4635,
851.607,6387.0876,
848.697,6173.1041,
845.786,6132.5173,
842.875,6235.6665,
839.965,6376.4763,
837.054,6469.4976,
834.144,6424.745,
831.233,6389.3353,
828.323,6372.0434,
825.412,6364.7804,
822.501,6333.5739,
819.591,6198.0444,
816.680,6113.0704,
813.770,6030.9762,
810.859,5957.4495,
807.949,5891.2267,
805.038,5836.0907,
802.127,5853.3764,
799.217,5816.2397,
796.306,5776.8917,
793.396,5744.5419,
790.485,5714.6816,
787.574,5682.1341,
784.664,5843.6962,
781.753,5868.3031,
778.843,5904.7165,
775.932,5984.1969,
773.022,6050.4444,
770.111,5911.4561,
767.200,5885.2511,
764.290,5880.5779,
761.379,5858.5496,
758.469,5815.2108,
755.558,5782.0729,
752.648,5784.5167,
749.737,5737.9992,
746.826,5693.8849,
743.916,5640.1684,
741.005,5541.8599,
738.095,5398.9696,
735.184,5269.0206,
732.274,5238.7251,
729.363,5327.3156,
726.452,5499.5346,
723.542,5629.8469,
720.631,5724.1574,
717.721,5771.0496,
714.810,5816.4543,
711.899,5878.4159,
708.989,5931.6729,
706.078,5919.1792,
703.168,5876.5306,
700.257,5809.3302,
697.347,5755.4342,
694.436,5775.1746,
691.525,5781.605,
688.615,5777.9687,
685.704,5795.7213,
682.794,5810.8299,
679.883,5776.1542,
676.973,5890.7502,
674.062,5899.3241,
671.151,5868.2068,
668.241,5828.2788,
665.330,5793.2815,
662.420,5778.1056,
659.509,5787.0637,
656.598,5819.965,
653.688,5880.2249,
650.777,5969.8632,
647.867,6024.8098,
644.956,5957.7488,
642.046,5827.3242,
639.135,5708.4366,
636.224,5695.3342,
633.314,5762.025,
630.403,5738.7977,
627.493,5732.5082,
624.582,5762.4091,
621.672,5741.8173,
618.761,5703.763,
615.850,5739.9359,
612.940,5780.7077,
610.029,5786.6305,
607.119,5802.4231,
604.208,5823.1704,
601.297,5779.6527,
598.387,5735.1658,
595.476,5756.8625,
592.566,5797.7901,
589.655,5703.2813,
586.745,5672.3022,
583.834,5702.0237,
580.923,5694.7346,
578.013,5650.7895,
575.102,5672.8417,
572.192,5704.4311,
569.281,5721.9052,
566.371,5754.7754,
563.460,5743.1852,
560.549,5753.5675,
557.639,5791.4108,
554.728,5846.5566,
551.818,5839.5337,
548.907,5914.7861,
545.996,5957.0018,
543.086,5953.3816,
540.175,5987.642,
537.265,5946.5432,
534.354,5937.0237,
531.444,5971.0298,
528.533,6042.2692,
525.622,6060.116,
522.712,6137.4172,
519.801,6191.492,
516.891,6224.2237,
513.980,6334.1737,
511.070,6363.7217,
508.159,6486.1384,
505.248,6647.8033,
502.338,6759.0392,
499.427,6794.5435,
496.517,6893.9393,
493.606,7008.0899,
490.695,7091.1159,
487.785,7048.7774,
484.874,7137.6411,
481.964,7115.6652,
479.053,7024.0539,
476.143,7078.5793,
473.232,7021.5701,
470.321,7008.2181,
467.411,7013.6815,
464.500,7000.5793,
461.590,7102.4228,
458.679,7178.8756,
455.769,7234.0683,
452.858,7278.067,
449.947,7365.1552,
447.037,7424.8665,
444.126,7493.7757,
441.216,7573.5987,
438.305,7623.1243,
435.395,7649.6691,
432.484,7705.8427,
429.573,7750.4748,
426.663,7666.8593,
423.752,7368.4788,
420.842,7068.4593,
417.931,6885.4861,
415.020,6968.1471,
412.110,7607.5034,
409.199,7940.7554,
406.289,8041.3103,
403.378,8029.6824,
400.468,7935.9391,
397.557,7920.3962,
394.646,7995.4108,
391.736,8164.5594,
388.825,8244.5079,
385.915,8252.5664,
383.004,8240.9988,
380.094,8252.4878,
377.183,8379.6563,
374.272,8472.5347,
371.362,8497.7481,
368.451,8449.249,
365.541,8568.5842,
362.630,8622.8496,
359.719,8675.6282,
356.809,8755.1908,
353.898,8708.7654,
350.988,8711.1896,
348.077,8724.5808,
345.167,8724.6377,
342.256,8697.7432,
339.345,8693.1886,
336.435,8704.0502,
333.524,8726.1979,
330.614,8764.2008,
327.703,8823.7467,
324.793,8874.6714,
321.882,8891.2001,
318.971,8973.7223,
316.061,9040.5768,
313.150,9106.4047,
310.240,9188.0374,
307.329,9320.3493,
304.418,9370.6321,
301.508,9345.3692,
298.597,9256.5191,
295.687,9238.1642,
292.776,9293.8337,
289.866,9393.4792,
286.955,9462.1807,
284.044,9575.0974,
281.134,9667.9556,
278.223,9733.7003,
275.313,9800.0173,
272.402,9809.9337,
269.492,9804.4652,
266.581,9802.5209,
263.670,9851.778,
260.760,9944.3575,
257.849,10078.617,
254.939,10257.684,
252.028,10315.012,
249.117,10329.604,
246.207,10338.479,
243.296,10402.166,
240.386,10433.161,
237.475,10443.695,
234.565,10445.982,
231.654,10483.962,
228.743,10463.232,
225.833,10447.488,
222.922,10460.068,
220.012,10461.525,
217.101,10511.072,
214.191,10578.173,
211.280,10632.006,
208.369,10683.097,
205.459,10682.045,
202.548,10643.493,
199.638,10628.98,
196.727,10683.622,
193.816,10723.291,
190.906,10717.533,
187.995,10732.738,
185.085,10739.891,
182.174,10770.207,
179.264,10874.286,
176.353,10890.485,
173.442,10928.531,
170.532,10979.659,
167.621,10882.327,
164.711,10651.554,
161.800,10322.245,
158.890,9898.3251,
155.979,9377.4756,
153.068,8696.5749,
150.158,7846.1909,
147.247,6759.9291,
144.337,5590.6458,
141.426,4438.591,
138.516,3352.5008,
135.605,2368.703,
132.694,1612.8429,
129.784,1062.4057,
126.873,715.5677,
123.963,489.07478,
121.052,329.92306,
118.141,226.40727,
115.231,184.78692,
112.320,149.36002,
109.410,121.27289,
106.499,107.02979,
103.589,99.517964,
100.678,92.74054,
97.767,84.209289,
94.857,71.526197,
91.946,66.403111,
89.036,65.983919,
86.125,59.601071,
83.215,52.159876,
80.304,45.563404,
77.393,41.314384,
74.483,42.965405,
71.572,43.275296,
68.662,42.069267,
65.751,42.775719,
62.840,40.109788,
59.930,37,
57.019,37,
54.109,28.042587,
51.198,26.22253,
48.288,35.943376,
45.377,28.909595,
42.466,21.877807,
39.556,16.920949,
36.645,22.53847,
33.735,21.923006,
30.824,18.012017,
27.914,11.70144,
25.003,21.584837,
22.092,25.093859,
19.182,18.450811,
16.271,1.6630481,
13.361,-19.751029,
10.450,-81.826036,
7.539,-324.83978,
4.629,-598.66059,
1.718,-758.3682,
-1.192,-635.67076,
-4.103,-426.15343,
-7.013,-210.09731,
-9.924,-2,
