,PLC6F4~1,
Raman shift [1/cm],Intensity,
3014.167,-3,
3011.256,1.7500537,
3008.346,110.48007,
3005.435,149.19435,
3002.525,161.37752,
2999.614,158.6143,
2996.704,177.22165,
2993.793,170.37154,
2990.882,165.09165,
2987.972,176.11099,
2985.061,188.24629,
2982.151,189.2101,
2979.240,208.46769,
2976.329,199.99454,
2973.419,223.84596,
2970.508,235.08332,
2967.598,210.04779,
2964.687,219.59647,
2961.777,234.43595,
2958.866,237.32838,
2955.955,244.75885,
2953.045,244.95304,
2950.134,263.36151,
2947.224,252.68325,
2944.313,280.04487,
2941.403,274.57117,
2938.492,270.13821,
2935.581,279.97298,
2932.671,281.91844,
2929.760,285.76156,
2926.850,277.04511,
2923.939,296.87849,
2921.028,298.91762,
2918.118,305.9005,
2915.207,323.53814,
2912.297,303.12694,
2909.386,319.80292,
2906.476,324.22471,
2903.565,310.62889,
2900.654,305.04754,
2897.744,334.55997,
2894.833,302.06182,
2891.923,297.7019,
2889.012,318.04624,
2886.102,309.04053,
2883.191,311.00189,
2880.280,302.48324,
2877.370,290.20346,
2874.459,298.65399,
2871.549,306.19766,
2868.638,323.04536,
2865.727,317.28847,
2862.817,338.77271,
2859.906,321.02564,
2856.996,329,
2854.085,314.91594,
2851.175,332.14455,
2848.264,342.28433,
2845.353,341.08627,
2842.443,339.40975,
2839.532,338.76115,
2836.622,322.75846,
2833.711,322.26687,
2830.801,338.68309,
2827.890,333.16784,
2824.979,346.70395,
2822.069,323.34116,
2819.158,350.71967,
2816.248,352.22974,
2813.337,351.56707,
2810.427,362.21349,
2807.516,341.22328,
2804.605,360.38702,
2801.695,353.47367,
2798.784,341.66531,
2795.874,358.3061,
2792.963,344.14298,
2790.052,349.99936,
2787.142,335.42108,
2784.231,339.41925,
2781.321,348.11996,
2778.410,337.07487,
2775.500,340.76586,
2772.589,361.69114,
2769.678,340.75087,
2766.768,352.42138,
2763.857,346.52794,
2760.947,349.43381,
2758.036,355.94278,
2755.126,351.57051,
2752.215,356.65912,
2749.304,377.31832,
2746.394,353.29228,
2743.483,374.64999,
2740.573,369.7898,
2737.662,356.56361,
2734.751,360.88351,
2731.841,372.48718,
2728.930,369.6103,
2726.020,360.45428,
2723.109,383.07191,
2720.199,366.72496,
2717.288,365.93065,
2714.377,375.67476,
2711.467,394.59011,
2708.556,396.47874,
2705.646,396,
2702.735,389.32474,
2699.825,377.57635,
2696.914,394.23866,
2694.003,391.89918,
2691.093,400.6787,
2688.182,377.27037,
2685.272,401.0441,
2682.361,389.21179,
2679.450,400.03288,
2676.540,399.71546,
2673.629,392.63673,
2670.719,394.43807,
2667.808,408.93002,
2664.898,394.18191,
2661.987,403.73362,
2659.076,404.52587,
2656.166,424.69269,
2653.255,407.74319,
2650.345,395.5118,
2647.434,415.39983,
2644.524,415.56358,
2641.613,422.57134,
2638.702,408.20515,
2635.792,418.43769,
2632.881,419.30948,
2629.971,427.97991,
2627.060,420.66563,
2624.149,436.80936,
2621.239,440.73962,
2618.328,424.12716,
2615.418,428.65909,
2612.507,422.07118,
2609.597,430.53094,
2606.686,428.64862,
2603.775,444.31746,
2600.865,456.6417,
2597.954,434.71871,
2595.044,453.29495,
2592.133,449.77058,
2589.223,447.34948,
2586.312,468.80403,
2583.401,456.71531,
2580.491,450.45192,
2577.580,459.01485,
2574.670,465.7861,
2571.759,462.20205,
2568.848,458.23754,
2565.938,458.8094,
2563.027,471.60912,
2560.117,477.34582,
2557.206,463.30259,
2554.296,466.746,
2551.385,478.68599,
2548.474,479.11115,
2545.564,482.90503,
2542.653,491.46309,
2539.743,494.97535,
2536.832,489.44859,
2533.922,487.98423,
2531.011,484.25023,
2528.100,477,
2525.190,483.32459,
2522.279,485.93796,
2519.369,502.28318,
2516.458,476.54179,
2513.548,483.65423,
2510.637,502.43038,
2507.726,505.87732,
2504.816,484.37316,
2501.905,496.53598,
2498.995,498.94028,
2496.084,500.7596,
2493.173,506.44735,
2490.263,504.40452,
2487.352,517.748,
2484.442,494.41112,
2481.531,512.73931,
2478.621,521.60665,
2475.710,499.20703,
2472.799,523.28703,
2469.889,518.87812,
2466.978,523.72164,
2464.068,539.3228,
2461.157,530.61501,
2458.247,527.2941,
2455.336,528.29746,
2452.425,538.9151,
2449.515,546.5946,
2446.604,557.64747,
2443.694,542.4646,
2440.783,544.14527,
2437.872,527.69283,
2434.962,544.16129,
2432.051,540.95065,
2429.141,555.8116,
2426.230,568.47847,
2423.320,555.19972,
2420.409,568.89099,
2417.498,576.18821,
2414.588,562.65026,
2411.677,570.49798,
2408.767,566.35925,
2405.856,576.17628,
2402.946,572.42895,
2400.035,564.71595,
2397.124,580.20322,
2394.214,571.19039,
2391.303,576.64092,
2388.393,586.18375,
2385.482,567.10155,
2382.571,598.64532,
2379.661,602.16288,
2376.750,606.1551,
2373.840,602.45006,
2370.929,594.05415,
2368.019,601.92733,
2365.108,609.20942,
2362.197,610.38905,
2359.287,604.81504,
2356.376,601.00352,
2353.466,630,
2350.555,622.49473,
2347.645,628.16951,
2344.734,625.02761,
2341.823,642.63517,
2338.913,628.22387,
2336.002,622.22486,
2333.092,634.44813,
2330.181,641.75447,
2327.270,642.94499,
2324.360,651.32784,
2321.449,648.61565,
2318.539,645.87155,
2315.628,643.48721,
2312.718,650.29956,
2309.807,648.47819,
2306.896,655.75587,
2303.986,664.52603,
2301.075,661.89366,
2298.165,651.80763,
2295.254,672.52605,
2292.344,669.89629,
2289.433,665.67955,
2286.522,676.70083,
2283.612,664.67854,
2280.701,685.42595,
2277.791,687.87978,
2274.880,677.93813,
2271.969,669.40741,
2269.059,691.41416,
2266.148,692.10684,
2263.238,697.59845,
2260.327,724.20692,
2257.417,721.54389,
2254.506,706.42736,
2251.595,700.2946,
2248.685,715.09607,
2245.774,726.60433,
2242.864,728.25935,
2239.953,730.63451,
2237.043,725.61036,
2234.132,737.11423,
2231.221,734.91984,
2228.311,751.74611,
2225.400,741.25331,
2222.490,746.65791,
2219.579,746.35997,
2216.669,773.50238,
2213.758,774.95687,
2210.847,779.22418,
2207.937,788.63354,
2205.026,799.89009,
2202.116,776.96389,
2199.205,794.68823,
2196.294,795.17396,
2193.384,807,
2190.473,841.31926,
2187.563,855.99517,
2184.652,858.01224,
2181.742,880.02335,
2178.831,897.27629,
2175.920,916.24044,
2173.010,967.05329,
2170.099,1004.6642,
2167.189,1046.8037,
2164.278,1164.0161,
2161.368,1208.7131,
2158.457,1276.21,
2155.546,1371.4376,
2152.636,1434.1435,
2149.725,1503.9261,
2146.815,1538.1991,
2143.904,1592.7026,
2140.993,1615.0633,
2138.083,1668,
2135.172,1644.6973,
2132.262,1643.5317,
2129.351,1641.8965,
2126.441,1585.7571,
2123.530,1522.046,
2120.619,1428.6426,
2117.709,1353.124,
2114.798,1293.5691,
2111.888,1226.3396,
2108.977,1130.7748,
2106.067,1076.9735,
2103.156,1026.7679,
2100.245,999.97114,
2097.335,953.15707,
2094.424,941.25561,
2091.514,919.78223,
2088.603,914.9493,
2085.692,894.72131,
2082.782,897.67057,
2079.871,866.39091,
2076.961,884.19182,
2074.050,874.33939,
2071.140,875.69008,
2068.229,841.46876,
2065.318,836.63077,
2062.408,856.50756,
2059.497,856,
2056.587,836.13986,
2053.676,828.81662,
2050.766,841.92227,
2047.855,825.37023,
2044.944,836.53686,
2042.034,824.86702,
2039.123,822.08081,
2036.213,827.34666,
2033.302,832.69552,
2030.391,845.79645,
2027.481,828.91482,
2024.570,855.7134,
2021.660,830.95127,
2018.749,833.2022,
2015.839,817.5735,
2012.928,841.25335,
2010.017,819.72747,
2007.107,811.23177,
2004.196,819.82148,
2001.286,828.16609,
1998.375,815.25787,
1995.465,803.13393,
1992.554,806.25878,
1989.643,805.06913,
1986.733,806.07018,
1983.822,825.84638,
1980.912,827.81162,
1978.001,811.35621,
1975.090,803.38321,
1972.180,805.65559,
1969.269,793.64078,
1966.359,800.97314,
1963.448,775.1268,
1960.538,750.82735,
1957.627,770.29104,
1954.716,743.86181,
1951.806,794.71481,
1948.895,754.69832,
1945.985,780.81699,
1943.074,777.83036,
1940.164,766.98088,
1937.253,751.89616,
1934.342,738.154,
1931.432,745.03154,
1928.521,728.55786,
1925.611,707.42225,
1922.700,749.27761,
1919.790,724.96574,
1916.879,728.30251,
1913.968,721.00984,
1911.058,719.78379,
1908.147,742.47589,
1905.237,733.34564,
1902.326,751.66076,
1899.415,726.23294,
1896.505,740.17471,
1893.594,738.82011,
1890.684,728.80396,
1887.773,710.871,
1884.863,696.25968,
1881.952,709.04234,
1879.041,734.91226,
1876.131,710.86799,
1873.220,728.40718,
1870.310,693.01352,
1867.399,687.04798,
1864.489,742.94852,
1861.578,717.93399,
1858.667,724.94612,
1855.757,717.58353,
1852.846,735.24616,
1849.936,725.74475,
1847.025,729.10946,
1844.114,769.62119,
1841.204,764.17483,
1838.293,748.00499,
1835.383,758.66249,
1832.472,773.55826,
1829.562,779.19401,
1826.651,783.05133,
1823.740,769.44059,
1820.830,753.19676,
1817.919,749.18562,
1815.009,745.57506,
1812.098,778.21258,
1809.188,769.80623,
1806.277,785.62376,
1803.366,750.08136,
1800.456,812.90086,
1797.545,792.24832,
1794.635,785.83617,
1791.724,849.42731,
1788.813,799.5982,
1785.903,808.53866,
1782.992,842.31888,
1780.082,802.89116,
1777.171,804.67024,
1774.261,829.68024,
1771.350,850.7915,
1768.439,847.31849,
1765.529,836.45369,
1762.618,817.9556,
1759.708,832.09811,
1756.797,862.76515,
1753.887,867.12828,
1750.976,856.79647,
1748.065,852.68664,
1745.155,841.58719,
1742.244,854.52623,
1739.334,860.89177,
1736.423,842.74956,
1733.512,854.91875,
1730.602,858.25992,
1727.691,881.56514,
1724.781,901.58523,
1721.870,916.26673,
1718.960,907.48875,
1716.049,915.90667,
1713.138,936.80991,
1710.228,923.46436,
1707.317,928.07657,
1704.407,944.27275,
1701.496,944.1769,
1698.586,962.47969,
1695.675,941.54299,
1692.764,970.2951,
1689.854,971.04331,
1686.943,945.87687,
1684.033,967.42877,
1681.122,973.89805,
1678.211,990.8382,
1675.301,1003.9599,
1672.390,1026.323,
1669.480,1133.4866,
1666.569,1070.9649,
1663.659,1146.343,
1660.748,1167.2121,
1657.837,1178.3062,
1654.927,1192,
1652.016,1193.6037,
1649.106,1257.3635,
1646.195,1232.3117,
1643.285,1246.7774,
1640.374,1323.439,
1637.463,1345.225,
1634.553,1411.9113,
1631.642,1407.0641,
1628.732,1504.557,
1625.821,1598.0648,
1622.911,1696.4421,
1620.000,1797.7149,
1617.089,1898.9701,
1614.179,2048.7134,
1611.268,2120.3975,
1608.358,2305.0568,
1605.447,2413.9437,
1602.536,2429.3189,
1599.626,2458.5179,
1596.715,2454.6468,
1593.805,2437.0077,
1590.894,2441.1647,
1587.984,2419.4816,
1585.073,2369.2051,
1582.162,2291.7045,
1579.252,2322.1883,
1576.341,2295.1511,
1573.431,2267.2038,
1570.520,2235.2468,
1567.610,2250.0984,
1564.699,2182.5969,
1561.788,2118.0849,
1558.878,2070.2274,
1555.967,2051.036,
1553.057,1990.3109,
1550.146,1966.2182,
1547.235,1907.0641,
1544.325,1846.7306,
1541.414,1846.8813,
1538.504,1821.0338,
1535.593,1781.6439,
1532.683,1751.1927,
1529.772,1697.8504,
1526.861,1670.4256,
1523.951,1692.6543,
1521.040,1687.1409,
1518.130,1613.2249,
1515.219,1581.3603,
1512.309,1556.8873,
1509.398,1517.0151,
1506.487,1544.4328,
1503.577,1561.7993,
1500.666,1518.4331,
1497.756,1500.8892,
1494.845,1438.1195,
1491.934,1416.9559,
1489.024,1403.481,
1486.113,1480.8861,
1483.203,1402.6241,
1480.292,1379.2723,
1477.382,1383.466,
1474.471,1369.6524,
1471.560,1349.761,
1468.650,1325.5516,
1465.739,1295.2233,
1462.829,1292.5491,
1459.918,1289.0552,
1457.008,1294.2002,
1454.097,1290.3623,
1451.186,1262.2669,
1448.276,1252.5828,
1445.365,1247.3555,
1442.455,1233.013,
1439.544,1256.852,
1436.633,1280.3297,
1433.723,1262.5015,
1430.812,1255.9708,
1427.902,1217.3686,
1424.991,1190.8313,
1422.081,1215.6894,
1419.170,1169.6126,
1416.259,1162,
1413.349,1147.6504,
1410.438,1140.2009,
1407.528,1157.0248,
1404.617,1155.2574,
1401.707,1151.7695,
1398.796,1159.7762,
1395.885,1174.3347,
1392.975,1184.7498,
1390.064,1174.3512,
1387.154,1172.9069,
1384.243,1182.9644,
1381.332,1162.9639,
1378.422,1234.7102,
1375.511,1229.0895,
1372.601,1343.2747,
1369.690,1316.1394,
1366.780,1421.677,
1363.869,1449.547,
1360.958,1516.3421,
1358.048,1583.0388,
1355.137,1602.8973,
1352.227,1620.6733,
1349.316,1658.3867,
1346.406,1698.5622,
1343.495,1754.4356,
1340.584,1824.1061,
1337.674,1883.64,
1334.763,1838.9647,
1331.853,1838.0375,
1328.942,1895.8152,
1326.032,1963.3559,
1323.121,2036.2772,
1320.210,2070.9843,
1317.300,2085.0828,
1314.389,2124.4312,
1311.479,2175.7863,
1308.568,2224.0658,
1305.657,2277.1145,
1302.747,2332.5198,
1299.836,2450.8428,
1296.926,2472.2894,
1294.015,2650.6382,
1291.105,2645.6724,
1288.194,2714.2894,
1285.283,2803.6003,
1282.373,2913.6325,
1279.462,2991.1955,
1276.552,3057.8112,
1273.641,3124.6007,
1270.731,3144.1209,
1267.820,3119.4542,
1264.909,3129.3521,
1261.999,3160.5007,
1259.088,3146.8189,
1256.178,3074.0577,
1253.267,3021.3386,
1250.356,2949.4017,
1247.446,2824.7767,
1244.535,2722.3126,
1241.625,2624.4261,
1238.714,2507.4024,
1235.804,2441.6409,
1232.893,2388.1449,
1229.982,2296.5895,
1227.072,2254.9451,
1224.161,2262.086,
1221.251,2201.4612,
1218.340,2155.3831,
1215.430,2098.5077,
1212.519,2067.0748,
1209.608,2073.0631,
1206.698,2082.6598,
1203.787,2107.804,
1200.877,2125.3403,
1197.966,2163.105,
1195.055,2165,
1192.145,2244.6424,
1189.234,2330.0401,
1186.324,2368.5461,
1183.413,2408.0051,
1180.503,2431.4392,
1177.592,2386.7271,
1174.681,2359.0308,
1171.771,2309.6813,
1168.860,2252.5235,
1165.950,2265.5447,
1163.039,2229.4926,
1160.129,2219.0783,
1157.218,2210.5394,
1154.307,2187.8374,
1151.397,2169.0471,
1148.486,2159.4957,
1145.576,2182.957,
1142.665,2135.8976,
1139.754,2150.7135,
1136.844,2078.667,
1133.933,2064.1817,
1131.023,2051.5068,
1128.112,2014.0727,
1125.202,2008.8695,
1122.291,2045.3814,
1119.380,2061.7402,
1116.470,2035.2643,
1113.559,2059.0637,
1110.649,2065.6903,
1107.738,2065,
1104.828,2079.5635,
1101.917,2105.0298,
1099.006,2112.9692,
1096.096,2093.3012,
1093.185,2081.8872,
1090.275,2059.1497,
1087.364,2098.598,
1084.453,2121.2499,
1081.543,2092.3245,
1078.632,2071.8037,
1075.722,2110.9313,
1072.811,2101.0692,
1069.901,2087.9703,
1066.990,2106.4,
1064.079,2134.1375,
1061.169,2147.7615,
1058.258,2177.5266,
1055.348,2213.5302,
1052.437,2216.3955,
1049.527,2249.1678,
1046.616,2253.512,
1043.705,2240.897,
1040.795,2288.7189,
1037.884,2292.2074,
1034.974,2279.2899,
1032.063,2308.3459,
1029.153,2335.4154,
1026.242,2338.8753,
1023.331,2363.1651,
1020.421,2370.7884,
1017.510,2386.0069,
1014.600,2394.8853,
1011.689,2401.9775,
1008.778,2442.3942,
1005.868,2532.6332,
1002.957,2603.1823,
1000.047,2696.264,
997.136,2788.6692,
994.226,2815.9387,
991.315,2798.7401,
988.404,2796.0828,
985.494,2748.83,
982.583,2696.5801,
979.673,2713.1443,
976.762,2717.8903,
973.852,2726.0503,
970.941,2737.9253,
968.030,2738.1099,
965.120,2766.7709,
962.209,2712.2082,
959.299,2756.1187,
956.388,2748.3219,
953.477,2728.2882,
950.567,2737.1828,
947.656,2751.7853,
944.746,2773.0242,
941.835,2778.8589,
938.925,2781.3161,
936.014,2789.5874,
933.103,2783.2293,
930.193,2743.0182,
927.282,2682.1751,
924.372,2666.9542,
921.461,2619.3432,
918.551,2591.3813,
915.640,2566.8521,
912.729,2540.1696,
909.819,2522.4406,
906.908,2487.9012,
903.998,2511.4517,
901.087,2530.0936,
898.176,2557.5194,
895.266,2577.1434,
892.355,2584.9783,
889.445,2659.6731,
886.534,2685.0462,
883.624,2715.5676,
880.713,2728,
877.802,2731.1265,
874.892,2736.4485,
871.981,2734.3748,
869.071,2750.2477,
866.160,2734.3711,
863.250,2713.9433,
860.339,2690.1129,
857.428,2681.3482,
854.518,2740.9168,
851.607,2703.4737,
848.697,2640.599,
845.786,2627.9742,
842.875,2646.2919,
839.965,2653.8688,
837.054,2635.2047,
834.144,2653.4372,
831.233,2629.002,
828.323,2618.462,
825.412,2604.614,
822.501,2565.0212,
819.591,2548.4932,
816.680,2520.7564,
813.770,2508.988,
810.859,2489.3041,
807.949,2458.2512,
805.038,2426.2168,
802.127,2394.938,
799.217,2403.9263,
796.306,2433.5407,
793.396,2438.206,
790.485,2412.8942,
787.574,2404.5952,
784.664,2393.9338,
781.753,2391.329,
778.843,2407.1727,
775.932,2423.3827,
773.022,2422.3804,
770.111,2424.8331,
767.200,2478.2919,
764.290,2462.6388,
761.379,2426.0024,
758.469,2414.5799,
755.558,2446.4894,
752.648,2429.3828,
749.737,2413.597,
746.826,2375.297,
743.916,2346.8183,
741.005,2353.1526,
738.095,2230.5591,
735.184,2155.2199,
732.274,2103.6533,
729.363,2135.1505,
726.452,2260.6178,
723.542,2341.5571,
720.631,2383.4624,
717.721,2392.7086,
714.810,2391.3807,
711.899,2392.7525,
708.989,2395.9802,
706.078,2369.557,
703.168,2359.3567,
700.257,2339.2594,
697.347,2331.3895,
694.436,2392.778,
691.525,2347.7649,
688.615,2300.2653,
685.704,2295.2677,
682.794,2322.2127,
679.883,2335.3512,
676.973,2320.9265,
674.062,2308.4288,
671.151,2300.8083,
668.241,2317.0599,
665.330,2376.0336,
662.420,2334.4995,
659.509,2327.2699,
656.598,2330.5965,
653.688,2336.0704,
650.777,2343.405,
647.867,2355.35,
644.956,2366.049,
642.046,2337.4175,
639.135,2290.6288,
636.224,2293.2188,
633.314,2336.8854,
630.403,2381.699,
627.493,2404.6159,
624.582,2411.0629,
621.672,2442.7426,
618.761,2453.8792,
615.850,2443.7763,
612.940,2450.4183,
610.029,2481.8956,
607.119,2469.2615,
604.208,2480.7802,
601.297,2486.4985,
598.387,2482.9871,
595.476,2473.2971,
592.566,2476.4454,
589.655,2451.7323,
586.745,2426.2828,
583.834,2409.4629,
580.923,2404.3222,
578.013,2457.6842,
575.102,2428.9809,
572.192,2399.1437,
569.281,2409.6082,
566.371,2446.3915,
563.460,2450.7055,
560.549,2472.4403,
557.639,2500.1027,
554.728,2514.3942,
551.818,2520.6367,
548.907,2509.2023,
545.996,2536.7686,
543.086,2595.1809,
540.175,2605.3033,
537.265,2557.4733,
534.354,2576.1251,
531.444,2603.247,
528.533,2578.6622,
525.622,2587.9736,
522.712,2614.8769,
519.801,2668.4243,
516.891,2730.7216,
513.980,2739.2388,
511.070,2793.5304,
508.159,2843.2213,
505.248,2883.7656,
502.338,2917.6266,
499.427,2973.1985,
496.517,2998.7475,
493.606,3049.0615,
490.695,3126.5438,
487.785,3087.2845,
484.874,3066.7831,
481.964,3081.8403,
479.053,3106.0941,
476.143,3073.0717,
473.232,3068.8418,
470.321,3056.8087,
467.411,3026.2587,
464.500,2972.7454,
461.590,3041.662,
458.679,3029.0829,
455.769,3029.4654,
452.858,3086.3637,
449.947,3080.2523,
447.037,3071.1121,
444.126,3101.4909,
441.216,3163.852,
438.305,3174.5191,
435.395,3195.0135,
432.484,3210.001,
429.573,3215.58,
426.663,3209.4989,
423.752,3248.7529,
420.842,3239.5122,
417.931,3226.7458,
415.020,3292.7229,
412.110,3330.849,
409.199,3338.621,
406.289,3344.807,
403.378,3380.918,
400.468,3356.7262,
397.557,3366.9952,
394.646,3394.2351,
391.736,3421.1066,
388.825,3393.2001,
385.915,3352.5362,
383.004,3328.5687,
380.094,3343.9925,
377.183,3422.25,
374.272,3482.5374,
371.362,3513.5284,
368.451,3509.8632,
365.541,3507.6116,
362.630,3526.6647,
359.719,3548.0314,
356.809,3562.1748,
353.898,3598.1171,
350.988,3615.0523,
348.077,3613.7398,
345.167,3596.5298,
342.256,3606.9887,
339.345,3595.6513,
336.435,3593.2709,
333.524,3620.3523,
330.614,3631.5297,
327.703,3669.3981,
324.793,3686.2747,
321.882,3640.9784,
318.971,3632.0571,
316.061,3665.1352,
313.150,3707.85,
310.240,3723.4344,
307.329,3760.4465,
304.418,3754.9381,
301.508,3728.8338,
298.597,3720.6893,
295.687,3764.0206,
292.776,3778.3333,
289.866,3797.18,
286.955,3930.8893,
284.044,4043.6099,
281.134,4143.5454,
278.223,4230.0536,
275.313,4291.9494,
272.402,4376.4511,
269.492,4445.7438,
266.581,4488.8347,
263.670,4556.4712,
260.760,4635.5517,
257.849,4695.1325,
254.939,4709.8102,
252.028,4770.803,
249.117,4812.7299,
246.207,4826.2871,
243.296,4792.6134,
240.386,4768.7573,
237.475,4770.294,
234.565,4789.3098,
231.654,4784.9275,
228.743,4727.6139,
225.833,4660.0838,
222.922,4601.1019,
220.012,4603.2876,
217.101,4607.9257,
214.191,4616.3712,
211.280,4630.9205,
208.369,4586.2487,
205.459,4562.8022,
202.548,4560.3733,
199.638,4556.745,
196.727,4621.6886,
193.816,4651.9386,
190.906,4611.4983,
187.995,4654.2157,
185.085,4663.7986,
182.174,4661.1341,
179.264,4672.6984,
176.353,4672.7184,
173.442,4691.9407,
170.532,4719.2713,
167.621,4652.9416,
164.711,4597.6847,
161.800,4497.8893,
158.890,4304.2826,
155.979,4093.01,
153.068,3804.2507,
150.158,3433.2834,
147.247,2952.9733,
144.337,2484.6497,
141.426,1989.3832,
138.516,1445.2628,
135.605,1041.8443,
132.694,718.64549,
129.784,468.83,
126.873,298.6291,
123.963,202.54043,
121.052,136.45304,
118.141,87.193806,
115.231,79.183726,
112.320,64.56183,
109.410,47.636447,
106.499,40.514895,
103.589,44.04229,
100.678,43.925674,
97.767,33.261611,
94.857,33.692989,
91.946,32.387557,
89.036,29.209715,
86.125,24.245278,
83.215,23.53092,
80.304,24.239433,
77.393,24.947603,
74.483,21.724325,
71.572,20,
68.662,19.515128,
65.751,14.56997,
62.840,13,
59.930,13.749145,
57.019,16.569473,
54.109,12.819874,
51.198,11.206437,
48.288,13.983013,
45.377,11.872878,
42.466,14.709974,
39.556,19.539526,
36.645,16.730765,
33.735,10.807515,
30.824,5.779113,
27.914,5.0779378,
25.003,6.245275,
22.092,5.3854772,
19.182,2.2288286,
16.271,9.22373,
13.361,16.636038,
10.450,5.572485,
7.539,-95.683243,
4.629,-368.80334,
1.718,-656.23389,
-1.192,-839.5829,
-4.103,-597.44843,
-7.013,-296.79049,
-9.924,-1,
