,PLCF6D~1,
Raman shift [1/cm],Intensity,
3014.167,-1.125,
3011.256,-1.0249785,
3008.346,222.6332,
3005.435,262.76193,
3002.525,277.83753,
2999.614,273.25164,
2996.704,305.40695,
2993.793,310.0265,
2990.882,309.64589,
2987.972,303.98599,
2985.061,320.11145,
2982.151,336.65317,
2979.240,357.70961,
2976.329,358.38865,
2973.419,358.78206,
2970.508,378.70837,
2967.598,387.68745,
2964.687,401.96467,
2961.777,420.71282,
2958.866,413.19299,
2955.955,425.52767,
2953.045,434.91081,
2950.134,460.7584,
2947.224,463.44438,
2944.313,487.81873,
2941.403,490.39872,
2938.492,485.89669,
2935.581,502.21364,
2932.671,504.27413,
2929.760,497.20192,
2926.850,516.67312,
2923.939,523.47312,
2921.028,521.39844,
2918.118,539.35863,
2915.207,577.11561,
2912.297,539.06118,
2909.386,562.23997,
2906.476,555.13061,
2903.565,558.06759,
2900.654,554.2997,
2897.744,556.73671,
2894.833,548.76154,
2891.923,526.92619,
2889.012,541.07731,
2886.102,557.85473,
2883.191,540.88916,
2880.280,548.04245,
2877.370,530.64822,
2874.459,546.64226,
2871.549,559.54628,
2868.638,549.0544,
2865.727,576.52506,
2862.817,576.37632,
2859.906,590.21688,
2856.996,596.35915,
2854.085,589.31196,
2851.175,572.32978,
2848.264,590.01233,
2845.353,583.34947,
2842.443,591.29867,
2839.532,580.18838,
2836.622,580.78516,
2833.711,575.88284,
2830.801,575.86765,
2827.890,589.39774,
2824.979,599.517,
2822.069,594.93186,
2819.158,609.75641,
2816.248,613.17421,
2813.337,610.4628,
2810.427,625.26481,
2807.516,616.93266,
2804.605,633.7019,
2801.695,606.40133,
2798.784,621.914,
2795.874,606.01484,
2792.963,596.66042,
2790.052,628.86664,
2787.142,599.96704,
2784.231,611.32529,
2781.321,590.31502,
2778.410,600.60976,
2775.500,612.76776,
2772.589,612.56766,
2769.678,618.33916,
2766.768,624.55656,
2763.857,621.24494,
2760.947,635.88761,
2758.036,642.11069,
2755.126,641.16346,
2752.215,644.51149,
2749.304,646.02429,
2746.394,648.42949,
2743.483,645.62494,
2740.573,655.98783,
2737.662,650.34245,
2734.751,652.47714,
2731.841,655.25413,
2728.930,639.85386,
2726.020,652.3397,
2723.109,667.875,
2720.199,661.38434,
2717.288,670.13778,
2714.377,658.07106,
2711.467,683.6783,
2708.556,688.08763,
2705.646,681.88906,
2702.735,672.72295,
2699.825,691.27684,
2696.914,708.82774,
2694.003,692.21483,
2691.093,715.32145,
2688.182,696.0187,
2685.272,701.47671,
2682.361,700.42194,
2679.450,694.54994,
2676.540,714.50917,
2673.629,701.52071,
2670.719,710.23267,
2667.808,717.48592,
2664.898,727.75827,
2661.987,717.17497,
2659.076,707.14656,
2656.166,719.1174,
2653.255,739.31378,
2650.345,736.0583,
2647.434,742.53204,
2644.524,748.14123,
2641.613,761.50354,
2638.702,777.60672,
2635.792,755.68657,
2632.881,763.45237,
2629.971,759.51256,
2627.060,766.04156,
2624.149,763.20001,
2621.239,763.38389,
2618.328,746.31617,
2615.418,779.53864,
2612.507,778.3928,
2609.597,776.875,
2606.686,779.29066,
2603.775,789.83929,
2600.865,798.52345,
2597.954,803.97083,
2595.044,809.17881,
2592.133,809.76029,
2589.223,815.68238,
2586.312,824.60369,
2583.401,802.07937,
2580.491,816.57207,
2577.580,831.8849,
2574.670,834.27742,
2571.759,816.6173,
2568.848,830.45522,
2565.938,806.97009,
2563.027,833.82723,
2560.117,855.40773,
2557.206,857.25876,
2554.296,842.01688,
2551.385,847.9491,
2548.474,841.17091,
2545.564,854.17858,
2542.653,861.52599,
2539.743,869.71387,
2536.832,859.24323,
2533.922,874.875,
2531.011,872.95016,
2528.100,867.875,
2525.190,889.22049,
2522.279,910.17153,
2519.369,894.96939,
2516.458,879.53223,
2513.548,888.29291,
2510.637,887.75203,
2507.726,888.37315,
2504.816,893.31243,
2501.905,912.35305,
2498.995,894.94994,
2496.084,907.58229,
2493.173,910.58593,
2490.263,906.51566,
2487.352,923.4994,
2484.442,912.02704,
2481.531,918.03976,
2478.621,935.24943,
2475.710,914.25839,
2472.799,955.73608,
2469.889,940.08554,
2466.978,954.9265,
2464.068,946.34057,
2461.157,949.72978,
2458.247,980.90434,
2455.336,957.04719,
2452.425,961.35615,
2449.515,951.78147,
2446.604,982.64462,
2443.694,986.50332,
2440.783,990.82658,
2437.872,995.45844,
2434.962,1012.9764,
2432.051,1006.6834,
2429.141,1001.7043,
2426.230,974.02631,
2423.320,1018.5608,
2420.409,1023.6826,
2417.498,1030.0885,
2414.588,1042.4073,
2411.677,1022.9826,
2408.767,1028.4045,
2405.856,1029.3084,
2402.946,1025.9822,
2400.035,1049.4525,
2397.124,1037.5488,
2394.214,1045.1458,
2391.303,1048.8032,
2388.393,1050.8611,
2385.482,1058.5666,
2382.571,1069.3942,
2379.661,1054.4333,
2376.750,1078.3403,
2373.840,1101.7375,
2370.929,1083.0699,
2368.019,1100.1878,
2365.108,1107.5033,
2362.197,1096.7078,
2359.287,1114.2282,
2356.376,1125.8644,
2353.466,1097.5393,
2350.555,1130.5049,
2347.645,1130.4273,
2344.734,1123.4188,
2341.823,1149.3941,
2338.913,1138.1377,
2336.002,1158.2458,
2333.092,1150.9901,
2330.181,1159.21,
2327.270,1172.38,
2324.360,1171.1109,
2321.449,1154.6301,
2318.539,1169.8536,
2315.628,1188.4034,
2312.718,1192.4587,
2309.807,1185.5334,
2306.896,1180.1191,
2303.986,1176.5698,
2301.075,1185.3643,
2298.165,1181.4998,
2295.254,1169.0904,
2292.344,1207.9332,
2289.433,1195.6086,
2286.522,1231.357,
2283.612,1224.0331,
2280.701,1202.4894,
2277.791,1243.7147,
2274.880,1239.019,
2271.969,1244.3853,
2269.059,1278.5426,
2266.148,1257.668,
2263.238,1255.57,
2260.327,1284.1165,
2257.417,1295.1817,
2254.506,1285.3708,
2251.595,1281.3187,
2248.685,1306.4383,
2245.774,1291.9414,
2242.864,1314.6431,
2239.953,1305.9783,
2237.043,1323.6272,
2234.132,1314.9892,
2231.221,1308.5312,
2228.311,1337.5386,
2225.400,1356.3965,
2222.490,1341.9174,
2219.579,1368.654,
2216.669,1393.4203,
2213.758,1405.4005,
2210.847,1400.7541,
2207.937,1415.1014,
2205.026,1442.5424,
2202.116,1426.2349,
2199.205,1433.6999,
2196.294,1451.735,
2193.384,1482.6375,
2190.473,1479.5792,
2187.563,1489.9137,
2184.652,1507.3636,
2181.742,1572.3992,
2178.831,1618.342,
2175.920,1640.7092,
2173.010,1688.4538,
2170.099,1779.6667,
2167.189,1877.7791,
2164.278,2012.4127,
2161.368,2096.1573,
2158.457,2214.3212,
2155.546,2344.4626,
2152.636,2476.7046,
2149.725,2581.781,
2146.815,2673.2055,
2143.904,2711.7039,
2140.993,2809.5784,
2138.083,2893.9449,
2135.172,2876.4212,
2132.262,2845.8398,
2129.351,2847.4889,
2126.441,2798.0981,
2123.530,2707.3598,
2120.619,2558.6004,
2117.709,2436.5062,
2114.798,2323.2515,
2111.888,2185.5408,
2108.977,2046.4842,
2106.067,1940.3794,
2103.156,1884.5614,
2100.245,1823.8286,
2097.335,1749.0321,
2094.424,1735.2158,
2091.514,1695.5012,
2088.603,1668.8243,
2085.692,1642.0945,
2082.782,1625.7023,
2079.871,1607.9812,
2076.961,1616.9709,
2074.050,1588.8932,
2071.140,1607.7487,
2068.229,1596.7044,
2065.318,1571.0097,
2062.408,1568.6178,
2059.497,1582.869,
2056.587,1570.2356,
2053.676,1525.0442,
2050.766,1569.4101,
2047.855,1497.8116,
2044.944,1563.0769,
2042.034,1548.6321,
2039.123,1518.875,
2036.213,1528.1617,
2033.302,1545.8532,
2030.391,1532.1975,
2027.481,1550.8869,
2024.570,1536.4328,
2021.660,1560.1011,
2018.749,1532.3431,
2015.839,1526.4078,
2012.928,1572.3465,
2010.017,1562.9011,
2007.107,1560.0376,
2004.196,1572.1846,
2001.286,1569.1648,
1998.375,1536.6073,
1995.465,1529.2348,
1992.554,1533.3809,
1989.643,1548.3565,
1986.733,1524.3197,
1983.822,1547.9001,
1980.912,1529.2705,
1978.001,1510.6375,
1975.090,1528.0399,
1972.180,1539.4614,
1969.269,1519.3261,
1966.359,1516.2535,
1963.448,1515.3004,
1960.538,1525.8592,
1957.627,1477.1598,
1954.716,1503.8983,
1951.806,1537.702,
1948.895,1464.2514,
1945.985,1513.594,
1943.074,1529.1445,
1940.164,1509.7403,
1937.253,1488.658,
1934.342,1467.8921,
1931.432,1476.8024,
1928.521,1470.1859,
1925.611,1476.8489,
1922.700,1458.9233,
1919.790,1452.0137,
1916.879,1446.2935,
1913.968,1479.8332,
1911.058,1454.0462,
1908.147,1494.2253,
1905.237,1468.8383,
1902.326,1489.1387,
1899.415,1491.8433,
1896.505,1491.5677,
1893.594,1488.9634,
1890.684,1468.0582,
1887.773,1451.3834,
1884.863,1469.6313,
1881.952,1485.2449,
1879.041,1497.9529,
1876.131,1474.8149,
1873.220,1475.8485,
1870.310,1449.9558,
1867.399,1438.0349,
1864.489,1443.8486,
1861.578,1469.8364,
1858.667,1484.6205,
1855.757,1459.0779,
1852.846,1463.4134,
1849.936,1491.0141,
1847.025,1517.6925,
1844.114,1520.7337,
1841.204,1499.3086,
1838.293,1522.3659,
1835.383,1561.758,
1832.472,1556.0715,
1829.562,1536.069,
1826.651,1577.5341,
1823.740,1551.4688,
1820.830,1564.1981,
1817.919,1522.3837,
1815.009,1514.2999,
1812.098,1585.7883,
1809.188,1580.7432,
1806.277,1607.2553,
1803.366,1561.7086,
1800.456,1556.1067,
1797.545,1628.5984,
1794.635,1625.746,
1791.724,1620.4187,
1788.813,1605.685,
1785.903,1642.5029,
1782.992,1654.9733,
1780.082,1639.4775,
1777.171,1630.8696,
1774.261,1636.0605,
1771.350,1676.709,
1768.439,1679.5356,
1765.529,1679.4185,
1762.618,1680.4025,
1759.708,1699.4729,
1756.797,1720.0114,
1753.887,1709.0528,
1750.976,1692.2336,
1748.065,1692.0317,
1745.155,1678.7396,
1742.244,1706.9682,
1739.334,1720.7668,
1736.423,1742.8974,
1733.512,1737.5945,
1730.602,1754.3155,
1727.691,1793.3491,
1724.781,1826.4723,
1721.870,1838.5084,
1718.960,1839.0528,
1716.049,1821.2565,
1713.138,1796.5001,
1710.228,1818.9839,
1707.317,1806.9527,
1704.407,1898.3083,
1701.496,1861.4745,
1698.586,1910.4661,
1695.675,1876.5109,
1692.764,1941.0922,
1689.854,1930.5246,
1686.943,1925.0436,
1684.033,1966.807,
1681.122,1964.926,
1678.211,1997.5609,
1675.301,2006.8472,
1672.390,2079.1711,
1669.480,2177.2573,
1666.569,2102.4747,
1663.659,2227.708,
1660.748,2277.7015,
1657.837,2269.9466,
1654.927,2320.1945,
1652.016,2417.0208,
1649.106,2422.826,
1646.195,2421.8341,
1643.285,2463.3587,
1640.374,2570.5649,
1637.463,2604.064,
1634.553,2669.8356,
1631.642,2735.2431,
1628.732,2860.4853,
1625.821,2962.9849,
1622.911,3129.9283,
1620.000,3319.4686,
1617.089,3443.4073,
1614.179,3724.7813,
1611.268,3936.9933,
1608.358,4117.4,
1605.447,4283.3334,
1602.536,4414.0203,
1599.626,4391.5973,
1596.715,4394.3206,
1593.805,4427.0709,
1590.894,4407.0969,
1587.984,4361.4365,
1585.073,4336.157,
1582.162,4296.14,
1579.252,4256.143,
1576.341,4213.6282,
1573.431,4170.4153,
1570.520,4153.2312,
1567.610,4162.7968,
1564.699,4078.4214,
1561.788,3999.805,
1558.878,3946.7368,
1555.967,3870.7545,
1553.057,3783.7376,
1550.146,3756.1768,
1547.235,3638.4484,
1544.325,3569.0133,
1541.414,3579.875,
1538.504,3508.9703,
1535.593,3442.8488,
1532.683,3427.3368,
1529.772,3372.9443,
1526.861,3291.8724,
1523.951,3218.6299,
1521.040,3166.4316,
1518.130,3136.4329,
1515.219,3128.6758,
1512.309,3093.1858,
1509.398,3068.1488,
1506.487,3054.859,
1503.577,3067.2908,
1500.666,3030.5099,
1497.756,2992.3661,
1494.845,2949.875,
1491.934,2949.664,
1489.024,2885.177,
1486.113,2834.6598,
1483.203,2813.1116,
1480.292,2765.0554,
1477.382,2764.1492,
1474.471,2736.7146,
1471.560,2706.8307,
1468.650,2695.4586,
1465.739,2696.437,
1462.829,2686.5355,
1459.918,2662.3003,
1457.008,2686.9524,
1454.097,2690.5996,
1451.186,2655.6177,
1448.276,2667.8854,
1445.365,2666.6941,
1442.455,2634.5019,
1439.544,2625.7915,
1436.633,2644.6138,
1433.723,2681.7624,
1430.812,2648.2943,
1427.902,2590.3338,
1424.991,2567.5875,
1422.081,2568.71,
1419.170,2515.3033,
1416.259,2501.2046,
1413.349,2483.2597,
1410.438,2468.0781,
1407.528,2461.3,
1404.617,2494.5156,
1401.707,2532.6535,
1398.796,2541.0988,
1395.885,2545.5562,
1392.975,2574.8757,
1390.064,2590.2766,
1387.154,2560.3521,
1384.243,2580.9087,
1381.332,2568.0723,
1378.422,2620.6767,
1375.511,2675.01,
1372.601,2851.8949,
1369.690,2803.4405,
1366.780,2890.2953,
1363.869,3010.317,
1360.958,3081.5267,
1358.048,3189.4651,
1355.137,3238.7843,
1352.227,3289.6401,
1349.316,3365.208,
1346.406,3399.529,
1343.495,3505.234,
1340.584,3620.4469,
1337.674,3609.4207,
1334.763,3761.8285,
1331.853,3708.0491,
1328.942,3779.7005,
1326.032,3863.0965,
1323.121,3976.9413,
1320.210,3977.579,
1317.300,4005.7326,
1314.389,4076.4452,
1311.479,4162.8067,
1308.568,4257.843,
1305.657,4308.9749,
1302.747,4337.9525,
1299.836,4520.4746,
1296.926,4591.3608,
1294.015,4795.4507,
1291.105,4875.1989,
1288.194,4974.3342,
1285.283,5083.5114,
1282.373,5177.992,
1279.462,5286.4422,
1276.552,5401.6941,
1273.641,5494.1047,
1270.731,5534.2302,
1267.820,5540.1805,
1264.909,5624.7753,
1261.999,5564.3105,
1259.088,5521.4408,
1256.178,5463.2053,
1253.267,5357.2084,
1250.356,5249.3136,
1247.446,5072.8207,
1244.535,4907.9779,
1241.625,4739.7568,
1238.714,4551.398,
1235.804,4451.1712,
1232.893,4393.2803,
1229.982,4252.778,
1227.072,4161.3414,
1224.161,4113.6903,
1221.251,4068.6495,
1218.340,3988.5026,
1215.430,3908.3827,
1212.519,3875.1388,
1209.608,3877.1662,
1206.698,3867.7046,
1203.787,3854.9353,
1200.877,3916.9367,
1197.966,3950.2056,
1195.055,4054.2648,
1192.145,4140.2472,
1189.234,4271.8721,
1186.324,4369.0605,
1183.413,4389.3928,
1180.503,4353.6279,
1177.592,4312.1073,
1174.681,4295.1353,
1171.771,4172.6071,
1168.860,4160.997,
1165.950,4091.3404,
1163.039,4077.6686,
1160.129,4061.1793,
1157.218,4023.396,
1154.307,3991.0517,
1151.397,3977.6614,
1148.486,3957.7799,
1145.576,3928.3353,
1142.665,3915.9046,
1139.754,3870.1254,
1136.844,3828.3614,
1133.933,3805.4909,
1131.023,3781.4075,
1128.112,3774.0161,
1125.202,3771.7205,
1122.291,3705.4006,
1119.380,3771.364,
1116.470,3719.2948,
1113.559,3767.0024,
1110.649,3836.5723,
1107.738,3841.299,
1104.828,3813.8013,
1101.917,3803.5791,
1099.006,3795.8649,
1096.096,3764.9176,
1093.185,3798.2817,
1090.275,3800.875,
1087.364,3801.5611,
1084.453,3795.6879,
1081.543,3811.9096,
1078.632,3817.8776,
1075.722,3773.1914,
1072.811,3780.9848,
1069.901,3810.6756,
1066.990,3833.8916,
1064.079,3866.7761,
1061.169,3898.1009,
1058.258,3935.3197,
1055.348,3972.3421,
1052.437,3995.7464,
1049.527,4036.647,
1046.616,4056.6301,
1043.705,4131.3269,
1040.795,4129.2503,
1037.884,4135.5988,
1034.974,4164.1856,
1032.063,4182.9749,
1029.153,4194.3291,
1026.242,4206.4385,
1023.331,4254.372,
1020.421,4265.2692,
1017.510,4300.0518,
1014.600,4314.61,
1011.689,4336.6446,
1008.778,4445.1641,
1005.868,4512.0179,
1002.957,4639.3503,
1000.047,4853.2511,
997.136,5016.9105,
994.226,5115.2283,
991.315,5121.6448,
988.404,5028.4987,
985.494,4972.8611,
982.583,4882.9227,
979.673,4838.4142,
976.762,4806.9135,
973.852,4839.2861,
970.941,4903.2099,
968.030,4918.1294,
965.120,4930.5564,
962.209,4854.6801,
959.299,4849.6657,
956.388,4867.4341,
953.477,4907.2359,
950.567,4937.1566,
947.656,4908.6576,
944.746,4922.2505,
941.835,4953.6479,
938.925,4976.6682,
936.014,4983.8633,
933.103,4949.331,
930.193,4868.8981,
927.282,4793.2875,
924.372,4800.8979,
921.461,4765.055,
918.551,4661.8303,
915.640,4592.2006,
912.729,4563.0647,
909.819,4503.8775,
906.908,4526.623,
903.998,4529.4657,
901.087,4590.3431,
898.176,4625.8294,
895.266,4632.9056,
892.355,4662.8375,
889.445,4753.4783,
886.534,4722.1499,
883.624,4766.3374,
880.713,4821.4964,
877.802,4858.1702,
874.892,4874.8165,
871.981,4886.8491,
869.071,4843.4077,
866.160,4871.0629,
863.250,4869.0521,
860.339,4836.0502,
857.428,4799.3705,
854.518,4771.6343,
851.607,4763.3136,
848.697,4772.8801,
845.786,4784.1026,
842.875,4781.1363,
839.965,4772.0597,
837.054,4804.6052,
834.144,4780.5714,
831.233,4773.2085,
828.323,4718.4612,
825.412,4646.811,
822.501,4620.4071,
819.591,4673.2967,
816.680,4574.7146,
813.770,4537.9715,
810.859,4513.2766,
807.949,4474.5115,
805.038,4427.979,
802.127,4420.5708,
799.217,4423.602,
796.306,4406.1451,
793.396,4379.8062,
790.485,4359.1904,
787.574,4353.093,
784.664,4358.8337,
781.753,4345.1134,
778.843,4353.0676,
775.932,4379.06,
773.022,4407.4541,
770.111,4443.4275,
767.200,4448.1589,
764.290,4440.2068,
761.379,4414.5755,
758.469,4382.3638,
755.558,4371.319,
752.648,4319.1843,
749.737,4310.1806,
746.826,4288.9626,
743.916,4247.4007,
741.005,4191.6695,
738.095,4074.7592,
735.184,3878.5348,
732.274,3824.8073,
729.363,3927.95,
726.452,4123.8946,
723.542,4267.9666,
720.631,4297.2821,
717.721,4317.0504,
714.810,4331.8238,
711.899,4337.2413,
708.989,4325.9444,
706.078,4275.3929,
703.168,4284.1277,
700.257,4264.4567,
697.347,4237.0903,
694.436,4308.9367,
691.525,4274.373,
688.615,4276.3087,
685.704,4261.5854,
682.794,4229.4921,
679.883,4210.8297,
676.973,4187.59,
674.062,4194.9986,
671.151,4212.8333,
668.241,4242.1229,
665.330,4288.9464,
662.420,4248.2111,
659.509,4230.351,
656.598,4242.185,
653.688,4269.4759,
650.777,4284.2809,
647.867,4266.7617,
644.956,4276.4963,
642.046,4273.6808,
639.135,4272.9669,
636.224,4329.883,
633.314,4331.4708,
630.403,4331.875,
627.493,4323.0413,
624.582,4321.4116,
621.672,4377.6432,
618.761,4452.0692,
615.850,4474.875,
612.940,4465.9951,
610.029,4457.687,
607.119,4510.5923,
604.208,4539.3054,
601.297,4545.3854,
598.387,4537.5755,
595.476,4526.6522,
592.566,4524.291,
589.655,4501.8467,
586.745,4483.7994,
583.834,4465.9937,
580.923,4430.9508,
578.013,4443.5066,
575.102,4449.1694,
572.192,4454.8051,
569.281,4471.9982,
566.371,4528.3471,
563.460,4500.0125,
560.549,4502.9298,
557.639,4520.3379,
554.728,4527.2019,
551.818,4659.0753,
548.907,4646.4349,
545.996,4618.3198,
543.086,4624.9342,
540.175,4666.9811,
537.265,4666.9779,
534.354,4696.4781,
531.444,4729.6616,
528.533,4740.7929,
525.622,4795.8852,
522.712,4796.3467,
519.801,4857.9953,
516.891,4970.814,
513.980,4975.4598,
511.070,4994.188,
508.159,5089.7472,
505.248,5197.1413,
502.338,5233.8797,
499.427,5336.5334,
496.517,5414.2184,
493.606,5469.0266,
490.695,5498.0934,
487.785,5478.0788,
484.874,5474.875,
481.964,5474.875,
479.053,5482.2293,
476.143,5512.9478,
473.232,5486.8183,
470.321,5463.224,
467.411,5434.6794,
464.500,5391.7562,
461.590,5466.033,
458.679,5472.017,
455.769,5489.491,
452.858,5554.5113,
449.947,5560.6227,
447.037,5567.9426,
444.126,5604.4083,
441.216,5663.9759,
438.305,5687.5958,
435.395,5692.8419,
432.484,5710.1283,
429.573,5732.3425,
426.663,5730.0621,
423.752,5735.4544,
420.842,5809.5747,
417.931,5889.0573,
415.020,5868.5817,
412.110,5948.3524,
409.199,5991.0779,
406.289,6016.436,
403.378,6051.6803,
400.468,5994.2248,
397.557,5981.0165,
394.646,6000.1503,
391.736,6038.3438,
388.825,6021.7507,
385.915,5934.9172,
383.004,5907.4198,
380.094,6021.4855,
377.183,6072.6538,
374.272,6142.2386,
371.362,6212.7155,
368.451,6271.4251,
365.541,6296.9433,
362.630,6302.2363,
359.719,6313.3056,
356.809,6344.189,
353.898,6365.9041,
350.988,6372.96,
348.077,6379.1024,
345.167,6393.4265,
342.256,6424.0563,
339.345,6431.8121,
336.435,6432.5406,
333.524,6437.3213,
330.614,6451.4792,
327.703,6489.7597,
324.793,6513.6257,
321.882,6490.0012,
318.971,6542.0422,
316.061,6553.0386,
313.150,6558.1154,
310.240,6597.4476,
307.329,6684.6314,
304.418,6653.6737,
301.508,6574.1027,
298.597,6567.4389,
295.687,6630.5356,
292.776,6672.5417,
289.866,6726.7078,
286.955,6906.2181,
284.044,7068.4949,
281.134,7232.6709,
278.223,7395.8444,
275.313,7525.531,
272.402,7615.0316,
269.492,7733.068,
266.581,7896.8132,
263.670,7979.8886,
260.760,8079.0982,
257.849,8168.1485,
254.939,8226.1253,
252.028,8271.0295,
249.117,8279.1953,
246.207,8299.1807,
243.296,8416.3066,
240.386,8445.1998,
237.475,8426.2135,
234.565,8376.6985,
231.654,8343.8312,
228.743,8235.6102,
225.833,8143.8008,
222.922,8105.1808,
220.012,8111.7378,
217.101,8117.8007,
214.191,8116.8481,
211.280,8100.1165,
208.369,8067.9256,
205.459,8043.293,
202.548,8050.3096,
199.638,8174.3956,
196.727,8210.8231,
193.816,8191.4819,
190.906,8129.3733,
187.995,8172.0907,
185.085,8216.6649,
182.174,8242.2355,
179.264,8214.0477,
176.353,8285.2054,
173.442,8321.4366,
170.532,8307.0026,
167.621,8265.186,
164.711,8163.4774,
161.800,7970.7894,
158.890,7645.4725,
155.979,7190.9747,
153.068,6619.9784,
150.158,5928.2981,
147.247,5066.7554,
144.337,4203.4773,
141.426,3339.6718,
138.516,2475.8179,
135.605,1771.3835,
132.694,1210.6666,
129.784,786.72631,
126.873,524.27365,
123.963,357.63004,
121.052,242.69621,
118.141,169.1643,
115.231,138.32047,
112.320,111.47138,
109.410,89.28425,
106.499,75.753301,
103.589,73.435254,
100.678,71.702026,
97.767,66.014526,
94.857,56.173153,
91.946,49.859446,
89.036,46.084715,
86.125,41.120278,
83.215,37.751319,
80.304,35.396135,
77.393,33.979795,
74.483,34.530135,
71.572,32.700887,
68.662,28.736465,
65.751,27.323563,
62.840,26.875,
59.930,27.436859,
57.019,29.552105,
54.109,25.694874,
51.198,22.271781,
48.288,20.835363,
45.377,15.911716,
42.466,19.646071,
39.556,27.06917,
36.645,22.153838,
33.735,19.317255,
30.824,16.549678,
27.914,12.342627,
25.003,16.8561,
22.092,16.32305,
19.182,8.9894143,
16.271,12.486865,
13.361,39.583937,
10.450,49.514961,
7.539,-97.829581,
4.629,-385.50996,
1.718,-687.33264,
-1.192,-909.72175,
-4.103,-662.24305,
-7.013,-336.97817,
-9.924,-0.125,
