,PLBFB8~1,
Wavenumbers [1/cm],Intensity,
3014.167,2.125,
3011.256,-1.5749356,
3008.346,228.87353,
3005.435,258.5879,
3002.525,265.125,
2999.614,286.02631,
2996.704,290.08067,
2993.793,304.14343,
2990.882,305.37683,
2987.972,301.22085,
2985.061,328.54866,
2982.151,331.19894,
2979.240,349.69345,
2976.329,337.8709,
2973.419,384.51011,
2970.508,383.24156,
2967.598,390.83825,
2964.687,398.97486,
2961.777,379.6973,
2958.866,407.78771,
2955.955,416.16039,
2953.045,414.62838,
2950.134,437.91217,
2947.224,441.80825,
2944.313,465.57443,
2941.403,486.11359,
2938.492,478.50709,
2935.581,475.43662,
2932.671,469.36535,
2929.760,478.07501,
2926.850,483.17726,
2923.939,494.08293,
2921.028,501.125,
2918.118,509.74591,
2915.207,521.83392,
2912.297,517.15885,
2909.386,519.32208,
2906.476,513.28793,
2903.565,506.70574,
2900.654,521.64166,
2897.744,497.32616,
2894.833,511.06318,
2891.923,499.2051,
2889.012,464.95737,
2886.102,452.41961,
2883.191,424.14199,
2880.280,282.91921,
2877.370,72.747455,
2874.459,-60.396319,
2871.549,190.48195,
2868.638,422.0919,
2865.727,472.70957,
2862.817,508.61162,
2859.906,510.125,
2856.996,527.04801,
2854.085,528.28043,
2851.175,553.31773,
2848.264,561.272,
2845.353,552.14657,
2842.443,555.92013,
2839.532,561.67723,
2836.622,561.73177,
2833.711,556.18464,
2830.801,552.62132,
2827.890,564.60226,
2824.979,565.39693,
2822.069,576.14774,
2819.158,574.32446,
2816.248,592.77947,
2813.337,599.125,
2810.427,598.16908,
2807.516,583.6575,
2804.605,606.75962,
2801.695,610.29605,
2798.784,590.52954,
2795.874,581.11972,
2792.963,587.41074,
2790.052,576.12757,
2787.142,586.17746,
2784.231,578.05977,
2781.321,587.99352,
2778.410,577.34961,
2775.500,574.63707,
2772.589,585.04854,
2769.678,600.01575,
2766.768,597.76188,
2763.857,599.28493,
2760.947,603.04304,
2758.036,596.05497,
2755.126,613.54808,
2752.215,626.52953,
2749.304,618.14659,
2746.394,605.39515,
2743.483,604.62502,
2740.573,604.56086,
2737.662,617.24186,
2734.751,622.24149,
2731.841,632.04442,
2728.930,601.41298,
2726.020,624.7934,
2723.109,644.74325,
2720.199,631.84996,
2717.288,637.03741,
2714.377,641.34992,
2711.467,649.45248,
2708.556,663.99742,
2705.646,689.85747,
2702.735,655.15079,
2699.825,671.32133,
2696.914,661.31545,
2694.003,669.538,
2691.093,681.35725,
2688.182,674.96055,
2685.272,651.9927,
2682.361,678.81932,
2679.450,659.92339,
2676.540,680.36889,
2673.629,689.13847,
2670.719,683.76733,
2667.808,668.90317,
2664.898,678.16391,
2661.987,696.4253,
2659.076,686.30389,
2656.166,693.91712,
2653.255,706.98044,
2650.345,716.72573,
2647.434,725.61057,
2644.524,718.58063,
2641.613,721.61086,
2638.702,713.29859,
2635.792,732.47294,
2632.881,720.33299,
2629.971,709.82283,
2627.060,727.12625,
2624.149,725.85311,
2621.239,731.61611,
2618.328,733.20977,
2615.418,739.77046,
2612.507,739.81673,
2609.597,706.87949,
2606.686,745.39808,
2603.775,727.40277,
2600.865,749.94079,
2597.954,747.98745,
2595.044,771.73262,
2592.133,765.55792,
2589.223,737.96814,
2586.312,773.125,
2583.401,777.61407,
2580.491,768.60581,
2577.580,800.1052,
2574.670,785.63436,
2571.759,775.82192,
2568.848,773.125,
2565.938,779.22009,
2563.027,796.19775,
2560.117,806.37737,
2557.206,781.67482,
2554.296,812.80463,
2551.385,797.63711,
2548.474,818.16218,
2545.564,828.87176,
2542.653,824.06124,
2539.743,835.14965,
2536.832,822.55303,
2533.922,827.23538,
2531.011,825.8757,
2528.100,802.52569,
2525.190,828.79508,
2522.279,830.04635,
2519.369,812.35116,
2516.458,812.67387,
2513.548,809.97948,
2510.637,809.4939,
2507.726,821.0581,
2504.816,842.00099,
2501.905,829.45854,
2498.995,861.28893,
2496.084,845.97865,
2493.173,841.125,
2490.263,827.5634,
2487.352,871.29353,
2484.442,892.14429,
2481.531,879.75795,
2478.621,859.09174,
2475.710,894.94864,
2472.799,875.82451,
2469.889,889.06406,
2466.978,885.35186,
2464.068,900.36316,
2461.157,900.66496,
2458.247,902.00729,
2455.336,895.78449,
2452.425,897.90802,
2449.515,902.35162,
2446.604,907.59968,
2443.694,909.84624,
2440.783,925.84122,
2437.872,927.34379,
2434.962,932.59966,
2432.051,936.4893,
2429.141,937.85447,
2426.230,922.10287,
2423.320,946.13967,
2420.409,936.55436,
2417.498,954.9031,
2414.588,955.22008,
2411.677,963.51944,
2408.767,971.59547,
2405.856,952.86792,
2402.946,958.60757,
2400.035,977.01468,
2397.124,967.31753,
2394.214,957.12779,
2391.303,962.83232,
2388.393,974.49251,
2385.482,919.1212,
2382.571,902.77032,
2379.661,926.38054,
2376.750,982.22334,
2373.840,1000.2031,
2370.929,1016.9301,
2368.019,1031.7032,
2365.108,1031.358,
2362.197,1025.3332,
2359.287,1034.5033,
2356.376,1032.1338,
2353.466,1044.8237,
2350.555,1027.8153,
2347.645,1044.0853,
2344.734,1040.6089,
2341.823,1054.8597,
2338.913,1049.6504,
2336.002,1083.192,
2333.092,1081.0099,
2330.181,1088.6339,
2327.270,1087.235,
2324.360,1101.2005,
2321.449,1097.1386,
2318.539,1069.5287,
2315.628,1078.3764,
2312.718,1071.7594,
2309.807,1099.5102,
2306.896,1096.4161,
2303.986,1126.0472,
2301.075,1126.2314,
2298.165,1110.3364,
2295.254,1094.4481,
2292.344,1127.7599,
2289.433,1114.7891,
2286.522,1125.4196,
2283.612,1150.6161,
2280.701,1145.8739,
2277.791,1152.7681,
2274.880,1185.2771,
2271.969,1160.125,
2269.059,1172.9724,
2266.148,1161.9681,
2263.238,1169.4184,
2260.327,1179.9181,
2257.417,1180.4461,
2254.506,1178.9882,
2251.595,1167.405,
2248.685,1195.6941,
2245.774,1190.6087,
2242.864,1203.7459,
2239.953,1224.1664,
2237.043,1212.9561,
2234.132,1215.5302,
2231.221,1231.2052,
2228.311,1216.1186,
2225.400,1228.8568,
2222.490,1257.8384,
2219.579,1283.3564,
2216.669,1282.7132,
2213.758,1303.9146,
2210.847,1290.4651,
2207.937,1300.3514,
2205.026,1316.013,
2202.116,1335.9785,
2199.205,1327.9499,
2196.294,1354.9769,
2193.384,1380.809,
2190.473,1380.5511,
2187.563,1401.2362,
2184.652,1431.6556,
2181.742,1482.1033,
2178.831,1498.9265,
2175.920,1541.0066,
2173.010,1624.604,
2170.099,1711.7173,
2167.189,1804.5699,
2164.278,1880.3582,
2161.368,1994.5498,
2158.457,2104.0498,
2155.546,2220.1213,
2152.636,2370.8003,
2149.725,2506.8296,
2146.815,2592.8225,
2143.904,2678.2625,
2140.993,2779.8339,
2138.083,2822.0551,
2135.172,2843.5452,
2132.262,2854.3768,
2129.351,2815.8558,
2126.441,2736.8627,
2123.530,2661.9128,
2120.619,2534.3461,
2117.709,2380.9205,
2114.798,2264.0706,
2111.888,2103.2035,
2108.977,1956.2839,
2106.067,1855.9715,
2103.156,1760.5793,
2100.245,1673.1043,
2097.335,1630.4915,
2094.424,1559.8857,
2091.514,1529.8075,
2088.603,1479.9729,
2085.692,1467.7571,
2082.782,1440.8681,
2079.871,1411.9453,
2076.961,1411.8021,
2074.050,1425.3311,
2071.140,1391.2513,
2068.229,1394.4037,
2065.318,1386.7422,
2062.408,1372.3368,
2059.497,1362.9345,
2056.587,1377.4737,
2053.676,1376.4087,
2050.766,1372.3559,
2047.855,1385.1282,
2044.944,1356.0465,
2042.034,1381.9631,
2039.123,1359.7445,
2036.213,1349.3761,
2033.302,1351.9075,
2030.391,1353.6845,
2027.481,1341.1983,
2024.570,1354.1389,
2021.660,1390.0555,
2018.749,1382.9853,
2015.839,1358.0259,
2012.928,1377.1485,
2010.017,1370.7602,
2007.107,1399.125,
2004.196,1394.5178,
2001.286,1378.6445,
1998.375,1356.5118,
1995.465,1322.5938,
1992.554,1341.4189,
1989.643,1342.2287,
1986.733,1338.1618,
1983.822,1321.2661,
1980.912,1323.036,
1978.001,1319.227,
1975.090,1308.5082,
1972.180,1316.0904,
1969.269,1322.2198,
1966.359,1325.4763,
1963.448,1273.2584,
1960.538,1314.1767,
1957.627,1302.2674,
1954.716,1307.8665,
1951.806,1301.5224,
1948.895,1311.6756,
1945.985,1325.6528,
1943.074,1311.5641,
1940.164,1294.4708,
1937.253,1256.2252,
1934.342,1252.202,
1931.432,1278.4436,
1928.521,1309.3081,
1925.611,1257.8594,
1922.700,1252.328,
1919.790,1256.2637,
1916.879,1256.125,
1913.968,1261.1189,
1911.058,1263.0019,
1908.147,1249.1177,
1905.237,1257.1617,
1902.326,1238.9709,
1899.415,1218.2091,
1896.505,1154.9442,
1893.594,1167.744,
1890.684,1216.5824,
1887.773,1244.5643,
1884.863,1232.8015,
1881.952,1251.5122,
1879.041,1260.5861,
1876.131,1233.0649,
1873.220,1238.4569,
1870.310,1225.273,
1867.399,1258.5652,
1864.489,1286.3461,
1861.578,1265.257,
1858.667,1246.9783,
1855.757,1252.1035,
1852.846,1268.8378,
1849.936,1254.6825,
1847.025,1284.4729,
1844.114,1301.0897,
1841.204,1293.9292,
1838.293,1286.1416,
1835.383,1296.892,
1832.472,1306.4154,
1829.562,1326.6771,
1826.651,1315.1415,
1823.740,1314.7725,
1820.830,1346.1331,
1817.919,1337.0231,
1815.009,1342.5436,
1812.098,1336.9439,
1809.188,1315.4894,
1806.277,1310.2135,
1803.366,1323.125,
1800.456,1324.9386,
1797.545,1356.586,
1794.635,1364.6081,
1791.724,1388.125,
1788.813,1380.5152,
1785.903,1335.3518,
1782.992,1274.7852,
1780.082,1189.9104,
1777.171,1047.4456,
1774.261,1052.6861,
1771.350,1199.53,
1768.439,1325.4074,
1765.529,1381.5796,
1762.618,1389.855,
1759.708,1412.4295,
1756.797,1429.3523,
1753.887,1415.7649,
1750.976,1406.0733,
1748.065,1425.9437,
1745.155,1442.8733,
1742.244,1433.5444,
1739.334,1451.7744,
1736.423,1471.6035,
1733.512,1504.2308,
1730.602,1491.9365,
1727.691,1517.1344,
1724.781,1522.4055,
1721.870,1523.5393,
1718.960,1526.5917,
1716.049,1534.6758,
1713.138,1578.8748,
1710.228,1560.8864,
1707.317,1581.0084,
1704.407,1557.1731,
1701.496,1591.4985,
1698.586,1625.6165,
1695.675,1644.9678,
1692.764,1629.084,
1689.854,1654.9124,
1686.943,1673.5179,
1684.033,1693.6283,
1681.122,1691.176,
1678.211,1733.7158,
1675.301,1745.0911,
1672.390,1785.1699,
1669.480,1800.5502,
1666.569,1853.3662,
1663.659,1873.2029,
1660.748,1938.0286,
1657.837,1933.9998,
1654.927,1974.3433,
1652.016,2026.6558,
1649.106,2087.9292,
1646.195,2082.4987,
1643.285,2179.3073,
1640.374,2188.7138,
1637.463,2265.8812,
1634.553,2417.6915,
1631.642,2523.0914,
1628.732,2612.0968,
1625.821,2775.2539,
1622.911,2971.0149,
1620.000,3154.7942,
1617.089,3309.0404,
1614.179,3619.2135,
1611.268,3809.1356,
1608.358,4051.5597,
1605.447,4212.0976,
1602.536,4268.6512,
1599.626,4315.3618,
1596.715,4274.6525,
1593.805,4240.612,
1590.894,4193.9722,
1587.984,4140.4899,
1585.073,4069.3137,
1582.162,4019.7202,
1579.252,3954.0256,
1576.341,3927.5069,
1573.431,3946.8371,
1570.520,3961.5331,
1567.610,3896.32,
1564.699,3832.5233,
1561.788,3715.7175,
1558.878,3727.7461,
1555.967,3671.2026,
1553.057,3525.7812,
1550.146,3429.0233,
1547.235,3374.428,
1544.325,3296.5718,
1541.414,3249.8847,
1538.504,3219.3797,
1535.593,3141.0252,
1532.683,3084.7468,
1529.772,3045.1756,
1526.861,3011.2181,
1523.951,3027.6706,
1521.040,3015.4676,
1518.130,2991.198,
1515.219,2929.4055,
1512.309,2881.6519,
1509.398,2788.9102,
1506.487,2783.2355,
1503.577,2758.6268,
1500.666,2745.0204,
1497.756,2749.3789,
1494.845,2712.7231,
1491.934,2631.1407,
1489.024,2635.9532,
1486.113,2530.4224,
1483.203,2505.2498,
1480.292,2463.245,
1477.382,2456.9332,
1474.471,2381.1545,
1471.560,2352.3197,
1468.650,2330.3101,
1465.739,2321.125,
1462.829,2281.1382,
1459.918,2257.9924,
1457.008,2254.0172,
1454.097,2229.1008,
1451.186,2223.096,
1448.276,2237.8525,
1445.365,2229.3754,
1442.455,2242.3246,
1439.544,2258.0678,
1436.633,2242.3683,
1433.723,2257.0306,
1430.812,2183.6869,
1427.902,2154.1172,
1424.991,2195.8187,
1422.081,2206.2998,
1419.170,2249.464,
1416.259,2247.2143,
1413.349,2200.5658,
1410.438,2234.4098,
1407.528,2218.4317,
1404.617,2186.3824,
1401.707,2173.3555,
1398.796,2154.0201,
1395.885,2158.6212,
1392.975,2188.4166,
1390.064,2175.9412,
1387.154,2155.4338,
1384.243,2172.6761,
1381.332,2150.5917,
1378.422,2113.9987,
1375.511,2266.694,
1372.601,2423.9488,
1369.690,2446.5544,
1366.780,2538.417,
1363.869,2549.0484,
1360.958,2577.1358,
1358.048,2654.6428,
1355.137,2690.3425,
1352.227,2726.3017,
1349.316,2828.0057,
1346.406,2932.5189,
1343.495,2987.5919,
1340.584,3021.6603,
1337.674,3056.0227,
1334.763,3128.5019,
1331.853,3085.8492,
1328.942,3173.0714,
1326.032,3235.5091,
1323.121,3360.4926,
1320.210,3366.829,
1317.300,3438.6598,
1314.389,3566.9319,
1311.479,3671.6295,
1308.568,3721.1739,
1305.657,3751.2114,
1302.747,3878.8798,
1299.836,4030.6068,
1296.926,4194.9706,
1294.015,4277.7097,
1291.105,4438.742,
1288.194,4591.9176,
1285.283,4741.8335,
1282.373,4840.0154,
1279.462,4948.0843,
1276.552,5048.8259,
1273.641,5123.7712,
1270.731,5155.9548,
1267.820,5100.1393,
1264.909,5089.7083,
1261.999,5151.5258,
1259.088,5135.1076,
1256.178,5065.6085,
1253.267,4953.6224,
1250.356,4792.415,
1247.446,4632.7283,
1244.535,4455.1074,
1241.625,4247.6401,
1238.714,4062.7798,
1235.804,3922.1593,
1232.893,3747.8846,
1229.982,3702.6531,
1227.072,3659.1982,
1224.161,3550.2215,
1221.251,3489.177,
1218.340,3456.3385,
1215.430,3388.3188,
1212.519,3334.7864,
1209.608,3321.1006,
1206.698,3310.6357,
1203.787,3311.3461,
1200.877,3309.5767,
1197.966,3349.1397,
1195.055,3443.2759,
1192.145,3565.8158,
1189.234,3671.8434,
1186.324,3722.1262,
1183.413,3766.5717,
1180.503,3797.6465,
1177.592,3769.1754,
1174.681,3752.0702,
1171.771,3722.7032,
1168.860,3661.0801,
1165.950,3663.1879,
1163.039,3654.649,
1160.129,3663.6917,
1157.218,3623.1285,
1154.307,3563.1886,
1151.397,3564.8556,
1148.486,3589.2835,
1145.576,3536.4267,
1142.665,3474.2728,
1139.754,3475.634,
1136.844,3457.5165,
1133.933,3399.8585,
1131.023,3400.0601,
1128.112,3433.7686,
1125.202,3401.1782,
1122.291,3338.024,
1119.380,3400.0644,
1116.470,3393.8867,
1113.559,3387.7123,
1110.649,3377.612,
1107.738,3343.1192,
1104.828,3327.1114,
1101.917,3331.3613,
1099.006,3312.5063,
1096.096,3331.5124,
1093.185,3305.1723,
1090.275,3355.7276,
1087.364,3403.1173,
1084.453,3443.311,
1081.543,3470.013,
1078.632,3490.1536,
1075.722,3513.4414,
1072.811,3516.8291,
1069.901,3484.5184,
1066.990,3487.7833,
1064.079,3478.2368,
1061.169,3456.556,
1058.258,3454.1356,
1055.348,3465.3035,
1052.437,3460.5527,
1049.527,3482.89,
1046.616,3476.8082,
1043.705,3499.248,
1040.795,3469.0917,
1037.884,3491.6184,
1034.974,3548.6495,
1032.063,3568.3559,
1029.153,3558.1104,
1026.242,3599.6283,
1023.331,3609.4578,
1020.421,3648.0714,
1017.510,3659.0825,
1014.600,3667.8129,
1011.689,3682.2743,
1008.778,3686.5607,
1005.868,3754.1443,
1002.957,3867.7111,
1000.047,3986.317,
997.136,4197.9734,
994.226,4314.3251,
991.315,4304.0804,
988.404,4288.0457,
985.494,4240.0126,
982.583,4190.3323,
979.673,4200.6845,
976.762,4246.4608,
973.852,4278.9871,
970.941,4267.9349,
968.030,4242.0038,
965.120,4326.1859,
962.209,4340.6791,
959.299,4348.0827,
956.388,4352.9248,
953.477,4361.2904,
950.567,4366.9879,
947.656,4361.2445,
944.746,4385.0321,
941.835,4391.7937,
938.925,4367.461,
936.014,4356.1483,
933.103,4342.2358,
930.193,4300.3406,
927.282,4245.5504,
924.372,4179.593,
921.461,4140.1962,
918.551,4087.8787,
915.640,4001.1825,
912.729,3912.854,
909.819,3882.7922,
906.908,3887.8468,
903.998,3887.3296,
901.087,3897.3091,
898.176,3920.7812,
895.266,3954.0906,
892.355,3980.6697,
889.445,3962.2058,
886.534,4029.7496,
883.624,4111.7539,
880.713,4149.2078,
877.802,4123.5967,
874.892,4005.4333,
871.981,3723.9291,
869.071,3588.5922,
866.160,3695.5274,
863.250,3897.2324,
860.339,4016.3858,
857.428,3993.1075,
854.518,3973.7178,
851.607,3890.5109,
848.697,3733.7469,
845.786,3651.4802,
842.875,3700.4906,
839.965,3849.9656,
837.054,3977.0413,
834.144,3969.5825,
831.233,3947.4598,
828.323,3953.4459,
825.412,3928.9137,
822.501,3839.2951,
819.591,3823.5936,
816.680,3742.1954,
813.770,3679.5228,
810.859,3659.9911,
807.949,3657.4786,
805.038,3626.3506,
802.127,3578.6093,
799.217,3555.4902,
796.306,3568.99,
793.396,3565.4378,
790.485,3528.7547,
787.574,3503.5226,
784.664,3566.6712,
781.753,3624.4229,
778.843,3668.1985,
775.932,3698.4582,
773.022,3716.491,
770.111,3712.4031,
767.200,3654.2653,
764.290,3614.7435,
761.379,3593.6109,
758.469,3578.4285,
755.558,3553.1007,
752.648,3552.2861,
749.737,3515.5688,
746.826,3488.1992,
743.916,3463.2092,
741.005,3408.7361,
738.095,3290.2021,
735.184,3170.2962,
732.274,3148.635,
729.363,3246.1392,
726.452,3410.1648,
723.542,3454.6814,
720.631,3532.0498,
717.721,3568.8733,
714.810,3580.267,
711.899,3588.7092,
708.989,3616.9516,
706.078,3661.1967,
703.168,3625.9762,
700.257,3568.0701,
697.347,3523.995,
694.436,3510.2161,
691.525,3550.4064,
688.615,3534.5975,
685.704,3516.2398,
682.794,3532.6567,
679.883,3601.6472,
676.973,3568.791,
674.062,3597.8576,
671.151,3608.0434,
668.241,3582.4978,
665.330,3541.4065,
662.420,3526.2306,
659.509,3535.1887,
656.598,3529.1425,
653.688,3540.6503,
650.777,3635.612,
647.867,3620.4817,
644.956,3581.8334,
642.046,3504.5688,
639.135,3454.2126,
636.224,3559.942,
633.314,3523.4208,
630.403,3529.4965,
627.493,3547.8065,
624.582,3560.4781,
621.672,3562.0621,
618.761,3516.5286,
615.850,3529.6744,
612.940,3564.4202,
610.029,3587.862,
607.119,3586.2827,
604.208,3540.6842,
601.297,3517.1398,
598.387,3516.7111,
595.476,3531.0219,
592.566,3561.7175,
589.655,3510.7586,
586.745,3464.5021,
583.834,3444.7838,
580.923,3446.907,
578.013,3410.8092,
575.102,3415.4647,
572.192,3442.9174,
569.281,3479.452,
566.371,3514.6701,
563.460,3471.5641,
560.549,3470.6416,
557.639,3501.4047,
554.728,3535.2291,
551.818,3584.389,
548.907,3614.6262,
545.996,3624.0147,
543.086,3620.8026,
540.175,3628.5891,
537.265,3647.9563,
534.354,3668.6706,
531.444,3676.8305,
528.533,3665.0012,
525.622,3691.3834,
522.712,3749.9125,
519.801,3799.4002,
516.891,3831.4807,
513.980,3867.8726,
511.070,3910.5685,
508.159,3952.436,
505.248,4013.1728,
502.338,4115.6268,
499.427,4235.2607,
496.517,4272.2159,
493.606,4303.0443,
490.695,4359.8695,
487.785,4386.8121,
484.874,4395.0023,
481.964,4384.6667,
479.053,4357.1967,
476.143,4315.7267,
473.232,4308.0892,
470.321,4287.1485,
467.411,4293.4641,
464.500,4370.8729,
461.590,4360.9183,
458.679,4417.5568,
455.769,4484.3987,
452.858,4524.2045,
449.947,4524.9685,
447.037,4576.6996,
444.126,4631.9371,
441.216,4673.2259,
438.305,4696.8458,
435.395,4712.5821,
432.484,4729.9606,
429.573,4725.5998,
426.663,4641.9843,
423.752,4382.6593,
420.842,4054.3724,
417.931,3793.0477,
415.020,3789.2559,
412.110,4389.0478,
409.199,4724.0393,
406.289,4832.318,
403.378,4795.9713,
400.468,4750.6117,
397.557,4794.2239,
394.646,4902.9941,
391.736,5048.5214,
388.825,5029.6656,
385.915,5021.9962,
383.004,5038.1142,
380.094,5085.6587,
377.183,5135.3221,
374.272,5188.2052,
371.362,5217.5931,
368.451,5212.6811,
365.541,5271.2229,
362.630,5337.9254,
359.719,5378.0532,
356.809,5371.3579,
353.898,5342.1548,
350.988,5354.197,
348.077,5380.1277,
345.167,5399.7788,
342.256,5353.4606,
339.345,5346.5022,
336.435,5359.0648,
333.524,5376.9371,
330.614,5370.9759,
327.703,5397.8757,
324.793,5426.1562,
321.882,5429.2854,
318.971,5495.4519,
316.061,5542.0524,
313.150,5582.5988,
310.240,5632.3205,
307.329,5700.5862,
304.418,5731.6845,
301.508,5721.3711,
298.597,5662.1378,
295.687,5586.0148,
292.776,5600.4586,
289.866,5686.3408,
286.955,5772.7717,
284.044,5865.4524,
281.134,5932.4908,
278.223,5968.095,
275.313,5974.7267,
272.402,5976.7059,
269.492,5964.134,
266.581,5934.9163,
263.670,5918.0072,
260.760,6016.0345,
257.849,6124.2395,
254.939,6164.603,
252.028,6241.8526,
249.117,6273.4091,
246.207,6269.3062,
243.296,6242.9529,
240.386,6310.6481,
237.475,6361.9557,
234.565,6380.5589,
231.654,6357.9171,
228.743,6332.4117,
225.833,6324.1376,
222.922,6336.9994,
220.012,6269.9723,
217.101,6291.308,
214.191,6333.5023,
211.280,6324.7727,
208.369,6324.125,
205.459,6331.3115,
202.548,6338.3645,
199.638,6316.5951,
196.727,6360.5271,
193.816,6400.6403,
190.906,6411.5059,
187.995,6422.3663,
185.085,6414.7765,
182.174,6428.5693,
179.264,6526.1427,
176.353,6567.8824,
173.442,6575.6985,
170.532,6549.6322,
167.621,6468.162,
164.711,6368.8665,
161.800,6191.4801,
158.890,5876.2394,
155.979,5642.7019,
153.068,5278.5698,
150.158,4782.9789,
147.247,4159.0784,
144.337,3420.6628,
141.426,2696.9288,
138.516,2049.576,
135.605,1468.6916,
132.694,1003.2648,
129.784,652.68336,
126.873,450.30162,
123.963,303.84703,
121.052,199.76213,
118.141,138.36656,
115.231,113.25504,
112.320,89.992286,
109.410,71.306868,
106.499,67.033937,
103.589,62.763473,
100.678,54.964188,
97.767,41.456374,
94.857,39.739022,
91.946,41.543665,
89.036,43.318633,
86.125,31.971349,
83.215,30.717761,
80.304,29.49124,
77.393,21.701371,
74.483,21.780135,
71.572,24.299113,
68.662,28.194267,
65.751,28.900719,
62.840,26.71649,
59.930,23.937714,
57.019,23.232632,
54.109,12.973266,
51.198,8.8394835,
48.288,15.108013,
45.377,12.997878,
42.466,12.537219,
39.556,12.31917,
36.645,7.4038384,
33.735,9.2404908,
30.824,11.683226,
27.914,10.280876,
25.003,9.5023625,
22.092,7.1875727,
19.182,2.7817571,
16.271,-7.7105949,
13.361,-33.369357,
10.450,-107.94616,
7.539,-369.81442,
4.629,-761.61076,
1.718,-1021.8978,
-1.192,-881.77172,
-4.103,-600.14644,
-7.013,-300.36147,
-9.924,-3.875,
