,PLB20C~1,
Wavenumbers [1/cm],Intensity,
3014.167,4.125,
3011.256,0.42506442,
3008.346,408.88202,
3005.435,461.5879,
3002.525,480.01258,
2999.614,508.27304,
2996.704,500.48789,
2993.793,502.34505,
2990.882,534.16312,
2987.972,552.07455,
2985.061,561.18906,
2982.151,577.19894,
2979.240,612.35502,
2976.329,618.10316,
2973.419,634.3096,
2970.508,653.6249,
2967.598,688.74267,
2964.687,687.81114,
2961.777,687.87706,
2958.866,715.12797,
2955.955,728.57852,
2953.045,746.65743,
2950.134,756.49821,
2947.224,778.9506,
2944.313,811.6193,
2941.403,817.99407,
2938.492,843.69953,
2935.581,833.15202,
2932.671,852.32673,
2929.760,857.38269,
2926.850,872.13214,
2923.939,888.36801,
2921.028,885.83096,
2918.118,906.8454,
2915.207,917.77699,
2912.297,910.18001,
2909.386,918.73813,
2906.476,911.22614,
2903.565,905.91537,
2900.654,921.02993,
2897.744,900.03699,
2894.833,885.29009,
2891.923,874.125,
2889.012,860.66835,
2886.102,835.79529,
2883.191,781.16465,
2880.280,623.40245,
2877.370,374.26495,
2874.459,235.94348,
2871.549,526.10049,
2868.638,825.23412,
2865.727,853.07879,
2862.817,917.11293,
2859.906,898.49252,
2856.996,929.53216,
2854.085,945.72373,
2851.175,958.93227,
2848.264,953.54666,
2845.353,965.52112,
2842.443,946.90968,
2839.532,987.28901,
2836.622,979.58008,
2833.711,970.02922,
2830.801,962.72206,
2827.890,984.95716,
2824.979,984.26096,
2822.069,1018.8634,
2819.158,993.08457,
2816.248,1019.5034,
2813.337,1037.2177,
2810.427,1032.9928,
2807.516,1032.7581,
2804.605,1027.2861,
2801.695,1034.2698,
2798.784,1026.6035,
2795.874,1033.8242,
2792.963,1035.9104,
2790.052,1024.1261,
2787.142,995.54608,
2784.231,1007.3501,
2781.321,1007.9422,
2778.410,1026.3496,
2775.500,1032.0616,
2772.589,980.85968,
2769.678,1037.34,
2766.768,1052.793,
2763.857,1047.9709,
2760.947,1076.6092,
2758.036,1068.195,
2755.126,1050.8793,
2752.215,1071.125,
2749.304,1087.6987,
2746.394,1053.8628,
2743.483,1085.175,
2740.573,1070.4789,
2737.662,1051.1561,
2734.751,1072.6832,
2731.841,1074.9089,
2728.930,1118.2862,
2726.020,1087.5584,
2723.109,1118.1347,
2720.199,1116.3593,
2717.288,1122.1432,
2714.377,1108.4168,
2711.467,1130.6821,
2708.556,1138.5187,
2705.646,1129.3644,
2702.735,1150.4858,
2699.825,1176.6359,
2696.914,1157.5054,
2694.003,1167.6844,
2691.093,1147.5534,
2688.182,1148.4709,
2685.272,1171.0012,
2682.361,1177.5781,
2679.450,1169.2937,
2676.540,1173.9827,
2673.629,1168.4523,
2670.719,1179.4753,
2667.808,1163.195,
2664.898,1169.9042,
2661.987,1191.9587,
2659.076,1226.3276,
2656.166,1208.7396,
2653.255,1223.8682,
2650.345,1217.125,
2647.434,1251.0681,
2644.524,1257.6502,
2641.613,1252.125,
2638.702,1236.3775,
2635.792,1253.1888,
2632.881,1262.1783,
2629.971,1217.6683,
2627.060,1247.4606,
2624.149,1243.825,
2621.239,1277.6576,
2618.328,1268.8283,
2615.418,1265.4432,
2612.507,1273.9867,
2609.597,1273.3086,
2606.686,1285.2033,
2603.775,1271.6845,
2600.865,1314.4664,
2597.954,1330.3167,
2595.044,1331.8123,
2592.133,1331.4053,
2589.223,1310.9439,
2586.312,1342.5169,
2583.401,1355.9206,
2580.491,1361.7548,
2577.580,1353.125,
2574.670,1356.7226,
2571.759,1359.5188,
2568.848,1337.6608,
2565.938,1350.7915,
2563.027,1363.3183,
2560.117,1357.6484,
2557.206,1358.9885,
2554.296,1388.3561,
2551.385,1396.497,
2548.474,1386.7915,
2545.564,1417.0487,
2542.653,1405.9136,
2539.743,1416.2359,
2536.832,1416.1867,
2533.922,1449.2196,
2531.011,1449.0755,
2528.100,1427.2609,
2525.190,1429.2402,
2522.279,1444.8905,
2519.369,1426.5409,
2516.458,1415.1392,
2513.548,1432.7432,
2510.637,1452.7398,
2507.726,1456.1919,
2504.816,1457.1893,
2501.905,1440.5311,
2498.995,1460.4985,
2496.084,1480.8985,
2493.173,1460.4402,
2490.263,1481.2256,
2487.352,1539.9147,
2484.442,1520.9537,
2481.531,1524.6943,
2478.621,1521.1772,
2475.710,1556.7646,
2472.799,1505.1923,
2469.889,1499.8203,
2466.978,1512.2899,
2464.068,1513.125,
2461.157,1542.9374,
2458.247,1556.3014,
2455.336,1533.2757,
2452.425,1566.243,
2449.515,1582.229,
2446.604,1586.2471,
2443.694,1586.102,
2440.783,1605.6993,
2437.872,1600.3283,
2434.962,1627.6596,
2432.051,1627.3166,
2429.141,1637.9897,
2426.230,1624.9725,
2423.320,1651.9972,
2420.409,1639.1695,
2417.498,1655.9705,
2414.588,1647.5775,
2411.677,1698.619,
2408.767,1666.2195,
2405.856,1688.2488,
2402.946,1678.5951,
2400.035,1692.2072,
2397.124,1694.5635,
2394.214,1682.3394,
2391.303,1678.9868,
2388.393,1681.1668,
2385.482,1640.8434,
2382.571,1626.7575,
2379.661,1664.3106,
2376.750,1710.3343,
2373.840,1713.3406,
2370.929,1779.3994,
2368.019,1781.4741,
2365.108,1775.6616,
2362.197,1770.6675,
2359.287,1773.5367,
2356.376,1775.1197,
2353.466,1768.0479,
2350.555,1798.3954,
2347.645,1821.8217,
2344.734,1812.1526,
2341.823,1819.926,
2338.913,1843.1907,
2336.002,1861.845,
2333.092,1872.1712,
2330.181,1877.2145,
2327.270,1872.6751,
2324.360,1871.099,
2321.449,1897.9549,
2318.539,1911.1281,
2315.628,1899.2529,
2312.718,1884.125,
2309.807,1890.5407,
2306.896,1934.8574,
2303.986,1928.125,
2301.075,1919.4867,
2298.165,1911.7307,
2295.254,1926.7803,
2292.344,1929.5399,
2289.433,1951.4455,
2286.522,1957.366,
2283.612,1986.8266,
2280.701,1996.9905,
2277.791,1984.2089,
2274.880,2033.483,
2271.969,2024.9357,
2269.059,2024.0623,
2266.148,2050.0933,
2263.238,2072.4184,
2260.327,2041.4009,
2257.417,2047.7344,
2254.506,2052.484,
2251.595,2051.1213,
2248.685,2054.8615,
2245.774,2101.0803,
2242.864,2059.5514,
2239.953,2081.7181,
2237.043,2092.58,
2234.132,2111.5873,
2231.221,2136.4688,
2228.311,2141.3853,
2225.400,2175.0969,
2222.490,2175.9817,
2219.579,2203.2716,
2216.669,2235.1488,
2213.758,2241.2139,
2210.847,2233.4222,
2207.937,2254.1071,
2205.026,2290.3457,
2202.116,2329.7651,
2199.205,2326.4248,
2196.294,2338.993,
2193.384,2359.335,
2190.473,2398.5863,
2187.563,2432.473,
2184.652,2502.3177,
2181.742,2515.7643,
2178.831,2608.6193,
2175.920,2702.921,
2173.010,2800.93,
2170.099,2971.575,
2167.189,3134.8713,
2164.278,3269.526,
2161.368,3509.261,
2158.457,3716.9399,
2155.546,3957.0416,
2152.636,4141.6248,
2149.725,4374.8497,
2146.815,4583.3522,
2143.904,4761.9688,
2140.993,4881.3947,
2138.083,4961.9637,
2135.172,5014.2258,
2132.262,5026.5343,
2129.351,5006.3869,
2126.441,4887.3383,
2123.530,4681.6434,
2120.619,4513.145,
2117.709,4233.9897,
2114.798,4031.3317,
2111.888,3769.6179,
2108.977,3526.2441,
2106.067,3292.5905,
2103.156,3124.1069,
2100.245,2974.078,
2097.335,2888.4077,
2094.424,2790.4983,
2091.514,2700.2377,
2088.603,2643.9545,
2085.692,2606.3891,
2082.782,2566.7476,
2079.871,2520.5159,
2076.961,2508.3833,
2074.050,2558.2765,
2071.140,2468.5958,
2068.229,2494.6758,
2065.318,2480.8527,
2062.408,2469.125,
2059.497,2443.2738,
2056.587,2430.3807,
2053.676,2427.2253,
2050.766,2401.2035,
2047.855,2362.5269,
2044.944,2346.3814,
2042.034,2386.2119,
2039.123,2423.4247,
2036.213,2417.0294,
2033.302,2414.7554,
2030.391,2403.888,
2027.481,2392.6616,
2024.570,2404.6104,
2021.660,2409.0067,
2018.749,2433.4927,
2015.839,2462.7444,
2012.928,2426.5159,
2010.017,2429.2412,
2007.107,2450.3119,
2004.196,2441.2797,
2001.286,2422.8953,
1998.375,2416.6457,
1995.465,2378.1545,
1992.554,2391.7895,
1989.643,2384.5052,
1986.733,2380.6601,
1983.822,2394.2158,
1980.912,2409.5599,
1978.001,2363.0155,
1975.090,2337.7036,
1972.180,2339.367,
1969.269,2376.2803,
1966.359,2376.3948,
1963.448,2342.7842,
1960.538,2362.2818,
1957.627,2373.4748,
1954.716,2376.0675,
1951.806,2411.5417,
1948.895,2361.6149,
1945.985,2353.4273,
1943.074,2330.638,
1940.164,2317.3461,
1937.253,2316.2771,
1934.342,2310.048,
1931.432,2281.4972,
1928.521,2284.0093,
1925.611,2279.4303,
1922.700,2249.5905,
1919.790,2250.8764,
1916.879,2306.0795,
1913.968,2274.1693,
1911.058,2312.2271,
1908.147,2262.4389,
1905.237,2284.419,
1902.326,2239.1902,
1899.415,2230.2091,
1896.505,2155.5886,
1893.594,2168.0063,
1890.684,2243.7785,
1887.773,2256.1941,
1884.863,2276.6375,
1881.952,2274.3852,
1879.041,2289.8197,
1876.131,2327.257,
1873.220,2283.5673,
1870.310,2281.6945,
1867.399,2315.5812,
1864.489,2334.1514,
1861.578,2310.4052,
1858.667,2315.7657,
1855.757,2323.5522,
1852.846,2303.6788,
1849.936,2335.4273,
1847.025,2339.3002,
1844.114,2347.1368,
1841.204,2362.7544,
1838.293,2382.6175,
1835.383,2383.846,
1832.472,2355.6241,
1829.562,2393.062,
1826.651,2369.4228,
1823.740,2395.8109,
1820.830,2406.6367,
1817.919,2405.7538,
1815.009,2444.6555,
1812.098,2443.9439,
1809.188,2437.4971,
1806.277,2420.5012,
1803.366,2441.6241,
1800.456,2472.2791,
1797.545,2490.3733,
1794.635,2478.9301,
1791.724,2517.96,
1788.813,2522.1314,
1785.903,2526.1794,
1782.992,2432.8134,
1780.082,2285.1786,
1777.171,2180.1121,
1774.261,2155.1205,
1771.350,2298.4158,
1768.439,2516.559,
1765.529,2595.8518,
1762.618,2586.3612,
1759.708,2596.4947,
1756.797,2595.375,
1753.887,2597.0492,
1750.976,2640.1976,
1748.065,2651.9084,
1745.155,2620.5768,
1742.244,2621.3541,
1739.334,2664.7297,
1736.423,2679.0054,
1733.512,2699.9543,
1730.602,2741.7858,
1727.691,2753.8927,
1724.781,2721.0888,
1721.870,2750.7538,
1718.960,2720.6579,
1716.049,2790.1496,
1713.138,2894.0446,
1710.228,2878.6646,
1707.317,2849.357,
1704.407,2838.9378,
1701.496,2899.1987,
1698.586,2938.3884,
1695.675,2986.039,
1692.764,2972.084,
1689.854,3010.3494,
1686.943,2990.867,
1684.033,3057.4113,
1681.122,3107.2924,
1678.211,3133.8775,
1675.301,3207.8968,
1672.390,3181.6962,
1669.480,3372.1491,
1666.569,3375.7217,
1663.659,3423.0069,
1660.748,3478.1303,
1657.837,3580.3218,
1654.927,3591.0228,
1652.016,3673.1381,
1649.106,3793.8067,
1646.195,3785.1291,
1643.285,3948.7175,
1640.374,3977.1982,
1637.463,4125.1603,
1634.553,4346.7653,
1631.642,4458.5029,
1628.732,4676.9915,
1625.821,4990.2637,
1622.911,5200.9304,
1620.000,5561.5391,
1617.089,5901.319,
1614.179,6278.3804,
1611.268,6690.6218,
1608.358,7033.0647,
1605.447,7352.7275,
1602.536,7400.0135,
1599.626,7472.9598,
1596.715,7519.9671,
1593.805,7473.1481,
1590.894,7430.1369,
1587.984,7335.0514,
1585.073,7267.5235,
1582.162,7210.5365,
1579.252,7059.5589,
1576.341,7000.8888,
1573.431,7025.452,
1570.520,7006.6074,
1567.610,6923.614,
1564.699,6858.2484,
1561.788,6774.1116,
1558.878,6663.8762,
1555.967,6523.722,
1553.057,6399.6774,
1550.146,6262.027,
1547.235,6129.1052,
1544.325,5987.5088,
1541.414,5876.6207,
1538.504,5790.7447,
1535.593,5715.3447,
1532.683,5614.0813,
1529.772,5516.0502,
1526.861,5498.5157,
1523.951,5496.125,
1521.040,5491.329,
1518.130,5460.3139,
1515.219,5397.8461,
1512.309,5330.8997,
1509.398,5229.4579,
1506.487,5178.7321,
1503.577,5103.9816,
1500.666,5061.2536,
1497.756,4958.6673,
1494.845,4950.0033,
1491.934,4874.9581,
1489.024,4823.9459,
1486.113,4820.2706,
1483.203,4654.0376,
1480.292,4618.7003,
1477.382,4530.4507,
1474.471,4431.085,
1471.560,4417.2843,
1468.650,4351.4311,
1465.739,4291.5839,
1462.829,4268.9632,
1459.918,4256.3901,
1457.008,4251.6481,
1454.097,4204.1362,
1451.186,4168.7498,
1448.276,4196.5422,
1445.365,4196.6258,
1442.455,4202.8452,
1439.544,4194.125,
1436.633,4194.125,
1433.723,4192.5049,
1430.812,4185.558,
1427.902,4239.6367,
1424.991,4177.0844,
1422.081,4208.1542,
1419.170,4257.7843,
1416.259,4261.0747,
1413.349,4245.0202,
1410.438,4296.1074,
1407.528,4264.1195,
1404.617,4195.5488,
1401.707,4168.0651,
1398.796,4157.6845,
1395.885,4167.7945,
1392.975,4175.5199,
1390.064,4110.5201,
1387.154,4055.4338,
1384.243,4083.1953,
1381.332,4119.8916,
1378.422,4149.1292,
1375.511,4284.9625,
1372.601,4490.792,
1369.690,4526.1267,
1366.780,4632.0896,
1363.869,4718.6961,
1360.958,4789.981,
1358.048,4893.4422,
1355.137,5002.8475,
1352.227,5102.9946,
1349.316,5247.2785,
1346.406,5368.6718,
1343.495,5383.2314,
1340.584,5508.3749,
1337.674,5531.8131,
1334.763,5680.0071,
1331.853,5703.1879,
1328.942,5839.3235,
1326.032,5946.6589,
1323.121,6041.9624,
1320.210,6180.6656,
1317.300,6298.5091,
1314.389,6458.294,
1311.479,6598.8335,
1308.568,6710.0408,
1305.657,6878.3352,
1302.747,7003.6229,
1299.836,7140.8722,
1296.926,7357.5764,
1294.015,7603.9551,
1291.105,7815.7691,
1288.194,8054.7919,
1285.283,8297.8658,
1282.373,8523.7338,
1279.462,8667.6729,
1276.552,8811.2199,
1273.641,8929.9579,
1270.731,8930.5399,
1267.820,8922.5751,
1264.909,8989.4877,
1261.999,8991.2928,
1259.088,8968.4898,
1256.178,8787.2692,
1253.267,8668.1303,
1250.356,8422.372,
1247.446,8123.9183,
1244.535,7809.7237,
1241.625,7497.9217,
1238.714,7200.4415,
1235.804,6924.8146,
1232.893,6734.538,
1229.982,6560.4385,
1227.072,6510.6463,
1224.161,6314.6496,
1221.251,6212.6082,
1218.340,6107.8529,
1215.430,6004.2177,
1212.519,5934.8453,
1209.608,5900.2656,
1206.698,5873.912,
1203.787,5836.4918,
1200.877,5801.8115,
1197.966,5909.7106,
1195.055,6106.2527,
1192.145,6234.5456,
1189.234,6430.9183,
1186.324,6604.1331,
1183.413,6650.7189,
1180.503,6616.4034,
1177.592,6597.8319,
1174.681,6561.0428,
1171.771,6520.6292,
1168.860,6585.8247,
1165.950,6552.6168,
1163.039,6497.0304,
1160.129,6486.5627,
1157.218,6423.899,
1154.307,6365.4501,
1151.397,6363.929,
1148.486,6277.978,
1145.576,6255.4993,
1142.665,6148.9497,
1139.754,6114.9025,
1136.844,6042.5962,
1133.933,5985.3862,
1131.023,5938.6876,
1128.112,5935.9068,
1125.202,5967.2168,
1122.291,5909.4875,
1119.380,5877.1077,
1116.470,5875.3426,
1113.559,5892.9097,
1110.649,5888.9572,
1107.738,5856.7983,
1104.828,5806.9107,
1101.917,5788.1731,
1099.006,5816.9295,
1096.096,5752.6514,
1093.185,5793.9175,
1090.275,5807.6455,
1087.364,5869.1316,
1084.453,5975.9949,
1081.543,6072.7445,
1078.632,6134.0483,
1075.722,6158.5249,
1072.811,6108.841,
1069.901,6175.2088,
1066.990,6087.9752,
1064.079,6002.1567,
1061.169,5953.3468,
1058.258,5954.2175,
1055.348,5985.5317,
1052.437,6013.7006,
1049.527,6043.5012,
1046.616,6079.1232,
1043.705,6124.7463,
1040.795,6105.1998,
1037.884,6130.6184,
1034.974,6181.3183,
1032.063,6192.2636,
1029.153,6192.5765,
1026.242,6271.2875,
1023.331,6255.7928,
1020.421,6289.0714,
1017.510,6338.7416,
1014.600,6418.4142,
1011.689,6503.383,
1008.778,6543.6547,
1005.868,6600.4378,
1002.957,6746.698,
1000.047,6979.5171,
997.136,7277.7848,
994.226,7475.4012,
991.315,7526.0804,
988.404,7502.1013,
985.494,7412.0728,
982.583,7320.4212,
979.673,7315.9048,
976.762,7356.6995,
973.852,7400.3634,
970.941,7406.7132,
968.030,7388.0097,
965.120,7489.0999,
962.209,7483.1321,
959.299,7473.626,
956.388,7493.0835,
953.477,7509.0699,
950.567,7518.4119,
947.656,7546.3289,
944.746,7494.506,
941.835,7563.3886,
938.925,7564.3318,
936.014,7573.8289,
933.103,7567.8208,
930.193,7500.1554,
927.282,7395.8171,
924.372,7316.3301,
921.461,7224.3846,
918.551,7083.0049,
915.640,6954.5313,
912.729,6880.1958,
909.819,6837.7787,
906.908,6721.5241,
903.998,6718.3065,
901.087,6742.6757,
898.176,6798.1182,
895.266,6855.8688,
892.355,6895.7316,
889.445,6973.7834,
886.534,7050.0983,
883.624,7128.3712,
880.713,7230.0645,
877.802,7219.9619,
874.892,7003.8148,
871.981,6691.0549,
869.071,6476.3538,
866.160,6619.8944,
863.250,6838.9903,
860.339,7009.9457,
857.428,7088.4901,
854.518,7067.2756,
851.607,6865.0827,
848.697,6654.0438,
845.786,6597.4785,
842.875,6699.1716,
839.965,6859.9797,
837.054,6914.7111,
834.144,6966.9225,
831.233,7029.7879,
828.323,6989.8524,
825.412,6890.8946,
822.501,6816.4865,
819.591,6768.5553,
816.680,6638.9197,
813.770,6558.2578,
810.859,6456.4752,
807.949,6349.6591,
805.038,6293.3595,
802.127,6229.1556,
799.217,6226.852,
796.306,6194.6383,
793.396,6181.5831,
790.485,6206.3895,
787.574,6227.2148,
784.664,6255.9187,
781.753,6310.7778,
778.843,6377.7622,
775.932,6458.2355,
773.022,6524.5433,
770.111,6430.5218,
767.200,6386.8207,
764.290,6385.5268,
761.379,6362.0095,
758.469,6314.9621,
755.558,6314.8184,
752.648,6204.0324,
749.737,6198.4447,
746.826,6196.4019,
743.916,6114.598,
741.005,5926.3213,
738.095,5848.3811,
735.184,5676.8064,
732.274,5659.4558,
729.363,5779.458,
726.452,5958.2908,
723.542,6103.1722,
720.631,6189.108,
717.721,6274.4195,
714.810,6299.949,
711.899,6288.9469,
708.989,6382.5501,
706.078,6363.0924,
703.168,6328.9784,
700.257,6300.6358,
697.347,6269.5182,
694.436,6206.9542,
691.525,6237.4988,
688.615,6228.4022,
685.704,6216.9665,
682.794,6236.5928,
679.883,6311.5307,
676.973,6342.7841,
674.062,6354.8677,
671.151,6366.0149,
668.241,6350.8707,
665.330,6268.5745,
662.420,6235.8265,
659.509,6257.6969,
656.598,6279.7507,
653.688,6320.0211,
650.777,6432.7442,
647.867,6509.988,
644.956,6411.9631,
642.046,6269.8141,
639.135,6178.3478,
636.224,6213.2921,
633.314,6246.6375,
630.403,6229.7029,
627.493,6206.748,
624.582,6196.0061,
621.672,6186.5022,
618.761,6216.5226,
615.850,6207.9424,
612.940,6228.9861,
610.029,6294.0478,
607.119,6269.5693,
604.208,6233.0444,
601.297,6231.5879,
598.387,6241.5453,
595.476,6234.0108,
592.566,6222.2048,
589.655,6211.0545,
586.745,6166.6339,
583.834,6124.1279,
580.923,6155.6132,
578.013,6070.8619,
575.102,6088.2762,
572.192,6160.9991,
569.281,6240.0934,
566.371,6251.0501,
563.460,6264.118,
560.549,6244.7611,
557.639,6235.7759,
554.728,6285.2638,
551.818,6350.8103,
548.907,6387.0639,
545.996,6389.8501,
543.086,6378.5,
540.175,6408.0885,
537.265,6402.8822,
534.354,6448.789,
531.444,6509.1073,
528.533,6543.6567,
525.622,6593.3173,
522.712,6656.9125,
519.801,6740.7694,
516.891,6825.0376,
513.980,6844.395,
511.070,6974.3162,
508.159,7079.7022,
505.248,7178.6866,
502.338,7309.1297,
499.427,7411.7834,
496.517,7494.5593,
493.606,7555.2956,
490.695,7602.5723,
487.785,7684.9399,
484.874,7683.9081,
481.964,7665.743,
479.053,7658.847,
476.143,7691.1015,
473.232,7601.0413,
470.321,7610.8632,
467.411,7653.3,
464.500,7637.851,
461.590,7706.0019,
458.679,7776.8527,
455.769,7860.0833,
452.858,7951.0338,
449.947,7969.3682,
447.037,8065.9594,
444.126,8153.1129,
441.216,8206.6654,
438.305,8250.0955,
435.395,8271.8603,
432.484,8332.6358,
429.573,8380.9197,
426.663,8272.9797,
423.752,7923.7845,
420.842,7468.3186,
417.931,7129.9205,
415.020,7227.7487,
412.110,7983.9549,
409.199,8459.6358,
406.289,8646.2328,
403.378,8578.8253,
400.468,8490.374,
397.557,8582.9501,
394.646,8747.762,
391.736,8884.1592,
388.825,8853.99,
385.915,8846.1894,
383.004,8860.8311,
380.094,8902.2654,
377.183,9042.226,
374.272,9167.4271,
371.362,9239.242,
368.451,9240.9547,
365.541,9303.9997,
362.630,9386.6739,
359.719,9419.2234,
356.809,9368.7561,
353.898,9395.7129,
350.988,9446.5239,
348.077,9463.6676,
345.167,9420.1362,
342.256,9499.3254,
339.345,9472.7018,
336.435,9435.7872,
333.524,9454.0175,
330.614,9482.3335,
327.703,9500.8797,
324.793,9550.3404,
321.882,9666.3323,
318.971,9751.8282,
316.061,9815.307,
313.150,9875.3749,
310.240,9953.2971,
307.329,10106.199,
304.418,10150.623,
301.508,10114.993,
298.597,10050.576,
295.687,10060.702,
292.776,10095.208,
289.866,10158.658,
286.955,10279.809,
284.044,10414.77,
281.134,10531.262,
278.223,10625.628,
275.313,10711.103,
272.402,10763.979,
269.492,10727.972,
266.581,10597.491,
263.670,10616.606,
260.760,10801.825,
257.849,11037.724,
254.939,11242.477,
252.028,11227.753,
249.117,11227.521,
246.207,11248.763,
243.296,11301.469,
240.386,11442.947,
237.475,11540.481,
234.565,11576.984,
231.654,11550.69,
228.743,11538.796,
225.833,11563.09,
222.922,11629.872,
220.012,11645.901,
217.101,11668.3,
214.191,11705.358,
211.280,11769.375,
208.369,11733.756,
205.459,11759.24,
202.548,11825.621,
199.638,11816.913,
196.727,11877.356,
193.816,11884.594,
190.906,11798.629,
187.995,11898.545,
185.085,11918.466,
182.174,11917.404,
179.264,11973.78,
176.353,12031.387,
173.442,12080.066,
170.532,12098.66,
167.621,11957.348,
164.711,11761.455,
161.800,11453.725,
158.890,10969.349,
155.979,10379.184,
153.068,9614.4238,
150.158,8667.971,
147.247,7479.76,
144.337,6189.0687,
141.426,4902.92,
138.516,3671.3008,
135.605,2606.5385,
132.694,1788.3008,
129.784,1187.0779,
126.873,786.60524,
123.963,534.97303,
121.052,368.44753,
118.141,273.49857,
115.231,212.01595,
112.320,169.33229,
109.410,139.53443,
106.499,110.33607,
103.589,107.48653,
100.678,102.79121,
97.767,83.595899,
94.857,80.353044,
91.946,79.125,
89.036,76.867042,
86.125,62.682936,
83.215,59.125,
80.304,59.364433,
77.393,60.072603,
74.483,54.228785,
71.572,49.313239,
68.662,45.84793,
65.751,43.022126,
62.840,39.234788,
59.930,37.810576,
57.019,44.156314,
54.109,34.376105,
51.198,27.728219,
48.288,29.119338,
45.377,28.415959,
42.466,24.827245,
39.556,20.700593,
36.645,24.211544,
33.735,23.567255,
30.824,21.683226,
27.914,20.280876,
25.003,21.992912,
22.092,20.218859,
19.182,13.873289,
16.271,6.1788971,
13.361,-57.986407,
10.450,-213.74848,
7.539,-631.34106,
4.629,-1129.184,
1.718,-1448.1181,
-1.192,-1298.9292,
-4.103,-830.80725,
-7.013,-377.91901,
-9.924,-4.875,
