,PL57AE~1,
Raman shift [1/cm],Intensity,
3014.167,3.125,
3011.256,1.125,
3008.346,69.451492,
3005.435,77.934189,
3002.525,88.295022,
2999.614,88.461355,
2996.704,82.443557,
2993.793,97.753456,
2990.882,100.77382,
2987.972,85.276349,
2985.061,114.68165,
2982.151,115.88635,
2979.240,109.85884,
2976.329,122.1523,
2973.419,115.60176,
2970.508,126.44164,
2967.598,122.02942,
2964.687,123.46807,
2961.777,122.59504,
2958.866,133.44596,
2955.955,134.94803,
2953.045,142.14291,
2950.134,145.06085,
2947.224,159.06806,
2944.313,152.18127,
2941.403,143.51779,
2938.492,148.24152,
2935.581,149.50657,
2932.671,153.76881,
2929.760,167.77884,
2926.850,154.5953,
2923.939,175.28387,
2921.028,171.41904,
2918.118,168.78873,
2915.207,182.64378,
2912.297,176.10384,
2909.386,181.2856,
2906.476,182.05475,
2903.565,163.47907,
2900.654,177.96018,
2897.744,178.79812,
2894.833,156.42391,
2891.923,171.6667,
2889.012,171.07876,
2886.102,174.04393,
2883.191,161.12972,
2880.280,136.06279,
2877.370,101.57856,
2874.459,93.879852,
2871.549,133.09889,
2868.638,152.80747,
2865.727,176.75578,
2862.817,166.1103,
2859.906,169.92272,
2856.996,180.60462,
2854.085,190.40652,
2851.175,180.95932,
2848.264,170.71301,
2845.353,170.23284,
2842.443,171.93057,
2839.532,168.67723,
2836.622,159.58008,
2833.711,177.3762,
2830.801,172.24044,
2827.890,178.66696,
2824.979,171.13706,
2822.069,170.43205,
2819.158,193.32446,
2816.248,193.84895,
2813.337,189.87744,
2810.427,179.64704,
2807.516,197.64281,
2804.605,190.8774,
2801.695,186.08553,
2798.784,191.90323,
2795.874,170.125,
2792.963,176.55372,
2790.052,193.12221,
2787.142,190.48027,
2784.231,179.06135,
2781.321,184.81646,
2778.410,185.5806,
2775.500,187.44224,
2772.589,187.70373,
2769.678,207.23425,
2766.768,195.69005,
2763.857,193.96893,
2760.947,203.59033,
2758.036,193.04217,
2755.126,196.98397,
2752.215,193.72047,
2749.304,189.01889,
2746.394,200.81853,
2743.483,204.92501,
2740.573,204.89934,
2737.662,199.79512,
2734.751,197.1008,
2731.841,205.61218,
2728.930,205.14614,
2726.020,207.67593,
2723.109,200.57867,
2720.199,197.57491,
2717.288,210.125,
2714.377,201.4168,
2711.467,206.91181,
2708.556,213.77384,
2705.646,217.125,
2702.735,217.30284,
2699.825,224.21226,
2696.914,227.41092,
2694.003,203.56564,
2691.093,215.66051,
2688.182,222.34426,
2685.272,228.69115,
2682.361,215.27784,
2679.450,217.29374,
2676.540,223.96241,
2673.629,218.44786,
2670.719,221.84034,
2667.808,223.97909,
2664.898,232.19018,
2661.987,226.62517,
2659.076,230.50647,
2656.166,238.78729,
2653.255,245.83078,
2650.345,225.22845,
2647.434,225.26847,
2644.524,245.03626,
2641.613,240.125,
2638.702,227.33015,
2635.792,232.59161,
2632.881,243.35129,
2629.971,246.9774,
2627.060,246.62594,
2624.149,237.74688,
2621.239,235.37352,
2618.328,238.91306,
2615.418,236.77955,
2612.507,240.26335,
2609.597,247.29865,
2606.686,244.98242,
2603.775,237.56548,
2600.865,254.41515,
2597.954,253.40629,
2595.044,243.41995,
2592.133,243.5644,
2589.223,246.14922,
2586.312,257.7833,
2583.401,260.16516,
2580.491,266.57692,
2577.580,279.12005,
2574.670,277.50869,
2571.759,266.26114,
2568.848,263.1803,
2565.938,248.88671,
2563.027,274.02728,
2560.117,267.67639,
2557.206,278.68588,
2554.296,267.72225,
2551.385,256.125,
2548.474,258.23615,
2545.564,267.8401,
2542.653,272.44043,
2539.743,278.64348,
2536.832,286.94183,
2533.922,276.34577,
2531.011,285.72537,
2528.100,277.32362,
2525.190,276.17213,
2522.279,290.2188,
2519.369,291.52126,
2516.458,278.45007,
2513.548,264.27052,
2510.637,280.61686,
2507.726,287.81273,
2504.816,283.18701,
2501.905,289.05244,
2498.995,290.64725,
2496.084,287.72433,
2493.173,290.38791,
2490.263,299.28209,
2487.352,300.79113,
2484.442,293.125,
2481.531,291.54523,
2478.621,302.40941,
2475.710,287.31669,
2472.799,312.8649,
2469.889,310.76211,
2466.978,309.73321,
2464.068,282.39474,
2461.157,303.1674,
2458.247,317.56615,
2455.336,303.57313,
2452.425,311.49766,
2449.515,321.89838,
2446.604,315.94526,
2443.694,320.54358,
2440.783,320.93468,
2437.872,321.56258,
2434.962,326.03284,
2432.051,310.51397,
2429.141,321.5308,
2426.230,326.92943,
2423.320,327.98255,
2420.409,326.25291,
2417.498,330.78228,
2414.588,333.47474,
2411.677,340.44369,
2408.767,323.13681,
2405.856,324.71786,
2402.946,324.49408,
2400.035,327.82219,
2397.124,329.58488,
2394.214,342.747,
2391.303,341.30183,
2388.393,340.11105,
2385.482,343.99281,
2382.571,341.13781,
2379.661,341.70629,
2376.750,352.86144,
2373.840,350.98751,
2370.929,349.13583,
2368.019,356.66686,
2365.108,358.38154,
2362.197,342.76332,
2359.287,349.89826,
2356.376,355.12148,
2353.466,350.86638,
2350.555,364.93996,
2347.645,360.16474,
2344.734,362.0651,
2341.823,357.2245,
2338.913,369.59216,
2336.002,370.46229,
2333.092,368.80329,
2330.181,368.40632,
2327.270,355.95008,
2324.360,372.66273,
2321.449,376.125,
2318.539,374.59289,
2315.628,381.49431,
2312.718,390.42456,
2309.807,375.80813,
2306.896,383.10935,
2303.986,381.04062,
2301.075,392.91221,
2298.165,388.34599,
2295.254,392.9742,
2292.344,404.60643,
2289.433,373.44545,
2286.522,387.06683,
2283.612,400.36479,
2280.701,407.77969,
2277.791,402.48567,
2274.880,407.05908,
2271.969,393.28549,
2269.059,402.94517,
2266.148,407.6659,
2263.238,403.52655,
2260.327,406.81475,
2257.417,417.31111,
2254.506,424.76604,
2251.595,422.13232,
2248.685,413.91539,
2245.774,429.3445,
2242.864,427.61625,
2239.953,443.20787,
2237.043,418.44929,
2234.132,428.19505,
2231.221,430.75543,
2228.311,460.04893,
2225.400,443.15315,
2222.490,444.31067,
2219.579,446.83452,
2216.669,455.10115,
2213.758,460.77729,
2210.847,465.15522,
2207.937,501.61844,
2205.026,484.90284,
2202.116,491.51564,
2199.205,516.77488,
2196.294,502.26505,
2193.384,528.20256,
2190.473,536.40317,
2187.563,548.15883,
2184.652,552.41398,
2181.742,551.89956,
2178.831,583.60748,
2175.920,583.20515,
2173.010,588.30017,
2170.099,594.32441,
2167.189,595.13935,
2164.278,596.97827,
2161.368,596.41068,
2158.457,600.09039,
2155.546,620.94234,
2152.636,629.24735,
2149.725,628.78943,
2146.815,640.72457,
2143.904,649.32945,
2140.993,661.05621,
2138.083,652.08859,
2135.172,649.96546,
2132.262,669.125,
2129.351,636.65239,
2126.441,659.69792,
2123.530,627.97909,
2120.619,614.16174,
2117.709,603.37862,
2114.798,578.85949,
2111.888,558.56261,
2108.977,547.86009,
2106.067,545.40013,
2103.156,525.00896,
2100.245,535.1112,
2097.335,511.43914,
2094.424,495.53476,
2091.514,492.70572,
2088.603,515.24479,
2085.692,512.48566,
2082.782,490.98854,
2079.871,487.58941,
2076.961,523.67104,
2074.050,491.17348,
2071.140,494.5386,
2068.229,510.93489,
2065.318,511.17349,
2062.408,505.95858,
2059.497,519.52977,
2056.587,519.70642,
2053.676,509.3256,
2050.766,497.89481,
2047.855,502.64086,
2044.944,486.92307,
2042.034,489.99202,
2039.123,483.125,
2036.213,489.75836,
2033.302,503.5597,
2030.391,502.32855,
2027.481,513.25901,
2024.570,512.22516,
2021.660,490.42584,
2018.749,516.82108,
2015.839,507.2418,
2012.928,500.87165,
2010.017,509.08699,
2007.107,479.00723,
2004.196,501.88702,
2001.286,514.39359,
1998.375,493.7746,
1995.465,473.60625,
1992.554,498.92474,
1989.643,502.15956,
1986.733,490.98114,
1983.822,499.77714,
1980.912,471.14561,
1978.001,496.97286,
1975.090,478.32805,
1972.180,479.53856,
1969.269,491.7486,
1966.359,491.98977,
1963.448,475.70624,
1960.538,462.19839,
1957.627,494.00738,
1954.716,486.46972,
1951.806,460.82693,
1948.895,458.44074,
1945.985,475.40604,
1943.074,461.53815,
1940.164,473.87479,
1937.253,456.69457,
1934.342,464.19345,
1931.432,469.23856,
1928.521,457.38407,
1925.611,451.40423,
1922.700,466.16229,
1919.790,458.06733,
1916.879,470.07876,
1913.968,480.11393,
1911.058,443.96585,
1908.147,479.34248,
1905.237,453.68386,
1902.326,470.05983,
1899.415,456.73354,
1896.505,466.47443,
1893.594,454.22555,
1890.684,426.86362,
1887.773,441.07272,
1884.863,452.02249,
1881.952,462.37737,
1879.041,459.80361,
1876.131,457.93938,
1873.220,444.17804,
1870.310,445.838,
1867.399,446.125,
1864.489,460.63127,
1861.578,472.5646,
1858.667,468.59206,
1855.757,474.73359,
1852.846,464.37116,
1849.936,463.33421,
1847.025,471.76976,
1844.114,472.06614,
1841.204,470.65647,
1838.293,477.6408,
1835.383,477.41549,
1832.472,497.57891,
1829.562,476.7401,
1826.651,485.42476,
1823.740,483.29356,
1820.830,493.55821,
1817.919,503.82564,
1815.009,528.24332,
1812.098,506.99116,
1809.188,499.43509,
1806.277,515.74876,
1803.366,488.09173,
1800.456,488.21337,
1797.545,520.16066,
1794.635,481.77001,
1791.724,492.8919,
1788.813,528.12629,
1785.903,518.28982,
1782.992,480.09969,
1780.082,486.77324,
1777.171,450.45422,
1774.261,455.93042,
1771.350,493.708,
1768.439,510.16952,
1765.529,508.21197,
1762.618,505.83192,
1759.708,521.95101,
1756.797,530.79924,
1753.887,542.86844,
1750.976,554.68717,
1748.065,545.07738,
1745.155,517.15737,
1742.244,538.58328,
1739.334,527.42148,
1736.423,532.08199,
1733.512,565.3202,
1730.602,572.13293,
1727.691,545.02454,
1724.781,544.99077,
1721.870,577.70613,
1718.960,564.5692,
1716.049,556.7691,
1713.138,573.22492,
1710.228,575.2547,
1707.317,562.741,
1704.407,619.52082,
1701.496,533.14713,
1698.586,528.74492,
1695.675,599.30315,
1692.764,612.6455,
1689.854,582.51081,
1686.943,593.68657,
1684.033,599.97598,
1681.122,622.73417,
1678.211,627.08693,
1675.301,674.977,
1672.390,637.17883,
1669.480,655.80687,
1666.569,739.84569,
1663.659,717.53703,
1660.748,682.83843,
1657.837,719.10313,
1654.927,719.78847,
1652.016,787.88575,
1649.106,738.41877,
1646.195,751.53961,
1643.285,810.05925,
1640.374,850.08319,
1637.463,848.44926,
1634.553,867.14467,
1631.642,934.7124,
1628.732,897.93086,
1625.821,1033.1329,
1622.911,1045.0574,
1620.000,1152.7517,
1617.089,1136.4832,
1614.179,1205.1227,
1611.268,1291.8533,
1608.358,1355.1751,
1605.447,1390.1824,
1602.536,1384.6699,
1599.626,1399.7639,
1596.715,1406.5706,
1593.805,1386.5554,
1590.894,1402.6191,
1587.984,1377.4101,
1585.073,1408.8593,
1582.162,1348.3341,
1579.252,1302.393,
1576.341,1329.5707,
1573.431,1287.2187,
1570.520,1295.2919,
1567.610,1288.713,
1564.699,1239.1732,
1561.788,1216.4913,
1558.878,1187.4972,
1555.967,1168.5184,
1553.057,1138.3322,
1550.146,1136.645,
1547.235,1106.7538,
1544.325,1074.4697,
1541.414,1075.5256,
1538.504,1088.8596,
1535.593,1083.9783,
1532.683,1089.4196,
1529.772,1104.3626,
1526.861,1091.3087,
1523.951,1085.6341,
1521.040,1077.6439,
1518.130,1083.9507,
1515.219,1114.1255,
1512.309,1099.3457,
1509.398,1111.9177,
1506.487,1113.0704,
1503.577,1071.8311,
1500.666,1063.8572,
1497.756,1013.5148,
1494.845,1006.5252,
1491.934,1016.1785,
1489.024,1032.5409,
1486.113,1017.3623,
1483.203,966.38761,
1480.292,926.18454,
1477.382,946.79719,
1474.471,976.14637,
1471.560,948.29303,
1468.650,896.1784,
1465.739,893.49676,
1462.829,894.96319,
1459.918,927.14189,
1457.008,947.47872,
1454.097,919.17652,
1451.186,895.46156,
1448.276,869.142,
1445.365,844.84222,
1442.455,872.19873,
1439.544,854.26579,
1436.633,854.81319,
1433.723,805.87575,
1430.812,804.78994,
1427.902,813.77894,
1424.991,841.26405,
1422.081,821.9405,
1419.170,826.17342,
1416.259,826.31494,
1413.349,869.17374,
1410.438,864.23095,
1407.528,843.89391,
1404.617,814.227,
1401.707,807.13399,
1398.796,806.15649,
1395.885,791.16433,
1392.975,751.89449,
1390.064,672.52335,
1387.154,602.56285,
1384.243,522.19157,
1381.332,463.22363,
1378.422,491.84449,
1375.511,563.97662,
1372.601,685.85071,
1369.690,738.1289,
1366.780,801.3595,
1363.869,812.49261,
1360.958,830.27127,
1358.048,878.09696,
1355.137,917.2671,
1352.227,938.27538,
1349.316,936.29364,
1346.406,936.24166,
1343.495,1002.2941,
1340.584,1074.6248,
1337.674,1080.9794,
1334.763,1039.0071,
1331.853,1062.1879,
1328.942,1121.8296,
1326.032,1115.2594,
1323.121,1149.1732,
1320.210,1136.1541,
1317.300,1155.5878,
1314.389,1209.4728,
1311.479,1222.0863,
1308.568,1191.8636,
1305.657,1165.6057,
1302.747,1142.5951,
1299.836,1176.1103,
1296.926,1235.8169,
1294.015,1293.7343,
1291.105,1338.391,
1288.194,1396.842,
1285.283,1455.9492,
1282.373,1484.8828,
1279.462,1499.3601,
1276.552,1511.6998,
1273.641,1507.8756,
1270.731,1494.0653,
1267.820,1498.0089,
1264.909,1490.3562,
1261.999,1519.5272,
1259.088,1475.7454,
1256.178,1505.6703,
1253.267,1447.4478,
1250.356,1443.0246,
1247.446,1455.4055,
1244.535,1437.3215,
1241.625,1415.125,
1238.714,1413.8796,
1235.804,1407.4114,
1232.893,1389.5071,
1229.982,1355.7758,
1227.072,1315.9421,
1224.161,1299.6769,
1221.251,1274.0452,
1218.340,1226.6085,
1215.430,1175.9466,
1212.519,1165.7078,
1209.608,1180.3531,
1206.698,1192.1892,
1203.787,1233.9441,
1200.877,1222.7937,
1197.966,1233.5836,
1195.055,1281.9069,
1192.145,1326.1895,
1189.234,1393.2723,
1186.324,1441.1267,
1183.413,1453.0336,
1180.503,1453.8466,
1177.592,1464.2866,
1174.681,1462.9298,
1171.771,1427.4135,
1168.860,1439.9167,
1165.950,1479.8269,
1163.039,1440.9352,
1160.129,1408.3279,
1157.218,1437.6224,
1154.307,1463.655,
1151.397,1438.343,
1148.486,1434.027,
1145.576,1422.2406,
1142.665,1424.9044,
1139.754,1403.157,
1136.844,1398.8253,
1133.933,1421.9987,
1131.023,1407.4388,
1128.112,1370.6254,
1125.202,1360.5695,
1122.291,1346.2584,
1119.380,1368.177,
1116.470,1373.4721,
1113.559,1367.939,
1110.649,1339.2763,
1107.738,1334.2339,
1104.828,1323.4005,
1101.917,1308.664,
1099.006,1333.3209,
1096.096,1320.8775,
1093.185,1333.1696,
1090.275,1355.166,
1087.364,1362.8695,
1084.453,1387.7485,
1081.543,1417.957,
1078.632,1427.4839,
1075.722,1418.8862,
1072.811,1434.2563,
1069.901,1422.0306,
1066.990,1454.2666,
1064.079,1425.3773,
1061.169,1415.8572,
1058.258,1417.0432,
1055.348,1413.0646,
1052.437,1418.6491,
1049.527,1411.9977,
1046.616,1434.5873,
1043.705,1411.6898,
1040.795,1404.125,
1037.884,1427.3889,
1034.974,1436.3454,
1032.063,1418.8479,
1029.153,1435.6709,
1026.242,1423.5615,
1023.331,1417.292,
1020.421,1432.8554,
1017.510,1437.8839,
1014.600,1442.469,
1011.689,1469.3695,
1008.778,1511.4597,
1005.868,1490.2486,
1002.957,1504.0142,
1000.047,1557.085,
997.136,1610.1899,
994.226,1622.9713,
991.315,1590.2488,
988.404,1542.5853,
985.494,1518.7222,
982.583,1500.7345,
979.673,1484.9554,
976.762,1495.9768,
973.852,1508.009,
970.941,1506.754,
968.030,1494.5122,
965.120,1457.2252,
962.209,1481.0964,
959.299,1492.9157,
956.388,1494.4451,
953.477,1485.7265,
950.567,1490.2876,
947.656,1530.0055,
944.746,1506.2179,
941.835,1526.1801,
938.925,1542.9699,
936.014,1569.358,
933.103,1578.1791,
930.193,1560.3223,
927.282,1568.3001,
924.372,1553.0792,
921.461,1520.9326,
918.551,1513.0297,
915.640,1518.5245,
912.729,1503.535,
909.819,1456.0189,
906.908,1500.6674,
903.998,1487.2177,
901.087,1464.0298,
898.176,1462.6689,
895.266,1479.473,
892.355,1498.6221,
889.445,1527.9964,
886.534,1535.6388,
883.624,1535.7793,
880.713,1534.1043,
877.802,1532.4302,
874.892,1527.0804,
871.981,1508.4345,
869.071,1479.1951,
866.160,1483.0945,
863.250,1496.0364,
860.339,1527.0354,
857.428,1562.9597,
854.518,1540.7399,
851.607,1527.4267,
848.697,1505.1783,
845.786,1478.4802,
842.875,1478.5538,
839.965,1513.6154,
837.054,1534.3669,
834.144,1555.9145,
831.233,1574.124,
828.323,1584.0924,
825.412,1586.1591,
822.501,1577.5716,
819.591,1541.2101,
816.680,1536.9199,
813.770,1535.4985,
810.859,1532.8688,
807.949,1520.7542,
805.038,1497.1206,
802.127,1505.3519,
799.217,1490.4718,
796.306,1497.6116,
793.396,1506.3464,
790.485,1505.7567,
787.574,1509.4016,
784.664,1543.0262,
781.753,1550.467,
778.843,1563.3771,
775.932,1571.8041,
773.022,1560.7302,
770.111,1551.7369,
767.200,1553.4089,
764.290,1546.6126,
761.379,1538.3679,
758.469,1515.7095,
755.558,1446.2952,
752.648,1451.9974,
749.737,1436.1525,
746.826,1363.2527,
743.916,1239.8645,
741.005,1083.1637,
738.095,844.47195,
735.184,494.34813,
732.274,425.02551,
729.363,646.91269,
726.452,1030.7024,
723.542,1310.7525,
720.631,1383.4654,
717.721,1465.8566,
714.810,1513.7443,
711.899,1513.3131,
708.989,1514.12,
706.078,1542.9719,
703.168,1548.9106,
700.257,1532.0347,
697.347,1506.7339,
694.436,1498.2778,
691.525,1503.9044,
688.615,1495.0624,
685.704,1496.8955,
682.794,1514.3802,
679.883,1537.1879,
676.973,1516.3522,
674.062,1519.1439,
671.151,1520.9333,
668.241,1514.5513,
665.330,1505.7721,
662.420,1561.6833,
659.509,1545.188,
656.598,1552.9262,
653.688,1584.8151,
650.777,1587.8001,
647.867,1607.7083,
644.956,1605.9335,
642.046,1578.4929,
639.135,1541.352,
636.224,1527.2603,
633.314,1554.2542,
630.403,1568.8107,
627.493,1551.8487,
624.582,1513.2999,
621.672,1500.628,
618.761,1531.2825,
615.850,1538.3701,
612.940,1532.7097,
610.029,1526.9141,
607.119,1531.6519,
604.208,1527.1549,
601.297,1530.6087,
598.387,1531.5389,
595.476,1520.8678,
592.566,1528.7385,
589.655,1508.0967,
586.745,1474.4266,
583.834,1439.3179,
580.923,1414.8881,
578.013,1375.6514,
575.102,1399.5403,
572.192,1447.2766,
569.281,1490.3588,
566.371,1508.3591,
563.460,1550.3367,
560.549,1567.6123,
557.639,1571.6163,
554.728,1582.6031,
551.818,1606.0126,
548.907,1608.6873,
545.996,1612.1793,
543.086,1615.2599,
540.175,1592.6792,
537.265,1572.2937,
534.354,1606.7653,
531.444,1632.5202,
528.533,1592.3457,
525.622,1595.4495,
522.712,1591.8777,
519.801,1593.3257,
516.891,1608.8893,
513.980,1652.2499,
511.070,1624.4294,
508.159,1628.3174,
505.248,1644.8717,
502.338,1639.4805,
499.427,1685.7904,
496.517,1661.923,
493.606,1642.2008,
490.695,1660.0507,
487.785,1673.907,
484.874,1703.9126,
481.964,1685.4875,
479.053,1644.3762,
476.143,1670.4869,
473.232,1680.0384,
470.321,1664.1485,
467.411,1642.0989,
464.500,1635.4074,
461.590,1607.0751,
458.679,1648.6515,
455.769,1683.1388,
452.858,1666.4664,
449.947,1631.3256,
447.037,1647.7887,
444.126,1656.8402,
441.216,1646.6542,
438.305,1649.7019,
435.395,1644.8799,
432.484,1652.9606,
429.573,1670.255,
426.663,1679.3767,
423.752,1599.2244,
420.842,1555.448,
417.931,1561.0697,
415.020,1617.1882,
412.110,1672.5328,
409.199,1706.7949,
406.289,1715.4836,
403.378,1695.0507,
400.468,1673.1269,
397.557,1648.6439,
394.646,1610.8467,
391.736,1551.4349,
388.825,1498.6387,
385.915,1416.0686,
383.004,1376.2564,
380.094,1429.5762,
377.183,1536.4279,
374.272,1641.5715,
371.362,1721.313,
368.451,1761.1736,
365.541,1778.4359,
362.630,1781.4863,
359.719,1775.3895,
356.809,1764.8046,
353.898,1776.0366,
350.988,1768.8178,
348.077,1761.577,
345.167,1765.9575,
342.256,1782.393,
339.345,1786.0621,
336.435,1779.8507,
333.524,1766.219,
330.614,1769.1996,
327.703,1804.5231,
324.793,1823.9776,
321.882,1786.2079,
318.971,1820.4063,
316.061,1848.7277,
313.150,1863.1226,
310.240,1853.4751,
307.329,1885.9983,
304.418,1870.8559,
301.508,1800.8911,
298.597,1664.6544,
295.687,1629.4216,
292.776,1636.4584,
289.866,1695.2871,
286.955,1852.6356,
284.044,2018.0699,
281.134,2188.5129,
278.223,2344.5619,
275.313,2395.4049,
272.402,2487.4514,
269.492,2565.453,
266.581,2609.227,
263.670,2638.6342,
260.760,2653.3936,
257.849,2692.2299,
254.939,2786.9008,
252.028,2909.7309,
249.117,2920.9493,
246.207,2854.691,
243.296,2760.2583,
240.386,2674.378,
237.475,2612.6105,
234.565,2578.01,
231.654,2577.2796,
228.743,2535.1231,
225.833,2484.3067,
222.922,2440.2122,
220.012,2463.5259,
217.101,2480.9393,
214.191,2463.3678,
211.280,2370.9801,
208.369,2308.2815,
205.459,2272.3415,
202.548,2260.8799,
199.638,2271.039,
196.727,2267.3628,
193.816,2249.88,
190.906,2218.9218,
187.995,2213.1296,
185.085,2196.9393,
182.174,2186.8056,
179.264,2207.7658,
176.353,2197.9502,
173.442,2165.746,
170.532,2118.7728,
167.621,2098.5855,
164.711,2097.3295,
161.800,2065.9807,
158.890,1963.0596,
155.979,1833.5074,
153.068,1687.7351,
150.158,1525.1224,
147.247,1337.0189,
144.337,1103.8547,
141.426,867.19406,
138.516,645.67467,
135.605,464.01557,
132.694,318.92405,
129.784,209.58172,
126.873,145.22004,
123.963,93.997301,
121.052,56.059745,
118.141,33.214881,
115.231,38.809563,
112.320,34.770461,
109.410,24.625092,
106.499,16.791385,
103.589,15.685254,
100.678,16.668243,
97.767,18.090119,
94.857,21.589945,
91.946,21.109446,
89.036,16.996021,
86.125,9.9039682,
83.215,16.088805,
80.304,20.012375,
77.393,10.806166,
74.483,8.1595951,
71.572,8.2120563,
68.662,9.986465,
65.751,8.5735628,
62.840,7.161596,
59.930,6.8741448,
57.019,9.6944727,
54.109,13.707965,
51.198,15.220172,
48.288,13.0797,
45.377,7.4526759,
42.466,9.6594127,
39.556,14.973814,
36.645,7.9519121,
33.735,12.355982,
30.824,19.229435,
27.914,22.735311,
25.003,24.992912,
22.092,26.770809,
19.182,28.468243,
16.271,38.960595,
13.361,175.04135,
10.450,453.71908,
7.539,1020.7512,
4.629,1592.5441,
1.718,1892.4106,
-1.192,1573.8155,
-4.103,941.86259,
-7.013,390.78454,
-9.924,3.125,
