,PL84A9~1,
Raman shift [1/cm],Intensity,
3014.167,-2,
3011.256,0.40008589,
3008.346,109.27813,
3005.435,129.27209,
3002.525,147.75503,
2999.614,150.86103,
2996.704,158.99175,
2993.793,162.77074,
2990.882,153.77859,
2987.972,145.14126,
2985.061,168.5665,
2982.151,165.64202,
2979.240,181,
2976.329,180.24863,
2973.419,204.55379,
2970.508,197.13339,
2967.598,198.66546,
2964.687,200.11889,
2961.777,204.47004,
2958.866,215.66122,
2955.955,215.41151,
2953.045,221.11858,
2950.134,226.51019,
2947.224,234.05694,
2944.313,244.9886,
2941.403,246.44024,
2938.492,249.28726,
2935.581,263.38157,
2932.671,258.27896,
2929.760,260.48463,
2926.850,265.10451,
2923.939,268.67755,
2921.028,263.89987,
2918.118,272.16121,
2915.207,292.00645,
2912.297,278.08886,
2909.386,284.57665,
2906.476,279.03089,
2903.565,293.38816,
2900.654,268.65926,
2897.744,277.02514,
2894.833,279.82473,
2891.923,269.6474,
2889.012,283.87861,
2886.102,277.43648,
2883.191,279.00189,
2880.280,278.97607,
2877.370,264.21512,
2874.459,277.59116,
2871.549,274.39478,
2868.638,288.45566,
2865.727,289.31539,
2862.817,306.94383,
2859.906,296.82336,
2856.996,305.02717,
2854.085,295.47899,
2851.175,307.35841,
2848.264,313.35783,
2845.353,317.82746,
2842.443,304.01044,
2839.532,298.10446,
2836.622,302,
2833.711,302,
2830.801,302,
2827.890,300.21333,
2824.979,317.29605,
2822.069,317.04549,
2819.158,325.94071,
2816.248,322.79342,
2813.337,325.56707,
2810.427,328.08816,
2807.516,329.36687,
2804.605,309.95673,
2801.695,309.92107,
2798.784,318.77823,
2795.874,299.69919,
2792.963,319.14298,
2790.052,324.99936,
2787.142,311.10539,
2784.231,319.03261,
2781.321,299.76009,
2778.410,324.3401,
2775.500,325.06345,
2772.589,335.30734,
2769.678,331.39248,
2766.768,330.56505,
2763.857,341.10404,
2760.947,319.93065,
2758.036,337.80272,
2755.126,339.95726,
2752.215,330.72277,
2749.304,361.04134,
2746.394,335.36493,
2743.483,337.39998,
2740.573,351.64606,
2737.662,346.23372,
2734.751,342.27687,
2731.841,332.10806,
2728.930,345.73315,
2726.020,346.01563,
2723.109,357.11342,
2720.199,353.09677,
2717.288,356.03649,
2714.377,347.74164,
2711.467,352.55715,
2708.556,363,
2705.646,370.60565,
2702.735,355.32474,
2699.825,346.51091,
2696.914,377.57231,
2694.003,362.28455,
2691.093,375.01805,
2688.182,367.78074,
2685.272,366.96444,
2682.361,363.2762,
2679.450,368.92184,
2676.540,365.12194,
2673.629,369.34082,
2670.719,376.27727,
2667.808,361.06998,
2664.898,376.33755,
2661.987,401.70037,
2659.076,377.59485,
2656.166,389.70994,
2653.255,385.78061,
2650.345,384.27223,
2647.434,389.34296,
2644.524,399.56358,
2641.613,396.97109,
2638.702,401.82641,
2635.792,410.24926,
2632.881,415.42263,
2629.971,402.78516,
2627.060,389.3325,
2624.149,404.72811,
2621.239,400.72184,
2618.328,416.74568,
2615.418,414.65,
2612.507,405.24512,
2609.597,418.61278,
2606.686,409.0261,
2603.775,408.84127,
2600.865,425.99663,
2597.954,424.28748,
2595.044,435.94686,
2592.133,432.71322,
2589.223,429.24106,
2586.312,421.27131,
2583.401,431.67515,
2580.491,428.43747,
2577.580,445.9802,
2574.670,435.10695,
2571.759,432.49487,
2568.848,442.81776,
2565.938,427.38078,
2563.027,447.80456,
2560.117,450.35515,
2557.206,442.24723,
2554.296,447.88787,
2551.385,453.93397,
2548.474,449.29628,
2545.564,453.84172,
2542.653,449.85235,
2539.743,464.8891,
2536.832,461.16261,
2533.922,469.07885,
2531.011,467.95051,
2528.100,463.72826,
2525.190,481.11516,
2522.279,473.29653,
2519.369,457.18879,
2516.458,449.10836,
2513.548,480.79042,
2510.637,465.16817,
2507.726,482.68773,
2504.816,482.56257,
2501.905,488.6811,
2498.995,487.05972,
2496.084,484.62716,
2493.173,483.07914,
2490.263,493.58419,
2487.352,480.2504,
2484.442,485.43041,
2481.531,481.89364,
2478.621,487.67775,
2475.710,475.40639,
2472.799,518.38127,
2469.889,488.03047,
2466.978,496.38135,
2464.068,499.04232,
2461.157,481.73733,
2458.247,511.27943,
2455.336,519.59492,
2452.425,532.80661,
2449.515,514.73597,
2446.604,522.82026,
2443.694,532.06991,
2440.783,535.80968,
2437.872,533.03646,
2434.962,528.48388,
2432.051,526.16691,
2429.141,530.74718,
2426.230,546.63099,
2423.320,540.51396,
2420.409,550.59622,
2417.498,553.37641,
2414.588,541.01529,
2411.677,544.92828,
2408.767,553.11811,
2405.856,564.70724,
2402.946,549.47632,
2400.035,543.00938,
2397.124,558.89839,
2394.214,561.13401,
2391.303,560.11043,
2388.393,580.69073,
2385.482,546.76247,
2382.571,595.34187,
2379.661,585.67453,
2376.750,584.26103,
2373.840,594.13749,
2370.929,582.14079,
2368.019,585.49447,
2365.108,582.51047,
2362.197,589.2219,
2359.287,593.98329,
2356.376,579.02994,
2353.466,592.3167,
2350.555,606.49473,
2347.645,595,
2344.734,600.51614,
2341.823,604.95025,
2338.913,601.48658,
2336.002,620.4162,
2333.092,627.93112,
2330.181,636.07158,
2327.270,627.71507,
2324.360,639.84908,
2321.449,626.64626,
2318.539,633.10704,
2315.628,638,
2312.718,641.53304,
2309.807,636.20494,
2306.896,640.7637,
2303.986,648.17534,
2301.075,646.68087,
2298.165,625.64389,
2295.254,641.5476,
2292.344,635.15767,
2289.433,636,
2286.522,651.40166,
2283.612,648.7487,
2280.701,649.65469,
2277.791,685.31873,
2274.880,666.86004,
2271.969,667.12346,
2269.059,674.41416,
2266.148,671.4591,
2263.238,683.69497,
2260.327,692.48282,
2257.417,698.76278,
2254.506,704.87752,
2251.595,701.86917,
2248.685,689.79039,
2245.774,708.82383,
2242.864,692.54614,
2239.953,690.55164,
2237.043,710.67571,
2234.132,724.05711,
2231.221,712.65625,
2228.311,742.53346,
2225.400,719.3096,
2222.490,728.7003,
2219.579,730.52189,
2216.669,743.00954,
2213.758,764.48238,
2210.847,758.46098,
2207.937,763.59282,
2205.026,769.11079,
2202.116,774.06689,
2199.205,760.52518,
2196.294,771.61196,
2193.384,791.52601,
2190.473,795.85798,
2187.563,780.08217,
2184.652,798.95796,
2181.742,812.65942,
2178.831,838.78608,
2175.920,873.32605,
2173.010,898.85147,
2170.099,933.73017,
2167.189,957.34442,
2164.278,1009.8422,
2161.368,1049.1415,
2158.457,1105.8066,
2155.546,1166.8625,
2152.636,1219.5371,
2149.725,1251.6443,
2146.815,1312.9979,
2143.904,1333.2156,
2140.993,1374.492,
2138.083,1384.9058,
2135.172,1381.0168,
2132.262,1377.7482,
2129.351,1368.6931,
2126.441,1349.2135,
2123.530,1328.8888,
2120.619,1227.0093,
2117.709,1182.2234,
2114.798,1123.5038,
2111.888,1087.7638,
2108.977,1023.3973,
2106.067,999.96649,
2103.156,960.28725,
2100.245,909.99373,
2097.335,899.15707,
2094.424,890.84585,
2091.514,882.56988,
2088.603,887.59444,
2085.692,862.89982,
2082.782,861.20469,
2079.871,833.85532,
2076.961,859.6752,
2074.050,814.30909,
2071.140,840,
2068.229,837.82292,
2065.318,832.7655,
2062.408,837.44705,
2059.497,821.16068,
2056.587,814.38362,
2053.676,814.55015,
2050.766,828.76831,
2047.855,800.31327,
2044.944,814.05929,
2042.034,820.96514,
2039.123,790.56229,
2036.213,824.0556,
2033.302,817.34814,
2030.391,807.08455,
2027.481,812.48779,
2024.570,824.79969,
2021.660,827.94087,
2018.749,821.84804,
2015.839,815.71325,
2012.928,801.22987,
2010.017,803.29859,
2007.107,803.06915,
2004.196,817.42863,
2001.286,809.62195,
1998.375,791.60827,
1995.465,792.57321,
1992.554,790.37061,
1989.643,778.41476,
1986.733,776.60526,
1983.822,802.31979,
1980.912,784.86129,
1978.001,778.1781,
1975.090,782.36032,
1972.180,780.13965,
1969.269,773.45406,
1966.359,773.9188,
1963.448,764.61691,
1960.538,755.69641,
1957.627,764.6997,
1954.716,752.40218,
1951.806,766.31094,
1948.895,738.20844,
1945.985,763.11928,
1943.074,756.69359,
1940.164,758.7207,
1937.253,721.13915,
1934.342,738.65828,
1931.432,720.05362,
1928.521,722.8722,
1925.611,736.83768,
1922.700,724.91989,
1919.790,705.63602,
1916.879,716.95376,
1913.968,701.0209,
1911.058,714.1982,
1908.147,715.93722,
1905.237,711.5809,
1902.326,723.05481,
1899.415,715.83047,
1896.505,695.39157,
1893.594,705.0854,
1890.684,705.15693,
1887.773,691.53457,
1884.863,693.46469,
1881.952,726.6897,
1879.041,702.93197,
1876.131,699.95817,
1873.220,682.82293,
1870.310,705.06274,
1867.399,673.54378,
1864.489,711.01253,
1861.578,736.1868,
1858.667,733.30542,
1855.757,704.40573,
1852.846,705.28716,
1849.936,725.48849,
1847.025,722,
1844.114,727.63296,
1841.204,737.8042,
1838.293,734.50915,
1835.383,735.55799,
1832.472,743.96522,
1829.562,744.08359,
1826.651,758.0431,
1823.740,735.1532,
1820.830,744.06317,
1817.919,750.81438,
1815.009,737.30026,
1812.098,745.77165,
1809.188,745.12404,
1806.277,788.0262,
1803.366,778.14973,
1800.456,787.05496,
1797.545,785.97173,
1794.635,774.25613,
1791.724,819.43704,
1788.813,767.20154,
1785.903,784.42821,
1782.992,813.46494,
1780.082,788.32651,
1777.171,794.99571,
1774.261,797.98038,
1771.350,825.85525,
1768.439,819.70237,
1765.529,812.45275,
1762.618,790.37123,
1759.708,813.73948,
1756.797,837.85606,
1753.887,826.05102,
1750.976,833.02421,
1748.065,837.54224,
1745.155,840.47094,
1742.244,854.91846,
1739.334,848.6753,
1736.423,822.51031,
1733.512,835.82933,
1730.602,848.4881,
1727.691,866.88853,
1724.781,881.43892,
1721.870,923.43356,
1718.960,868.04366,
1716.049,880.84719,
1713.138,880.01503,
1710.228,844.18812,
1707.317,867.30628,
1704.407,933.8878,
1701.496,921.8575,
1698.586,935.70774,
1695.675,890.21457,
1692.764,941.90987,
1689.854,940.21653,
1686.943,942.89882,
1684.033,941.04967,
1681.122,934.11895,
1678.211,943.90483,
1675.301,990.85508,
1672.390,982.26319,
1669.480,1069.639,
1666.569,1025.6348,
1663.659,1075.9309,
1660.748,1131.0359,
1657.837,1082.4593,
1654.927,1104.9915,
1652.016,1187.0037,
1649.106,1147.9058,
1646.195,1183.0649,
1643.285,1146.0482,
1640.374,1192.777,
1637.463,1275.3515,
1634.553,1241.5812,
1631.642,1347.304,
1628.732,1375.6696,
1625.821,1488.0517,
1622.911,1566.5548,
1620.000,1662.7779,
1617.089,1742.408,
1614.179,1903.375,
1611.268,1986.9514,
1608.358,2090.0836,
1605.447,2172.3149,
1602.536,2205.8885,
1599.626,2230.9983,
1596.715,2274.7497,
1593.805,2185.0952,
1590.894,2185.4487,
1587.984,2155.8207,
1585.073,2117.8181,
1582.162,2152.0745,
1579.252,2074.0784,
1576.341,2066.2149,
1573.431,2069,
1570.520,2020.8442,
1567.610,2016.4315,
1564.699,1991.7238,
1561.788,1971.8452,
1558.878,1924.3032,
1555.967,1888.144,
1553.057,1809.8283,
1550.146,1790.28,
1547.235,1754.0029,
1544.325,1722.2621,
1541.414,1692.6767,
1538.504,1645.4479,
1535.593,1604.0889,
1532.683,1558.9491,
1529.772,1539.8999,
1526.861,1527.2743,
1523.951,1498.7272,
1521.040,1479.3072,
1518.130,1441.8403,
1515.219,1473.5996,
1512.309,1468.6756,
1509.398,1415.1558,
1506.487,1437.8029,
1503.577,1444.5663,
1500.666,1375.9414,
1497.756,1316.1954,
1494.845,1364.9589,
1491.934,1315.789,
1489.024,1251.302,
1486.113,1274.962,
1483.203,1261.013,
1480.292,1264.0911,
1477.382,1242.3691,
1474.471,1221.6524,
1471.560,1215.5487,
1468.650,1176.7367,
1465.739,1147.4712,
1462.829,1172.6313,
1459.918,1178.5303,
1457.008,1196.4619,
1454.097,1189.4895,
1451.186,1150.3269,
1448.276,1161.6414,
1445.365,1167.8562,
1442.455,1146.0672,
1439.544,1128.6658,
1436.633,1162.0089,
1433.723,1125.3859,
1430.812,1097.1925,
1427.902,1062.8343,
1424.991,1097.9016,
1422.081,1076.9805,
1419.170,1034.3892,
1416.259,1047.4415,
1413.349,1013.4827,
1410.438,1027.5916,
1407.528,1026.1252,
1404.617,1016.6515,
1401.707,1024.009,
1398.796,1034.3601,
1395.885,1026.2519,
1392.975,1019.5004,
1390.064,1048.2439,
1387.154,1071.1209,
1384.243,1030.4461,
1381.332,981.52926,
1378.422,1035.0144,
1375.511,1054.6868,
1372.601,1188.6277,
1369.690,1155.4244,
1366.780,1216.9071,
1363.869,1272.0503,
1360.958,1361.9249,
1358.048,1396.8468,
1355.137,1402.9366,
1352.227,1438.9087,
1349.316,1471.2223,
1346.406,1500.0153,
1343.495,1581.6882,
1340.584,1644.9993,
1337.674,1696.2528,
1334.763,1740.1764,
1331.853,1744.8126,
1328.942,1761.8998,
1326.032,1821.0934,
1323.121,1930.3254,
1320.210,1925.3766,
1317.300,1960.8916,
1314.389,2021.0977,
1311.479,2056.8543,
1308.568,2108.3272,
1305.657,2173.5859,
1302.747,2211.6015,
1299.836,2289.6684,
1296.926,2327.0593,
1294.015,2414.395,
1291.105,2509.5763,
1288.194,2575.5158,
1285.283,2654.1563,
1282.373,2759.1013,
1279.462,2832.9995,
1276.552,2862.504,
1273.641,2880.2494,
1270.731,2907.5851,
1267.820,2928.8452,
1264.909,2911.5493,
1261.999,2901.3329,
1259.088,2910.4541,
1256.178,2888.7321,
1253.267,2835.1323,
1250.356,2768.5287,
1247.446,2680.6335,
1244.535,2578.518,
1241.625,2480.8409,
1238.714,2403.6956,
1235.804,2347.6748,
1232.893,2301.3729,
1229.982,2307.7496,
1227.072,2211.7866,
1224.161,2207.5215,
1221.251,2156.6289,
1218.340,2113.7353,
1215.430,2059.8109,
1212.519,2049.1852,
1209.608,2075.2912,
1206.698,2082.6811,
1203.787,2105.6633,
1200.877,2096.9005,
1197.966,2159.8416,
1195.055,2197.9832,
1192.145,2211.5134,
1189.234,2289.9087,
1186.324,2370.2765,
1183.413,2404.7665,
1180.503,2397.8941,
1177.592,2367.4543,
1174.681,2323.2123,
1171.771,2303.8146,
1168.860,2295.7767,
1165.950,2249.8478,
1163.039,2239,
1160.129,2230.742,
1157.218,2212.9816,
1154.307,2203.7103,
1151.397,2206.8719,
1148.486,2195.0029,
1145.576,2178.5011,
1142.665,2190.044,
1139.754,2165.7775,
1136.844,2180.3088,
1133.933,2145.5985,
1131.023,2119.721,
1128.112,2121.7862,
1125.202,2102.715,
1122.291,2070.0243,
1119.380,2132.9047,
1116.470,2123.1969,
1113.559,2143.651,
1110.649,2158.513,
1107.738,2158.1776,
1104.828,2164.4025,
1101.917,2183.4381,
1099.006,2192.4227,
1096.096,2185,
1093.185,2185,
1090.275,2170.4331,
1087.364,2167,
1084.453,2167,
1081.543,2174.888,
1078.632,2184.0598,
1075.722,2186.8896,
1072.811,2205.8902,
1069.901,2176.1994,
1066.990,2219.2666,
1064.079,2244.2908,
1061.169,2255.4184,
1058.258,2275.0925,
1055.348,2301.4094,
1052.437,2319.7075,
1049.527,2357.3552,
1046.616,2314.7826,
1043.705,2378.5981,
1040.795,2404.108,
1037.884,2398.9082,
1034.974,2393.607,
1032.063,2401.5768,
1029.153,2412.5846,
1026.242,2409.1247,
1023.331,2455.6637,
1020.421,2465.6971,
1017.510,2472.7233,
1014.600,2468.2726,
1011.689,2477.8056,
1008.778,2545.7026,
1005.868,2608.6255,
1002.957,2678.3142,
1000.047,2771.992,
997.136,2837.6522,
994.226,2890.1073,
991.315,2908.255,
988.404,2867.2438,
985.494,2852.0602,
982.583,2810.0889,
979.673,2795.2202,
976.762,2761.4707,
973.852,2755.0283,
970.941,2787.6335,
968.030,2821.5029,
965.120,2829.9177,
962.209,2810.3092,
959.299,2862.2434,
956.388,2858.6817,
953.477,2822.792,
950.567,2812.5026,
947.656,2850.9048,
944.746,2895.9312,
941.835,2864.7977,
938.925,2855.0258,
936.014,2854,
933.103,2839.8762,
930.193,2813.4007,
927.282,2810.5417,
924.372,2802.0856,
921.461,2723.678,
918.551,2678.572,
915.640,2661.7506,
912.729,2647.9493,
909.819,2624.1095,
906.908,2609.7883,
903.998,2655.1311,
901.087,2679.7301,
898.176,2682.228,
895.266,2691.9178,
892.355,2727.6124,
889.445,2746.9155,
886.534,2777.0554,
883.624,2822.0243,
880.713,2858.3521,
877.802,2862.4939,
874.892,2836.2423,
871.981,2824.1381,
869.071,2829.986,
866.160,2826.8602,
863.250,2839.6777,
860.339,2830.4476,
857.428,2786.7477,
854.518,2772.4704,
851.607,2754.1649,
848.697,2784.703,
845.786,2756.4068,
842.875,2730.3315,
839.965,2760.9516,
837.054,2778.4883,
834.144,2732.9069,
831.233,2722.0001,
828.323,2724.9566,
825.412,2717.0874,
822.501,2685.7445,
819.591,2651.0358,
816.680,2613.141,
813.770,2640.3372,
810.859,2634.4743,
807.949,2599.8976,
805.038,2596.3031,
802.127,2590.5412,
799.217,2587.0184,
796.306,2593.3784,
793.396,2591.603,
790.485,2571.7874,
787.574,2542.5257,
784.664,2582.7112,
781.753,2575.2384,
778.843,2576.3314,
775.932,2587.1605,
773.022,2599.2275,
770.111,2645.8294,
767.200,2611.6957,
764.290,2598.2664,
761.379,2593.4552,
758.469,2589.8834,
755.558,2596.5624,
752.648,2581.8995,
749.737,2544.4022,
746.826,2526.9324,
743.916,2514.0388,
741.005,2461.7682,
738.095,2318.066,
735.184,2208.0422,
732.274,2156.2749,
729.363,2219.3243,
726.452,2388.8569,
723.542,2493.2686,
720.631,2533.4043,
717.721,2559.4668,
714.810,2570.6193,
711.899,2575.8317,
708.989,2600.8464,
706.078,2593.7883,
703.168,2551.3162,
700.257,2517.5737,
697.347,2518.5205,
694.436,2559.1926,
691.525,2529.4518,
688.615,2506.0194,
685.704,2512.836,
682.794,2533.1277,
679.883,2526.7477,
676.973,2521.1381,
674.062,2492.5625,
671.151,2501.1082,
668.241,2527.4733,
665.330,2514.437,
662.420,2544.7888,
659.509,2522.4281,
656.598,2505.5673,
653.688,2518.5725,
650.777,2564.243,
647.867,2571.41,
644.956,2558.1404,
642.046,2530.7577,
639.135,2508.9826,
636.224,2523.9841,
633.314,2520.8083,
630.403,2563.1584,
627.493,2591.4637,
624.582,2594.8269,
621.672,2620.9627,
618.761,2610.6009,
615.850,2642.2632,
612.940,2650.5079,
610.029,2621.9164,
607.119,2687.4557,
604.208,2692.58,
601.297,2675.0504,
598.387,2660.2931,
595.476,2666.52,
592.566,2672.0294,
589.655,2644.4928,
586.745,2629,
583.834,2621.9733,
580.923,2597.1611,
578.013,2623.8421,
575.102,2644.1925,
572.192,2657.2156,
569.281,2661.4534,
566.371,2652.8445,
563.460,2626.6031,
560.549,2653.5205,
557.639,2690.8515,
554.728,2686.084,
551.818,2703.2509,
548.907,2724.673,
545.996,2739.1103,
543.086,2738.2961,
540.175,2711.8221,
537.265,2741.8683,
534.354,2751.4915,
531.444,2755.4091,
528.533,2772.2207,
525.622,2775.3245,
522.712,2772.9662,
519.801,2817.9713,
516.891,2893.061,
513.980,2888.4152,
511.070,2931.6695,
508.159,2956.2084,
505.248,2990.5399,
502.338,3073.2259,
499.427,3080.9442,
496.517,3103.3636,
493.606,3123.7109,
490.695,3135.5676,
487.785,3154.0426,
484.874,3147.9529,
481.964,3142.1694,
479.053,3134.0134,
476.143,3104.8308,
473.232,3114.5105,
470.321,3121.4329,
467.411,3110.3239,
464.500,3071.2412,
461.590,3120.2485,
458.679,3135.1006,
455.769,3137.8904,
452.858,3139.6935,
449.947,3117.5395,
447.037,3167.0017,
444.126,3202,
441.216,3206.8947,
438.305,3235.0861,
435.395,3263.2586,
432.484,3267.665,
429.573,3253.16,
426.663,3240.9977,
423.752,3281.8451,
420.842,3313.2439,
417.931,3316.7183,
415.020,3273.4919,
412.110,3358.3304,
409.199,3405.6479,
406.289,3428.3955,
403.378,3447.8847,
400.468,3413.865,
397.557,3405.0566,
394.646,3404.5759,
391.736,3396.4789,
388.825,3348.9623,
385.915,3328.6137,
383.004,3328.7109,
380.094,3346.0711,
377.183,3406.2692,
374.272,3466.9652,
371.362,3517.8334,
368.451,3551.1368,
365.541,3553.3884,
362.630,3572.5722,
359.719,3580.0089,
356.809,3564.2169,
353.898,3617.3816,
350.988,3618.9803,
348.077,3601.9014,
345.167,3588.2488,
342.256,3612.902,
339.345,3607.7771,
336.435,3593.9465,
333.524,3586.9395,
330.614,3616.7457,
327.703,3620.8659,
324.793,3610.0708,
321.882,3593.0324,
318.971,3606.4144,
316.061,3657.3898,
313.150,3694.6834,
310.240,3658.3197,
307.329,3674.8659,
304.418,3691.575,
301.508,3682.1261,
298.597,3603.6419,
295.687,3647.793,
292.776,3644.4999,
289.866,3645.0783,
286.955,3830.4984,
284.044,3915.1899,
281.134,4011.2084,
278.223,4126.3769,
275.313,4190.4833,
272.402,4234.207,
269.492,4286.7347,
266.581,4355.5224,
263.670,4390.8111,
260.760,4430.2535,
257.849,4472.3976,
254.939,4516.4306,
252.028,4472.1216,
249.117,4491.5462,
246.207,4525.5295,
243.296,4488.9276,
240.386,4506.5487,
237.475,4484.5757,
234.565,4419.1515,
231.654,4343.922,
228.743,4292.3272,
225.833,4233.3761,
222.922,4159.6115,
220.012,4172.7255,
217.101,4149.0292,
214.191,4107.9792,
211.280,4067.9687,
208.369,4068.3641,
205.459,4099.1453,
202.548,4139.4902,
199.638,4119.1721,
196.727,4151.3016,
193.816,4158.4335,
190.906,4113.4063,
187.995,4124.9907,
185.085,4154.0614,
182.174,4171.8141,
179.264,4134.2302,
176.353,4143.4564,
173.442,4140.8484,
170.532,4118.4636,
167.621,4079.5309,
164.711,4045.875,
161.800,3959.6266,
158.890,3768.1791,
155.979,3581.6596,
153.068,3308.2868,
150.158,2956.231,
147.247,2552.0239,
144.337,2131.3199,
141.426,1689.5181,
138.516,1221.3881,
135.605,886.80678,
132.694,610.29336,
129.784,391.26542,
126.873,248.95458,
123.963,170.4909,
121.052,117.70238,
118.141,79.151674,
115.231,67.630874,
112.320,54.527281,
109.410,43.272711,
106.499,44.697021,
103.589,41.078219,
100.678,35.012161,
97.767,27.191848,
94.857,25.614022,
91.946,28.224887,
89.036,31.080736,
86.125,19.024246,
83.215,19.716442,
80.304,22.760567,
77.393,22.052397,
74.483,17.414055,
71.572,15.362352,
68.662,15.930733,
65.751,15.224281,
62.840,15,
59.930,15.936431,
57.019,19.461841,
54.109,11.042587,
51.198,7.1112649,
48.288,11.994338,
45.377,11.290959,
42.466,12.236658,
39.556,14.575593,
36.645,18.086544,
33.735,14.846012,
30.824,10.116452,
27.914,7.3117511,
25.003,7,
22.092,6.0312863,
19.182,4.2517115,
16.271,11.946103,
13.361,65.153499,
10.450,135.68266,
7.539,145.45907,
4.629,-35.295366,
1.718,-297.87225,
-1.192,-594.15868,
-4.103,-481.29797,
-7.013,-266.95139,
-9.924,1,
