,PLABB4~1,
Wavenumbers [1/cm],Intensity,
3014.167,4.875,
3011.256,0.37510737,
3008.346,418.31945,
3005.435,498.4121,
3002.525,504.55509,
2999.614,562.58799,
2996.704,548.52037,
2993.793,542.10426,
2990.882,577.64589,
2987.972,602.80437,
2985.061,607.49571,
2982.151,607.9775,
2979.240,657.99001,
2976.329,681.15094,
2973.419,697.01312,
2970.508,718.27496,
2967.598,727.875,
2964.687,730.26291,
2961.777,747.37087,
2958.866,770.88688,
2955.955,797.37052,
2953.045,816.97568,
2950.134,810.95952,
2947.224,841.55825,
2944.313,869.3693,
2941.403,891.38732,
2938.492,885.59858,
2935.581,894.10076,
2932.671,917.95656,
2929.760,922.6673,
2926.850,918.92726,
2923.939,949.31425,
2921.028,955.72798,
2918.118,968.7755,
2915.207,988.7676,
2912.297,971.99348,
2909.386,986.66332,
2906.476,985.09971,
2903.565,984.61722,
2900.654,981.71018,
2897.744,963.88757,
2894.833,971.47282,
2891.923,969.5224,
2889.012,967.33743,
2886.102,943.00204,
2883.191,903.90521,
2880.280,852.51611,
2877.370,713.36355,
2874.459,651.27144,
2871.549,768.48128,
2868.638,956.93263,
2865.727,986.32498,
2862.817,1020.3763,
2859.906,1008.3052,
2856.996,1021.2957,
2854.085,1028.312,
2851.175,1054.0618,
2848.264,1038.728,
2845.353,1055.5731,
2842.443,1042.6736,
2839.532,1043.0989,
2836.622,1069.3301,
2833.711,1066.616,
2830.801,1042.0912,
2827.890,1068.9781,
2824.979,1073.5049,
2822.069,1075.3526,
2819.158,1112.3143,
2816.248,1122.0584,
2813.337,1092.1945,
2810.427,1095.0003,
2807.516,1122.3928,
2804.605,1120.3702,
2801.695,1127.6908,
2798.784,1118.9489,
2795.874,1101.4344,
2792.963,1106.4463,
2790.052,1084.8789,
2787.142,1074.9146,
2784.231,1106.4542,
2781.321,1091.435,
2778.410,1084.0451,
2775.500,1115.0412,
2772.589,1090.7985,
2769.678,1105.7657,
2766.768,1100.2653,
2763.857,1127.7189,
2760.947,1132.3088,
2758.036,1161.6905,
2755.126,1134.7212,
2752.215,1172.916,
2749.304,1125.92,
2746.394,1143.3568,
2743.483,1151.075,
2740.573,1135.1316,
2737.662,1147.9815,
2734.751,1158.2729,
2731.841,1186.7138,
2728.930,1148.447,
2726.020,1164.4416,
2723.109,1183.514,
2720.199,1194.875,
2717.288,1194.875,
2714.377,1198.3583,
2711.467,1208.9563,
2708.556,1234.2262,
2705.646,1234.2553,
2702.735,1239.058,
2699.825,1254.875,
2696.914,1245.97,
2694.003,1242.3888,
2691.093,1235.1602,
2688.182,1216.5291,
2685.272,1245.1936,
2682.361,1246.5104,
2679.450,1240.7516,
2676.540,1265.1392,
2673.629,1273.893,
2670.719,1274.2253,
2667.808,1272.2154,
2664.898,1285.6805,
2661.987,1278.2418,
2659.076,1296.9677,
2656.166,1286.7493,
2653.255,1318.2491,
2650.345,1328.2598,
2647.434,1332.7613,
2644.524,1349.4002,
2641.613,1352.1038,
2638.702,1341.1117,
2635.792,1351.878,
2632.881,1328.875,
2629.971,1334.9824,
2627.060,1390.2131,
2624.149,1348.6594,
2621.239,1378.6917,
2618.328,1359.875,
2615.418,1363.525,
2612.507,1370.2544,
2609.597,1386.2223,
2606.686,1368.5357,
2603.775,1424.7163,
2600.865,1415.1139,
2597.954,1422.6354,
2595.044,1423.1611,
2592.133,1445.493,
2589.223,1417.2118,
2586.312,1436.4378,
2583.401,1459.1999,
2580.491,1466.7933,
2577.580,1464.9014,
2574.670,1481.4285,
2571.759,1468.0111,
2568.848,1461.6375,
2565.938,1494.7322,
2563.027,1469.6046,
2560.117,1479.1928,
2557.206,1491.6425,
2554.296,1495.9574,
2551.385,1482.313,
2548.474,1497.6531,
2545.564,1542.6088,
2542.653,1512.0428,
2539.743,1519.9489,
2536.832,1519.161,
2533.922,1551.0485,
2531.011,1565.1747,
2528.100,1564.8123,
2525.190,1544.2258,
2522.279,1548.6254,
2519.369,1554.8189,
2516.458,1544.994,
2513.548,1560.3476,
2510.637,1569.0757,
2507.726,1547.5069,
2504.816,1560.6292,
2501.905,1571.4549,
2498.995,1593.9347,
2496.084,1594.875,
2493.173,1578.8482,
2490.263,1601.7734,
2487.352,1601.8782,
2484.442,1650.1534,
2481.531,1641.6571,
2478.621,1635.0172,
2475.710,1660.7907,
2472.799,1649.1351,
2469.889,1659.9637,
2466.978,1671.7101,
2464.068,1637.3564,
2461.157,1660.6825,
2458.247,1682.9047,
2455.336,1713.875,
2452.425,1671.0825,
2449.515,1698.5736,
2446.604,1705.5364,
2443.694,1695.0847,
2440.783,1721.6881,
2437.872,1715.0994,
2434.962,1765.7322,
2432.051,1756.0419,
2429.141,1733.5755,
2426.230,1765.6154,
2423.320,1751.1892,
2420.409,1763.8427,
2417.498,1775.2935,
2414.588,1806.0269,
2411.677,1798.0901,
2408.767,1810.1988,
2405.856,1824.6536,
2402.946,1828.0895,
2400.035,1804.0041,
2397.124,1815.9071,
2394.214,1840.8482,
2391.303,1828.4055,
2388.393,1812.1424,
2385.482,1785.0647,
2382.571,1798.8238,
2379.661,1819.9913,
2376.750,1826.5055,
2373.840,1863.603,
2370.929,1873.8642,
2368.019,1893.8276,
2365.108,1889.9195,
2362.197,1906.2914,
2359.287,1895.0934,
2356.376,1959.757,
2353.466,1924.3151,
2350.555,1915.8501,
2347.645,1927.7558,
2344.734,1927.5708,
2341.823,1979.9629,
2338.913,1955.072,
2336.002,1965.4253,
2333.092,1964.0703,
2330.181,1993.7726,
2327.270,2024.5549,
2324.360,2038.842,
2321.449,2034.2016,
2318.539,2049.7648,
2315.628,2021.875,
2312.718,2053.6724,
2309.807,2014.9869,
2306.896,2013.7091,
2303.986,2050.2257,
2301.075,2066.3643,
2298.165,2111.9815,
2295.254,2049.4692,
2292.344,2086.2941,
2289.433,2089.1723,
2286.522,2092.7097,
2283.612,2117.986,
2280.701,2146.3772,
2277.791,2137.1956,
2274.880,2146.373,
2271.969,2163.8668,
2269.059,2188.4608,
2266.148,2182.6613,
2263.238,2198.6665,
2260.327,2204.5647,
2257.417,2210.0794,
2254.506,2203.1343,
2251.595,2214.8713,
2248.685,2246.5999,
2245.774,2214.5241,
2242.864,2269.2441,
2239.953,2223.93,
2237.043,2257.2264,
2234.132,2279.0334,
2231.221,2261.4253,
2228.311,2269.2719,
2225.400,2298.7757,
2222.490,2328.5753,
2219.579,2332.1064,
2216.669,2336.4394,
2213.758,2350.2711,
2210.847,2400.3409,
2207.937,2434.7756,
2205.026,2449.4301,
2202.116,2466.3325,
2199.205,2459.4889,
2196.294,2492.5708,
2193.384,2531.349,
2190.473,2545.0346,
2187.563,2602.9378,
2184.652,2625.2129,
2181.742,2706.5376,
2178.831,2792.4626,
2175.920,2878.9916,
2173.010,3019.1324,
2170.099,3168.3954,
2167.189,3310.0087,
2164.278,3493.2871,
2161.368,3719.152,
2158.457,3974.4334,
2155.546,4168.3704,
2152.636,4419.2575,
2149.725,4646.6735,
2146.815,4818.9698,
2143.904,5026.5218,
2140.993,5161.0599,
2138.083,5244.7351,
2135.172,5289.6987,
2132.262,5311.5009,
2129.351,5311.1198,
2126.441,5175.6998,
2123.530,5041.0914,
2120.619,4768.9037,
2117.709,4539.7542,
2114.798,4264.2699,
2111.888,4007.7538,
2108.977,3748.1332,
2106.067,3493.6827,
2103.156,3320.8182,
2100.245,3176.8248,
2097.335,3082.5452,
2094.424,2968.301,
2091.514,2902.4795,
2088.603,2816.5663,
2085.692,2791.2839,
2082.782,2749.8793,
2079.871,2651.5495,
2076.961,2680.6461,
2074.050,2692.4992,
2071.140,2641.6914,
2068.229,2623.6849,
2065.318,2628.5165,
2062.408,2611.996,
2059.497,2608.0833,
2056.587,2606.6193,
2053.676,2582.8263,
2050.766,2545.5693,
2047.855,2565.0206,
2044.944,2540.6634,
2042.034,2568.557,
2039.123,2552.4339,
2036.213,2552.0462,
2033.302,2574.6575,
2030.391,2564.1975,
2027.481,2550.8994,
2024.570,2555.7748,
2021.660,2593.569,
2018.749,2543.4326,
2015.839,2582.875,
2012.928,2575.7492,
2010.017,2566.1595,
2007.107,2585.4077,
2004.196,2587.7679,
2001.286,2590.5817,
1998.375,2570.7411,
1995.465,2530.4777,
1992.554,2531.3926,
1989.643,2529.9787,
1986.733,2537.7846,
1983.822,2553.0286,
1980.912,2539.4486,
1978.001,2514.9511,
1975.090,2527.0628,
1972.180,2524.1516,
1969.269,2509.648,
1966.359,2521.0914,
1963.448,2519.6478,
1960.538,2528.0476,
1957.627,2545.1413,
1954.716,2494.4262,
1951.806,2531.2853,
1948.895,2504.4458,
1945.985,2523.156,
1943.074,2496.388,
1940.164,2478.8268,
1937.253,2452.8101,
1934.342,2447.4991,
1931.432,2455.5248,
1928.521,2483.9942,
1925.611,2438.4471,
1922.700,2430.4952,
1919.790,2433.1525,
1916.879,2440.317,
1913.968,2468.8406,
1911.058,2448.2804,
1908.147,2444.1261,
1905.237,2466.7132,
1902.326,2445.3476,
1899.415,2436.986,
1896.505,2419.7424,
1893.594,2440.3141,
1890.684,2448.1562,
1887.773,2433.2283,
1884.863,2442.3397,
1881.952,2479.0522,
1879.041,2471.9368,
1876.131,2442.8868,
1873.220,2431.7732,
1870.310,2425.3055,
1867.399,2447.5071,
1864.489,2480.7318,
1861.578,2495.7106,
1858.667,2440.4229,
1855.757,2473.8499,
1852.846,2502.1263,
1849.936,2497.1313,
1847.025,2501.8677,
1844.114,2525.2185,
1841.204,2539.7421,
1838.293,2563.8933,
1835.383,2557.7935,
1832.472,2563.6541,
1829.562,2593.6211,
1826.651,2579.7888,
1823.740,2592.0819,
1820.830,2624.2532,
1817.919,2573.0543,
1815.009,2576.1434,
1812.098,2610.2923,
1809.188,2645.7664,
1806.277,2632.2291,
1803.366,2638.1412,
1800.456,2653.3804,
1797.545,2646.6267,
1794.635,2669.0351,
1791.724,2697.9333,
1788.813,2672.6812,
1785.903,2675.6949,
1782.992,2618.8511,
1780.082,2578.3513,
1777.171,2483.5276,
1774.261,2471.0258,
1771.350,2597.863,
1768.439,2719.3479,
1765.529,2759.5102,
1762.618,2805.502,
1759.708,2810.2549,
1756.797,2788.9205,
1753.887,2805.4129,
1750.976,2786.4922,
1748.065,2828.259,
1745.155,2856.0428,
1742.244,2841.9565,
1739.334,2884.4891,
1736.423,2871.5479,
1733.512,2900.5337,
1730.602,2897.4266,
1727.691,2984.5296,
1724.781,2976.6925,
1721.870,2993.4323,
1718.960,3012.2085,
1716.049,3016.5529,
1713.138,3078.4347,
1710.228,3045.3602,
1707.317,3076.027,
1704.407,3054.8215,
1701.496,3122.0642,
1698.586,3127.027,
1695.675,3152.1391,
1692.764,3217.3054,
1689.854,3241.9223,
1686.943,3207.1228,
1684.033,3318.0188,
1681.122,3330.7051,
1678.211,3415.066,
1675.301,3415.875,
1672.390,3472.0096,
1669.480,3517.6692,
1666.569,3616.4971,
1663.659,3666.2143,
1660.748,3748.4754,
1657.837,3830.881,
1654.927,3877.023,
1652.016,3928.0339,
1649.106,4056.2704,
1646.195,4114.0569,
1643.285,4204.9942,
1640.374,4298.1537,
1637.463,4408.4419,
1634.553,4605.801,
1631.642,4803.242,
1628.732,5020.5756,
1625.821,5306.0556,
1622.911,5580.3197,
1620.000,5943.2639,
1617.089,6389.8999,
1614.179,6810.9178,
1611.268,7149.2717,
1608.358,7548.8648,
1605.447,7817.7342,
1602.536,8003.4103,
1599.626,8043.473,
1596.715,8024.0926,
1593.805,8021.875,
1590.894,7945.2567,
1587.984,7839.6049,
1585.073,7707.4623,
1582.162,7575.0003,
1579.252,7541.4188,
1576.341,7512.4399,
1573.431,7462.8004,
1570.520,7421.8287,
1567.610,7419.581,
1564.699,7320.3708,
1561.788,7210.0447,
1558.878,7101.3572,
1555.967,7012.6825,
1553.057,6851.9108,
1550.146,6692.297,
1547.235,6563.1326,
1544.325,6444.8388,
1541.414,6362.4716,
1538.504,6260.3736,
1535.593,6173.8068,
1532.683,6065.4555,
1529.772,5922.0818,
1526.861,5890.5658,
1523.951,5906.4206,
1521.040,5887.0236,
1518.130,5838.3541,
1515.219,5755.6753,
1512.309,5734.9651,
1509.398,5677.807,
1506.487,5562.2145,
1503.577,5479.8212,
1500.666,5426.2275,
1497.756,5327.3243,
1494.845,5339.7522,
1491.934,5216.7774,
1489.024,5186.9401,
1486.113,5127.4604,
1483.203,5012.7422,
1480.292,4938.6307,
1477.382,4917.3678,
1474.471,4792.0944,
1471.560,4757.7777,
1468.650,4667.9996,
1465.739,4636.7633,
1462.829,4651.2304,
1459.918,4588.9186,
1457.008,4524.7364,
1454.097,4523.7317,
1451.186,4557.8266,
1448.276,4595.8268,
1445.365,4613.4129,
1442.455,4615.8229,
1439.544,4544.696,
1436.633,4511.311,
1433.723,4482.3403,
1430.812,4557.9987,
1427.902,4496.6044,
1424.991,4485.2313,
1422.081,4503.2245,
1419.170,4575.7279,
1416.259,4603.0763,
1413.349,4628.0217,
1410.438,4599.886,
1407.528,4616.4183,
1404.617,4623.8938,
1401.707,4551.6923,
1398.796,4523.6127,
1395.885,4545.3001,
1392.975,4507.2699,
1390.064,4468.1693,
1387.154,4487.1005,
1384.243,4531.1824,
1381.332,4463.4002,
1378.422,4530.5411,
1375.511,4659.8169,
1372.601,4845.2675,
1369.690,4922.595,
1366.780,5016.0387,
1363.869,5137.4024,
1360.958,5179.4965,
1358.048,5322.4899,
1355.137,5449.8904,
1352.227,5570.2939,
1349.316,5697.7611,
1346.406,5757.4869,
1343.495,5843.3106,
1340.584,5914.9453,
1337.674,6002.8111,
1334.763,6119.616,
1331.853,6139.0878,
1328.942,6186.1271,
1326.032,6309.3244,
1323.121,6462.5799,
1320.210,6627.4067,
1317.300,6759.8833,
1314.389,6872.0568,
1311.479,6983.3018,
1308.568,7116.9662,
1305.657,7304.5525,
1302.747,7508.9575,
1299.836,7641.605,
1296.926,7868.1465,
1294.015,8175.2006,
1291.105,8356.0585,
1288.194,8579.3595,
1285.283,8822.4798,
1282.373,9030.4995,
1279.462,9231.5001,
1276.552,9408.206,
1273.641,9527.66,
1270.731,9592.872,
1267.820,9615.0053,
1264.909,9593.0054,
1261.999,9485.574,
1259.088,9504.7286,
1256.178,9355.9951,
1253.267,9191.2454,
1250.356,8913.1907,
1247.446,8579.0921,
1244.535,8282.6388,
1241.625,7948.52,
1238.714,7590.5254,
1235.804,7358.9968,
1232.893,7109.9012,
1229.982,6986.2754,
1227.072,6850.4786,
1224.161,6667.7312,
1221.251,6593.1825,
1218.340,6486.8857,
1215.430,6417.6063,
1212.519,6345.7328,
1209.608,6272.205,
1206.698,6244.0022,
1203.787,6197.7946,
1200.877,6232.9397,
1197.966,6282.3934,
1195.055,6430.7805,
1192.145,6579.0953,
1189.234,6769.746,
1186.324,6917.9723,
1183.413,7008.7634,
1180.503,7042.4201,
1177.592,6999.8038,
1174.681,6924.5942,
1171.771,6907.9684,
1168.860,6868.6724,
1165.950,6867.2939,
1163.039,6890.2239,
1160.129,6846.1982,
1157.218,6771.3776,
1154.307,6718.6312,
1151.397,6676.76,
1148.486,6606.6847,
1145.576,6549.0292,
1142.665,6552.5808,
1139.754,6508.939,
1136.844,6449.1535,
1133.933,6391.5116,
1131.023,6341.7981,
1128.112,6302.3768,
1125.202,6272.6286,
1122.291,6247.7443,
1119.380,6232.7451,
1116.470,6219.5072,
1113.559,6243.3922,
1110.649,6225.9909,
1107.738,6173.7603,
1104.828,6152.358,
1101.917,6150.6434,
1099.006,6101.3699,
1096.096,6084.6062,
1093.185,6080.2162,
1090.275,6131.6683,
1087.364,6181.6118,
1084.453,6278.7449,
1081.543,6370.674,
1078.632,6431.7528,
1075.722,6475.1048,
1072.811,6443.2068,
1069.901,6405.6565,
1066.990,6346.2918,
1064.079,6341.7217,
1061.169,6328.2014,
1058.258,6310.4871,
1055.348,6318.2213,
1052.437,6351.6467,
1049.527,6371.0764,
1046.616,6376.2894,
1043.705,6466.2837,
1040.795,6450.7337,
1037.884,6462.2766,
1034.974,6518.8479,
1032.063,6551.3444,
1029.153,6542.899,
1026.242,6593.0665,
1023.331,6619.8734,
1020.421,6655.5475,
1017.510,6703.0518,
1014.600,6744.2546,
1011.689,6797.7984,
1008.778,6899.8819,
1005.868,7000.6434,
1002.957,7197.6645,
1000.047,7444.8191,
997.136,7671.5318,
994.226,7830.5357,
991.315,7863.1226,
988.404,7780.2797,
985.494,7796.8201,
982.583,7749.7095,
979.673,7756.0446,
976.762,7721.5392,
973.852,7731.8879,
970.941,7778.0967,
968.030,7788.0024,
965.120,7868.0218,
962.209,7902.976,
959.299,7913.8327,
956.388,7923.1545,
953.477,7912.8449,
950.567,7889.0907,
947.656,7886.3179,
944.746,7882.0702,
941.835,7970.9545,
938.925,7969.5013,
936.014,7958.3808,
933.103,7941.9265,
930.193,7902.0857,
927.282,7858.3051,
924.372,7700.1766,
921.461,7592.9798,
918.551,7468.3447,
915.640,7357.9557,
912.729,7248.0822,
909.819,7102.0932,
906.908,7065.8689,
903.998,7096.4849,
901.087,7086.4163,
898.176,7106.8927,
895.266,7177.3759,
892.355,7270.3245,
889.445,7347.5371,
886.534,7399.6371,
883.624,7495.9975,
880.713,7566.9653,
877.802,7553.5354,
874.892,7435.9803,
871.981,7256.8233,
869.071,7169.9403,
866.160,7195.5826,
863.250,7319.2398,
860.339,7409.8634,
857.428,7394.3705,
854.518,7364.6604,
851.607,7288.11,
848.697,7130.4334,
845.786,7065.9129,
842.875,7102.1794,
839.965,7199.1283,
837.054,7342.1913,
834.144,7370.3689,
831.233,7312.5462,
828.323,7294.723,
825.412,7272.1712,
822.501,7175.2149,
819.591,7066.1302,
816.680,6925.0542,
813.770,6838.8753,
810.859,6740.6401,
807.949,6648.6774,
805.038,6613.6117,
802.127,6545.2921,
799.217,6547.0743,
796.306,6526.037,
793.396,6486.0732,
790.485,6462.8252,
787.574,6505.3385,
784.664,6543.8837,
781.753,6647.4967,
778.843,6746.8237,
775.932,6810.4427,
773.022,6820.59,
770.111,6747.8256,
767.200,6664.4598,
764.290,6621.3829,
761.379,6594.0896,
758.469,6586.6866,
755.558,6636.2492,
752.648,6548.272,
749.737,6543.278,
746.826,6483.6716,
743.916,6391.4007,
741.005,6333.1935,
738.095,6194.3625,
735.184,6045.589,
732.274,6032.8432,
729.363,6149.5703,
726.452,6320.1307,
723.542,6382.454,
720.631,6499.0268,
717.721,6584.2854,
714.810,6620.3523,
711.899,6622.0136,
708.989,6639.766,
706.078,6610.2268,
703.168,6626.5566,
700.257,6604.7435,
697.347,6551.0055,
694.436,6546.8494,
691.525,6509.0705,
688.615,6515.9689,
685.704,6554.6619,
682.794,6601.5983,
679.883,6629.1818,
676.973,6680.4695,
674.062,6671.0945,
671.151,6642.3418,
668.241,6610.3451,
665.330,6577.4548,
662.420,6526.3359,
659.509,6524.1291,
656.598,6568.688,
653.688,6643.6492,
650.777,6722.7373,
647.867,6807.148,
644.956,6768.9132,
642.046,6660.0765,
639.135,6559.8576,
636.224,6574.8591,
633.314,6571.6833,
630.403,6534.2199,
627.493,6510.4113,
624.582,6506.5184,
621.672,6478.0066,
618.761,6516.3918,
615.850,6559.1793,
612.940,6601.2933,
610.029,6626.7206,
607.119,6577.7635,
604.208,6527.4342,
601.297,6497.9076,
598.387,6507.2259,
595.476,6557.6522,
592.566,6555.291,
589.655,6431.7759,
586.745,6388.3093,
583.834,6400.4299,
580.923,6335.3062,
578.013,6406.717,
575.102,6406.373,
572.192,6417.5995,
569.281,6468.093,
566.371,6491.5717,
563.460,6516.45,
560.549,6523.9259,
557.639,6537.1831,
554.728,6582.4225,
551.818,6638.6053,
548.907,6699.0186,
545.996,6723.2656,
543.086,6713.0428,
540.175,6713.8214,
537.265,6720.3935,
534.354,6752.4747,
531.444,6793.5786,
528.533,6828.1792,
525.622,6888.7031,
522.712,6981.3597,
519.801,7056.1697,
516.891,7101.8568,
513.980,7141.3458,
511.070,7246.301,
508.159,7369.5837,
505.248,7496.6812,
502.338,7615.6764,
499.427,7711.3836,
496.517,7797.9658,
493.606,7866.747,
490.695,7923.0341,
487.785,8017.7183,
484.874,8056.7853,
481.964,8051.6028,
479.053,8028.6329,
476.143,8040.1523,
473.232,7966.7764,
470.321,7946.6334,
467.411,7971.8304,
464.500,8020.8143,
461.590,8097.3884,
458.679,8124.3779,
455.769,8197.559,
452.858,8353.0787,
449.947,8412.6654,
447.037,8446.1116,
444.126,8507.1962,
441.216,8595.0186,
438.305,8636.1629,
435.395,8712.0281,
432.484,8738.8729,
429.573,8727.1825,
426.663,8737.0644,
423.752,8527.2545,
420.842,8277.8616,
417.931,8076.9469,
415.020,8031.4454,
412.110,8718.323,
409.199,9093.1243,
406.289,9234.1579,
403.378,9274.291,
400.468,9101.9243,
397.557,9086.4645,
394.646,9199.2918,
391.736,9402.9816,
388.825,9375.0751,
385.915,9374.8579,
383.004,9422.9932,
380.094,9532.7466,
377.183,9667.4399,
374.272,9691.8483,
371.362,9701.7722,
368.451,9758.6225,
365.541,9869.7018,
362.630,9916.2622,
359.719,9934.6105,
356.809,9945.875,
353.898,9945.875,
350.988,9930.6854,
348.077,9928.6201,
345.167,9956.3887,
342.256,9986.2714,
339.345,9935.886,
336.435,9906.0824,
333.524,9965.754,
330.614,10025.366,
327.703,10030.526,
324.793,10069.949,
321.882,10219.94,
318.971,10246.704,
316.061,10346.701,
313.150,10471.668,
310.240,10567.401,
307.329,10612.324,
304.418,10642.098,
301.508,10649.407,
298.597,10617.569,
295.687,10598.621,
292.776,10660.042,
289.866,10794.863,
286.955,10975.113,
284.044,11061.595,
281.134,11139.088,
278.223,11218.527,
275.313,11270.844,
272.402,11335.318,
269.492,11391.619,
266.581,11431.241,
263.670,11450.356,
260.760,11571.322,
257.849,11737.952,
254.939,11912.616,
252.028,11926.457,
249.117,11959.655,
246.207,11997.663,
243.296,12012.304,
240.386,12068.073,
237.475,12117.621,
234.565,12147.769,
231.654,12128.049,
228.743,12153.794,
225.833,12177.399,
222.922,12183.355,
220.012,12236.54,
217.101,12260.254,
214.191,12283.486,
211.280,12338.773,
208.369,12316.635,
205.459,12302.278,
202.548,12301.755,
199.638,12312.64,
196.727,12357.515,
193.816,12367.803,
190.906,12321.338,
187.995,12391.569,
185.085,12443.773,
182.174,12487.412,
179.264,12533.669,
176.353,12589.497,
173.442,12628.389,
170.532,12638.306,
167.621,12564.767,
164.711,12324.662,
161.800,11983.577,
158.890,11566.855,
155.979,10897.083,
153.068,10071.572,
150.158,9084.3921,
147.247,7853.104,
144.337,6527.7249,
141.426,5193.0848,
138.516,3886.909,
135.605,2765.361,
132.694,1870.2263,
129.784,1198.1972,
126.873,809.88173,
123.963,560.72303,
121.052,390.51477,
118.141,286.28508,
115.231,228.3188,
112.320,183.6932,
109.410,149.14808,
106.499,119.23756,
103.589,116.79678,
100.678,111.45473,
97.767,89.415662,
94.857,83.331088,
91.946,82.487443,
89.036,82.842838,
86.125,70.077143,
83.215,58.911195,
80.304,51.635567,
77.393,50.927397,
74.483,48.909595,
71.572,48.237352,
68.662,49.42914,
65.751,55.080749,
62.840,50.131172,
59.930,42.687714,
57.019,41.982632,
54.109,35.306231,
51.198,29.065344,
48.288,24.858013,
45.377,22.747878,
42.466,20.638342,
39.556,18.759881,
36.645,18.057691,
33.735,20.471242,
30.824,21.770565,
27.914,18.264689,
25.003,20.988187,
22.092,18.031432,
19.182,7.6232885,
16.271,-0.071102946,
13.361,-84.887848,
10.450,-278.97423,
7.539,-754.52699,
4.629,-1220.4485,
1.718,-1476.1246,
-1.192,-1264.1927,
-4.103,-808.11034,
-7.013,-370.60119,
-9.924,-3.125,
