,PLDF41~1,
Wavenumbers [1/cm],Intensity,
3014.167,2.375,
3011.256,0.77508589,
3008.346,396.44459,
3005.435,446.02871,
3002.525,448.54502,
2999.614,507.43341,
2996.704,498.59665,
2993.793,518.87039,
2990.882,537.62683,
2987.972,538.29933,
2985.061,552.19277,
2982.151,583.97163,
2979.240,591.27423,
2976.329,610.4023,
2973.419,631.54368,
2970.508,663.62495,
2967.598,653.71315,
2964.687,677.03193,
2961.777,669.75103,
2958.866,707.38094,
2955.955,716.82852,
2953.045,744.20946,
2950.134,759.04557,
2947.224,772.51375,
2944.313,800.58867,
2941.403,805.62545,
2938.492,807.41838,
2935.581,827.375,
2932.671,826.85569,
2929.760,833.04808,
2926.850,842.00921,
2923.939,868.85161,
2921.028,881.91619,
2918.118,876.71631,
2915.207,901.50176,
2912.297,874.53156,
2909.386,894.76187,
2906.476,880.50703,
2903.565,879.74611,
2900.654,891.44475,
2897.744,859.33728,
2894.833,853.48846,
2891.923,851.8077,
2889.012,817.91257,
2886.102,804.1926,
2883.191,758.40143,
2880.280,535.05915,
2877.370,181.60825,
2874.459,37.90411,
2871.549,369.40376,
2868.638,764.80779,
2865.727,834.39026,
2862.817,861.05951,
2859.906,865.31232,
2856.996,896.80028,
2854.085,906.33297,
2851.175,928.6793,
2848.264,925.77732,
2845.353,940.66329,
2842.443,915.96177,
2839.532,945.22564,
2836.622,985.39714,
2833.711,950.05632,
2830.801,936.28897,
2827.890,957.18794,
2824.979,972.85691,
2822.069,968.70479,
2819.158,1002.6958,
2816.248,1004.6511,
2813.337,1019.5604,
2810.427,1006.8089,
2807.516,1008.375,
2804.605,1005.3534,
2801.695,1008.1645,
2798.784,1022.6358,
2795.874,987.9502,
2792.963,1001.0897,
2790.052,1006.3759,
2787.142,973.92769,
2784.231,983.21351,
2781.321,974.56934,
2778.410,992.78997,
2775.500,1001.0336,
2772.589,1011.9522,
2769.678,1018.2316,
2766.768,1012.2585,
2763.857,1023.481,
2760.947,1031.8908,
2758.036,1051.3178,
2755.126,1056.375,
2752.215,1062.2251,
2749.304,1036.8445,
2746.394,1045.1854,
2743.483,1063.225,
2740.573,1042.4214,
2737.662,1047.0555,
2734.751,1053.5838,
2731.841,1061.1864,
2728.930,1061.6418,
2726.020,1073.5943,
2723.109,1078.4677,
2720.199,1079.7468,
2717.288,1098.7071,
2714.377,1076.0255,
2711.467,1105.0629,
2708.556,1120.9072,
2705.646,1113.7553,
2702.735,1127.5528,
2699.825,1143.2659,
2696.914,1123.2791,
2694.003,1133.7604,
2691.093,1138.1608,
2688.182,1138.8476,
2685.272,1119.4461,
2682.361,1142.5868,
2679.450,1133.589,
2676.540,1149.5579,
2673.629,1153.3974,
2670.719,1147.229,
2667.808,1172.2077,
2664.898,1153.6085,
2661.987,1181.0085,
2659.076,1177.028,
2656.166,1187.3101,
2653.255,1181.8937,
2650.345,1187.6472,
2647.434,1207.6891,
2644.524,1193.8114,
2641.613,1186.1179,
2638.702,1190.3277,
2635.792,1212.4677,
2632.881,1238.2735,
2629.971,1200.7707,
2627.060,1205.3713,
2624.149,1226.6469,
2621.239,1237.4165,
2618.328,1222.8413,
2615.418,1236.0295,
2612.507,1243.2367,
2609.597,1262.5387,
2606.686,1227.2445,
2603.775,1262.7401,
2600.865,1272.4944,
2597.954,1301.7521,
2595.044,1294.6611,
2592.133,1292.5341,
2589.223,1295.074,
2586.312,1308.5207,
2583.401,1307.5173,
2580.491,1309.1971,
2577.580,1340.3618,
2574.670,1327.9472,
2571.759,1330.6883,
2568.848,1311.9163,
2565.938,1342.6608,
2563.027,1329.6682,
2560.117,1341.7302,
2557.206,1342.6628,
2554.296,1357.8601,
2551.385,1364.5731,
2548.474,1364.4118,
2545.564,1364.2167,
2542.653,1379.1334,
2539.743,1376.7703,
2536.832,1383.1096,
2533.922,1399.5642,
2531.011,1409.4502,
2528.100,1379.3192,
2525.190,1389.7885,
2522.279,1379.0316,
2519.369,1399.9217,
2516.458,1419.5988,
2513.548,1429.4658,
2510.637,1408.5432,
2507.726,1422.94,
2504.816,1426.0638,
2501.905,1426.2591,
2498.995,1428.8235,
2496.084,1453.577,
2493.173,1433.428,
2490.263,1463.1163,
2487.352,1457.9577,
2484.442,1457.2037,
2481.531,1475.6889,
2478.621,1503.8538,
2475.710,1489.329,
2472.799,1487.8144,
2469.889,1497.4969,
2466.978,1518.6325,
2464.068,1500.6024,
2461.157,1522.7225,
2458.247,1537.331,
2455.336,1543.4396,
2452.425,1526.1108,
2449.515,1543.1671,
2446.604,1538.656,
2443.694,1548.9095,
2440.783,1574.5721,
2437.872,1559.2866,
2434.962,1577.8589,
2432.051,1567.7393,
2429.141,1584.7631,
2426.230,1596.8535,
2423.320,1609.9756,
2420.409,1602.6375,
2417.498,1623.3918,
2414.588,1624.2799,
2411.677,1587.5982,
2408.767,1639.0276,
2405.856,1619.5345,
2402.946,1621.9523,
2400.035,1649.145,
2397.124,1628.5889,
2394.214,1638.9194,
2391.303,1652.4746,
2388.393,1625.4168,
2385.482,1596.5647,
2382.571,1565.172,
2379.661,1596.8631,
2376.750,1651.8428,
2373.840,1662.5313,
2370.929,1743.4653,
2368.019,1734.7605,
2365.108,1725.7022,
2362.197,1726.0984,
2359.287,1741.3666,
2356.376,1776.3151,
2353.466,1743.9657,
2350.555,1757.4354,
2347.645,1774.9671,
2344.734,1783.2552,
2341.823,1770.6237,
2338.913,1790.8616,
2336.002,1802.375,
2333.092,1798.4325,
2330.181,1817.2547,
2327.270,1862.1748,
2324.360,1831.6179,
2321.449,1845.6641,
2318.539,1828.3781,
2315.628,1854.1648,
2312.718,1845.6591,
2309.807,1865.1017,
2306.896,1860.8711,
2303.986,1874.1673,
2301.075,1886.5878,
2298.165,1894.3464,
2295.254,1875.8489,
2292.344,1895.2713,
2289.433,1895.4214,
2286.522,1897.6206,
2283.612,1922.1875,
2280.701,1944.2988,
2277.791,1966.375,
2274.880,1970.6549,
2271.969,1979.412,
2269.059,1978.9881,
2266.148,1999.0478,
2263.238,2017.7688,
2260.327,1988.2717,
2257.417,2012.9478,
2254.506,2032.3379,
2251.595,1995.095,
2248.685,2024.9922,
2245.774,2049.0891,
2242.864,2066.3102,
2239.953,2066.7405,
2237.043,2076.83,
2234.132,2089.2295,
2231.221,2085.269,
2228.311,2105.8608,
2225.400,2120.178,
2222.490,2122.2872,
2219.579,2177.7864,
2216.669,2190.4656,
2213.758,2196.162,
2210.847,2193.2541,
2207.937,2210.4792,
2205.026,2210.5969,
2202.116,2230.6011,
2199.205,2266.387,
2196.294,2284.805,
2193.384,2305.585,
2190.473,2349.9842,
2187.563,2388.5973,
2184.652,2436.333,
2181.742,2467.7639,
2178.831,2544.0755,
2175.920,2639.4115,
2173.010,2753.4306,
2170.099,2891.2957,
2167.189,3071.1069,
2164.278,3198.2001,
2161.368,3409.7961,
2158.457,3631.579,
2155.546,3860.0349,
2152.636,4038.8429,
2149.725,4266.7775,
2146.815,4425.2706,
2143.904,4581.2262,
2140.993,4719.3431,
2138.083,4801.1195,
2135.172,4868.333,
2132.262,4900.9137,
2129.351,4840.347,
2126.441,4727.9087,
2123.530,4645.5129,
2120.619,4361.4497,
2117.709,4118.3939,
2114.798,3918.7395,
2111.888,3658.5934,
2108.977,3396.2292,
2106.067,3206.3767,
2103.156,3037.5199,
2100.245,2884.3211,
2097.335,2788.8619,
2094.424,2701.4238,
2091.514,2618.6328,
2088.603,2574.7483,
2085.692,2537.1819,
2082.782,2478.9816,
2079.871,2451.5885,
2076.961,2423.1186,
2074.050,2435.5023,
2071.140,2419.5013,
2068.229,2413.1289,
2065.318,2376.9302,
2062.408,2387.6254,
2059.497,2388.1428,
2056.587,2363.8985,
2053.676,2382.0569,
2050.766,2329.2248,
2047.855,2337.5744,
2044.944,2348.6314,
2042.034,2374.242,
2039.123,2352.7521,
2036.213,2333.2195,
2033.302,2357.9617,
2030.391,2338.4606,
2027.481,2367.4965,
2024.570,2340.3904,
2021.660,2401.9994,
2018.749,2366.2733,
2015.839,2338.644,
2012.928,2349.7995,
2010.017,2374.5574,
2007.107,2360.7937,
2004.196,2367.5179,
2001.286,2368.5411,
1998.375,2363.2874,
1995.465,2334.8438,
1992.554,2334.3867,
1989.643,2353.7183,
1986.733,2304.6224,
1983.822,2340.5663,
1980.912,2322.3853,
1978.001,2339.6885,
1975.090,2319.2559,
1972.180,2299.4428,
1969.269,2311.8089,
1966.359,2313.321,
1963.448,2309.9919,
1960.538,2280.7837,
1957.627,2345.7063,
1954.716,2274.7306,
1951.806,2288.9215,
1948.895,2303.711,
1945.985,2323.9796,
1943.074,2291.0207,
1940.164,2284.365,
1937.253,2258.388,
1934.342,2241.1953,
1931.432,2208.8293,
1928.521,2251.0279,
1925.611,2255.3103,
1922.700,2236.8778,
1919.790,2249.8777,
1916.879,2249.5842,
1913.968,2264.3566,
1911.058,2243.402,
1908.147,2209.6116,
1905.237,2245.7058,
1902.326,2180.7039,
1899.415,2173.4433,
1896.505,2117.6761,
1893.594,2117.189,
1890.684,2178.0413,
1887.773,2218.1339,
1884.863,2198.6187,
1881.952,2254.8469,
1879.041,2233.2031,
1876.131,2226.3332,
1873.220,2195.251,
1870.310,2237.7157,
1867.399,2232.5189,
1864.489,2267.6351,
1861.578,2249.842,
1858.667,2258.6295,
1855.757,2277.5958,
1852.846,2266.1852,
1849.936,2292.9105,
1847.025,2296.3068,
1844.114,2325.0973,
1841.204,2310.7876,
1838.293,2332.8492,
1835.383,2335.8055,
1832.472,2353.248,
1829.562,2371.0974,
1826.651,2339.605,
1823.740,2329.0149,
1820.830,2362.0131,
1817.919,2382.7763,
1815.009,2409.3496,
1812.098,2382.8553,
1809.188,2424.3982,
1806.277,2373.5923,
1803.366,2440.2105,
1800.456,2373.4084,
1797.545,2409.5735,
1794.635,2424.084,
1791.724,2446.1711,
1788.813,2454.5611,
1785.903,2412.0785,
1782.992,2371.9904,
1780.082,2194.3149,
1777.171,2002.0158,
1774.261,1979.8365,
1771.350,2225.3298,
1768.439,2438.5503,
1765.529,2499.65,
1762.618,2521.6219,
1759.708,2530.9076,
1756.797,2536.678,
1753.887,2565.7613,
1750.976,2588.3233,
1748.065,2609.4226,
1745.155,2597.1042,
1742.244,2561.5245,
1739.334,2609.9444,
1736.423,2619.0049,
1733.512,2660.1272,
1730.602,2674.6349,
1727.691,2666.4661,
1724.781,2665.9482,
1721.870,2737.9992,
1718.960,2709.33,
1716.049,2750.5525,
1713.138,2802.2698,
1710.228,2782.3958,
1707.317,2803.143,
1704.407,2826.1397,
1701.496,2900.3873,
1698.586,2898.1352,
1695.675,2914.2178,
1692.764,2922.9488,
1689.854,2929.1152,
1686.943,2959.3295,
1684.033,2988.6547,
1681.122,3095.5398,
1678.211,3130.0609,
1675.301,3131.3719,
1672.390,3181.5664,
1669.480,3245.7921,
1666.569,3298.8096,
1663.659,3410.4893,
1660.748,3419.7659,
1657.837,3541.1126,
1654.927,3531.015,
1652.016,3603.0685,
1649.106,3751.8401,
1646.195,3773.0843,
1643.285,3885.8359,
1640.374,3992.7757,
1637.463,4061.5456,
1634.553,4237.0941,
1631.642,4420.7746,
1628.732,4640.3764,
1625.821,4808.6288,
1622.911,5194.1886,
1620.000,5504.4442,
1617.089,5855.3302,
1614.179,6217.0816,
1611.268,6639.4629,
1608.358,7018.5354,
1605.447,7250.4053,
1602.536,7348.1767,
1599.626,7434.4092,
1596.715,7447.7282,
1593.805,7307.9649,
1590.894,7282.5683,
1587.984,7228.5434,
1585.073,7139.5474,
1582.162,7059.419,
1579.252,6985.0024,
1576.341,6953.7516,
1573.431,6901.6014,
1570.520,6883.0244,
1567.610,6862.0022,
1564.699,6728.4948,
1561.788,6640.2345,
1558.878,6513.4501,
1555.967,6424.7171,
1553.057,6302.0312,
1550.146,6175.7752,
1547.235,6063.7165,
1544.325,5932.8073,
1541.414,5828.3306,
1538.504,5726.0669,
1535.593,5605.8929,
1532.683,5499.9762,
1529.772,5430.7127,
1526.861,5408.961,
1523.951,5393.0752,
1521.040,5362.783,
1518.130,5309.4773,
1515.219,5241.3343,
1512.309,5242.5731,
1509.398,5156.3962,
1506.487,5064.7225,
1503.577,4977.7298,
1500.666,4952.9733,
1497.756,4879.7481,
1494.845,4887.7303,
1491.934,4680.4695,
1489.024,4709.3443,
1486.113,4647.3243,
1483.203,4578.4269,
1480.292,4471.9477,
1477.382,4486.7049,
1474.471,4343.2013,
1471.560,4345.269,
1468.650,4288.8982,
1465.739,4244.7676,
1462.829,4177.306,
1459.918,4132.0601,
1457.008,4130.8981,
1454.097,4119.8967,
1451.186,4136.1487,
1448.276,4176.4232,
1445.365,4191.6286,
1442.455,4218.7958,
1439.544,4163.2414,
1436.633,4114.2002,
1433.723,4118.1107,
1430.812,4147.9764,
1427.902,4104.8113,
1424.991,4081.1172,
1422.081,4089.5498,
1419.170,4182.8295,
1416.259,4186.8442,
1413.349,4217.6056,
1410.438,4233.9732,
1407.528,4193.888,
1404.617,4152.7612,
1401.707,4105.3989,
1398.796,4076.7351,
1395.885,4100.0445,
1392.975,4109.895,
1390.064,4068.7831,
1387.154,4066.8244,
1384.243,4092.6487,
1381.332,4047.7735,
1378.422,4146.5724,
1375.511,4286.1528,
1372.601,4426.6106,
1369.690,4483.8078,
1366.780,4608.5962,
1363.869,4653.9045,
1360.958,4714.8332,
1358.048,4849.5778,
1355.137,4926.5805,
1352.227,4993.5126,
1349.316,5109.5909,
1346.406,5203.7517,
1343.495,5299.011,
1340.584,5411.3026,
1337.674,5483.0935,
1334.763,5550.6212,
1331.853,5635.9265,
1328.942,5698.0796,
1326.032,5781.2277,
1323.121,5899.8871,
1320.210,6066.5614,
1317.300,6167.1987,
1314.389,6289.0158,
1311.479,6439.0445,
1308.568,6562.5842,
1305.657,6701.7902,
1302.747,6869.567,
1299.836,7043.0878,
1296.926,7270.3226,
1294.015,7441.3168,
1291.105,7664.1077,
1288.194,7895.457,
1285.283,8167.62,
1282.373,8299.6717,
1279.462,8465.3723,
1276.552,8642.6272,
1273.641,8766.7607,
1270.731,8843.5541,
1267.820,8808.6642,
1264.909,8768.2223,
1261.999,8851.0462,
1259.088,8759.8341,
1256.178,8597.6435,
1253.267,8426.3751,
1250.356,8180.5533,
1247.446,7904.8365,
1244.535,7613.3621,
1241.625,7300.4458,
1238.714,6995.146,
1235.804,6742.2588,
1232.893,6543.5245,
1229.982,6428.3887,
1227.072,6310.6981,
1224.161,6169.5754,
1221.251,6068.4351,
1218.340,5990.55,
1215.430,5893.0075,
1212.519,5808.3039,
1209.608,5743.8987,
1206.698,5693.9922,
1203.787,5701.184,
1200.877,5657.7829,
1197.966,5761.1862,
1195.055,5943.8507,
1192.145,6093.8386,
1189.234,6255.348,
1186.324,6427.7488,
1183.413,6518.1415,
1180.503,6510.2573,
1177.592,6468.3038,
1174.681,6392.3339,
1171.771,6371.0659,
1168.860,6357.6696,
1165.950,6384.5951,
1163.039,6291.5034,
1160.129,6284.3562,
1157.218,6238.7068,
1154.307,6144.9368,
1151.397,6112.5075,
1148.486,6095.0839,
1145.576,6041.0644,
1142.665,6010.8753,
1139.754,5950.6074,
1136.844,5903.0602,
1133.933,5857.2902,
1131.023,5824.0447,
1128.112,5809.5895,
1125.202,5791.3992,
1122.291,5743.7483,
1119.380,5739.1411,
1116.470,5715.3129,
1113.559,5711.6018,
1110.649,5700.8975,
1107.738,5683.0512,
1104.828,5641.5836,
1101.917,5601.9254,
1099.006,5607.9215,
1096.096,5596.6438,
1093.185,5601.0338,
1090.275,5677.4464,
1087.364,5742.7175,
1084.453,5811.622,
1081.543,5875.9829,
1078.632,5932.059,
1075.722,5972.6735,
1072.811,5949.1483,
1069.901,5903.7387,
1066.990,5888.25,
1064.079,5878.5699,
1061.169,5800.8143,
1058.258,5772.5599,
1055.348,5818.4327,
1052.437,5826.8188,
1049.527,5846.7918,
1046.616,5909.3475,
1043.705,5917.1458,
1040.795,5930.7836,
1037.884,5960.1217,
1034.974,5982.8647,
1032.063,5992.5286,
1029.153,6022.2299,
1026.242,6079.317,
1023.331,6078.0419,
1020.421,6103.8649,
1017.510,6155.1546,
1014.600,6215.1342,
1011.689,6274.9001,
1008.778,6334.8784,
1005.868,6385.9812,
1002.957,6564.9349,
1000.047,6815.1431,
997.136,7066.3502,
994.226,7218.2822,
991.315,7267.6819,
988.404,7268.162,
985.494,7184.0489,
982.583,7169.4875,
979.673,7162.2535,
976.762,7180.3365,
973.852,7200.1211,
970.941,7215.0809,
968.030,7241.3404,
965.120,7286.2497,
962.209,7256.4107,
959.299,7249.2503,
956.388,7284.7727,
953.477,7310.4978,
950.567,7302.7151,
947.656,7290.481,
944.746,7276.0386,
941.835,7327.2031,
938.925,7331.4784,
936.014,7340.0207,
933.103,7314.5939,
930.193,7241.1801,
927.282,7218.6464,
924.372,7112.9456,
921.461,7011.7434,
918.551,6868.8358,
915.640,6739.0815,
912.729,6636.6836,
909.819,6534.482,
906.908,6497.4153,
903.998,6530.371,
901.087,6534.283,
898.176,6581.0033,
895.266,6653.4667,
892.355,6695.9874,
889.445,6715.2905,
886.534,6801.3668,
883.624,6884.9854,
880.713,6957.6931,
877.802,6944.961,
874.892,6781.271,
871.981,6476.9239,
869.071,6203.7439,
866.160,6357.8432,
863.250,6614.5473,
860.339,6805.1101,
857.428,6866.8096,
854.518,6821.0792,
851.607,6638.024,
848.697,6367.7025,
845.786,6284.2854,
842.875,6368.8955,
839.965,6530.255,
837.054,6744.2727,
834.144,6735.1564,
831.233,6712.7098,
828.323,6675.1736,
825.412,6643.8334,
822.501,6619.6937,
819.591,6527.137,
816.680,6412.1953,
813.770,6281.0021,
810.859,6185.9832,
807.949,6143.9969,
805.038,6137.8861,
802.127,6117.3079,
799.217,6040.0905,
796.306,6011.5371,
793.396,5992.245,
790.485,5958.2153,
787.574,5935.9522,
784.664,6056.5087,
781.753,6140.7765,
778.843,6213.032,
775.932,6269.6464,
773.022,6289.2312,
770.111,6223.8249,
767.200,6181.3094,
764.290,6123.1448,
761.379,6080.316,
758.469,6053.1912,
755.558,6002.4511,
752.648,5971.4962,
749.737,5997.3617,
746.826,5989.6653,
743.916,5940.7124,
741.005,5865.6409,
738.095,5673.2261,
735.184,5511.6534,
732.274,5491.0842,
729.363,5593.9921,
726.452,5757.1555,
723.542,5877.7551,
720.631,6002.8785,
717.721,6064.5802,
714.810,6080.7102,
711.899,6081.8305,
708.989,6105.2313,
706.078,6118.9971,
703.168,6085.3345,
700.257,6034.9704,
697.347,5997.5924,
694.436,5999.3133,
691.525,6033.877,
688.615,6027.539,
685.704,6034.4843,
682.794,6055.0771,
679.883,6060.0783,
676.973,6120.1811,
674.062,6147.0509,
671.151,6141.7868,
668.241,6110.3184,
665.330,6063.2573,
662.420,6018.5283,
659.509,6023.3435,
656.598,6056.4745,
653.688,6115.3698,
650.777,6204.4002,
647.867,6264.1248,
644.956,6242.7026,
642.046,6089.1182,
639.135,5906.5672,
636.224,5922.6615,
633.314,5979.825,
630.403,5980.1859,
627.493,5974.9839,
624.582,5978.8436,
621.672,5963.0037,
618.761,5977.5738,
615.850,5990.0888,
612.940,6000.815,
610.029,6015.6881,
607.119,6053.5904,
604.208,6028.2645,
601.297,6026.8439,
598.387,6038.8082,
595.476,6041.855,
592.566,6036.3456,
589.655,5969.2902,
586.745,5906.4689,
583.834,5877.9625,
580.923,5901.2044,
578.013,5872.954,
575.102,5888.8921,
572.192,5920.6664,
569.281,5951.5772,
566.371,5980.5343,
563.460,6005.2445,
560.549,6005.604,
557.639,6017.3229,
554.728,6076.0502,
551.818,6102.581,
548.907,6118.735,
545.996,6153.7566,
543.086,6198.7105,
540.175,6200.2678,
537.265,6216.3091,
534.354,6233.9139,
531.444,6244.8177,
528.533,6250.935,
525.622,6357.2397,
522.712,6436.1963,
519.801,6496.8153,
516.891,6543.4177,
513.980,6578.261,
511.070,6663.7836,
508.159,6745.1765,
505.248,6849.2015,
502.338,7010.5379,
499.427,7118.5944,
496.517,7245.7991,
493.606,7324.7399,
490.695,7333.5147,
487.785,7348.9105,
484.874,7390.1484,
481.964,7415.5278,
479.053,7414.7561,
476.143,7387.1095,
473.232,7304.8018,
470.321,7297.7038,
467.411,7319.3228,
464.500,7310.9046,
461.590,7450.2693,
458.679,7531.1974,
455.769,7611.6894,
452.858,7713.3294,
449.947,7722.4966,
447.037,7780.197,
444.126,7878.8538,
441.216,7974.5274,
438.305,7912.049,
435.395,7963.0379,
432.484,7995.6253,
429.573,7994.0025,
426.663,7979.5598,
423.752,7627.5732,
420.842,7146.5611,
417.931,6779.5075,
415.020,6864.4436,
412.110,7718.2411,
409.199,8232.8198,
406.289,8400.5907,
403.378,8266.0804,
400.468,8179.1411,
397.557,8200.2192,
394.646,8333.9123,
391.736,8572.7513,
388.825,8615.7424,
385.915,8645.9374,
383.004,8678.2221,
380.094,8722.9087,
377.183,8772.5721,
374.272,8874.3054,
371.362,8971.6269,
368.451,9028.2868,
365.541,9043.2975,
362.630,9100.9066,
359.719,9142.7113,
356.809,9136.6015,
353.898,9140.3455,
350.988,9109.9108,
348.077,9113.8679,
345.167,9187.8074,
342.256,9176.6014,
339.345,9173.9064,
336.435,9161.8833,
333.524,9129.5159,
330.614,9133.9869,
327.703,9180.0413,
324.793,9225.2107,
321.882,9233.7211,
318.971,9376.4621,
316.061,9468.3466,
313.150,9552.8678,
310.240,9679.7696,
307.329,9753.6948,
304.418,9783.1988,
301.508,9782.0273,
298.597,9769.4402,
295.687,9749.4123,
292.776,9772.0418,
289.866,9848.2916,
286.955,9999.7303,
284.044,10125.105,
281.134,10192.04,
278.223,10225.47,
275.313,10376.525,
272.402,10419.993,
269.492,10405.245,
266.581,10354.271,
263.670,10338.833,
260.760,10511.463,
257.849,10721.621,
254.939,10859.591,
252.028,10882.367,
249.117,10922.353,
246.207,10981.778,
243.296,11064.499,
240.386,11175.242,
237.475,11215.16,
234.565,11191.34,
231.654,11184.766,
228.743,11152.88,
225.833,11162.999,
222.922,11236.152,
220.012,11209.924,
217.101,11260.261,
214.191,11323.998,
211.280,11332.727,
208.369,11348.85,
205.459,11328.427,
202.548,11287.127,
199.638,11291.481,
196.727,11308.509,
193.816,11325.191,
190.906,11335.994,
187.995,11325.134,
185.085,11360.149,
182.174,11419.633,
179.264,11479.623,
176.353,11558.783,
173.442,11598.65,
170.532,11592.167,
167.621,11547.466,
164.711,11321.469,
161.800,10974.772,
158.890,10524.942,
155.979,9956.9749,
153.068,9229.5226,
150.158,8345.4746,
147.247,7282.1873,
144.337,6028.7986,
141.426,4760.6146,
138.516,3556.2373,
135.605,2549.8397,
132.694,1745.8031,
129.784,1137.8783,
126.873,771.01672,
123.963,521.1014,
121.052,345.31504,
118.141,236.80193,
115.231,199.42534,
112.320,165.31138,
109.410,134.46621,
106.499,108.82862,
103.589,100.01347,
100.678,94.11554,
97.767,85.584289,
94.857,75.673153,
91.946,69.359446,
89.036,65.697613,
86.125,61.442381,
83.215,54.003956,
80.304,47.896135,
77.393,46.479795,
74.483,47.68527,
71.572,48.012648,
68.662,47.09793,
65.751,44.272126,
62.840,37.594576,
59.930,32.87329,
57.019,38.513945,
54.109,29.820426,
51.198,25.486265,
48.288,30.346688,
45.377,26.829797,
42.466,26.199439,
39.556,26.684289,
36.645,22.471147,
33.735,19.298006,
30.824,15.828791,
27.914,10.920564,
25.003,14.110825,
22.092,17.989523,
19.182,20.665631,
16.271,-1.0185628,
13.361,-71.157865,
10.450,-212.47476,
7.539,-542.77792,
4.629,-943.58323,
1.718,-1184.7431,
-1.192,-1009.0627,
-4.103,-638.43038,
-7.013,-288.36778,
-9.924,-1.625,
