,PLF924~1,
Raman shift [1/cm],Intensity,
3014.167,4.625,
3011.256,-2.3250966,
3008.346,82.638919,
3005.435,87.31758,
3002.525,100.51258,
2999.614,96.199018,
2996.704,103.20953,
2993.793,96.739632,
2990.882,104.06012,
2987.972,115.65527,
2985.061,111.87129,
2982.151,125.16452,
2979.240,116.05655,
2976.329,135.39275,
2973.419,130.88662,
2970.508,133.17497,
2967.598,133.0993,
2964.687,135.5197,
2961.777,152.34298,
2958.866,144.94151,
2955.955,149.41263,
2953.045,155.99189,
2950.134,155.19934,
2947.224,156.19438,
2944.313,170.23184,
2941.403,177.53011,
2938.492,175.65754,
2935.581,188.51212,
2932.671,195.10136,
2929.760,180.90193,
2926.850,190.31147,
2923.939,184.02688,
2921.028,183.01917,
2918.118,205.28369,
2915.207,196.39084,
2912.297,199.61654,
2909.386,211.01187,
2906.476,199.98175,
2903.565,201.52871,
2900.654,196.68364,
2897.744,208.37356,
2894.833,194.81045,
2891.923,210.9231,
2889.012,194.70593,
2886.102,203.83311,
2883.191,182.64577,
2880.280,181.97907,
2877.370,185.625,
2874.459,187.32942,
2871.549,201.94093,
2868.638,214.44355,
2865.727,207.1019,
2862.817,201.5956,
2859.906,211.57372,
2856.996,203.58877,
2854.085,223.0683,
2851.175,207.45932,
2848.264,201.70817,
2845.353,216.19366,
2842.443,200.21873,
2839.532,211.0578,
2836.622,211.34961,
2833.711,199.1509,
2830.801,211.31544,
2827.890,207.37324,
2824.979,201.19298,
2822.069,236.53402,
2819.158,221.40397,
2816.248,205.14237,
2813.337,211.73841,
2810.427,207.84539,
2807.516,217.77594,
2804.605,218.39904,
2801.695,213.05921,
2798.784,203.36423,
2795.874,208.46931,
2792.963,214.19628,
2790.052,198.62757,
2787.142,218.26973,
2784.231,216.91537,
2781.321,222.24207,
2778.410,207.01966,
2775.500,214.625,
2772.589,233.35361,
2769.678,209.90823,
2766.768,230.36482,
2763.857,212.67895,
2760.947,227.14706,
2758.036,219.61219,
2755.126,217.9562,
2752.215,215.1158,
2749.304,221.58182,
2746.394,233.12103,
2743.483,220.32497,
2740.573,227.51217,
2737.662,208.85872,
2734.751,225.55691,
2731.841,228.16529,
2728.930,232.29871,
2726.020,230.73206,
2723.109,227.625,
2720.199,233.5469,
2717.288,247.02647,
2714.377,232.88794,
2711.467,235.46126,
2708.556,242.26289,
2705.646,238.0334,
2702.735,247.61468,
2699.825,251.80869,
2696.914,270.67273,
2694.003,250.625,
2691.093,243.03536,
2688.182,241.26204,
2685.272,240.10295,
2682.361,238.92522,
2679.450,247.73604,
2676.540,242.76727,
2673.629,252.27969,
2670.719,249.27472,
2667.808,245.57636,
2664.898,233.625,
2661.987,238.7251,
2659.076,242.625,
2656.166,244.625,
2653.255,249.43793,
2650.345,243.64859,
2647.434,261.625,
2644.524,256.99189,
2641.613,255.11086,
2638.702,257.625,
2635.792,258.18731,
2632.881,253.27392,
2629.971,255.60491,
2627.060,265.29187,
2624.149,258.11251,
2621.239,253.12796,
2618.328,282.79455,
2615.418,281.97954,
2612.507,264.55784,
2609.597,265.98229,
2606.686,270.32582,
2603.775,281.30357,
2600.865,265.15739,
2597.954,275.14586,
2595.044,270.9111,
2592.133,279.17912,
2589.223,285.64922,
2586.312,278.42903,
2583.401,276.66516,
2580.491,277.9952,
2577.580,287.6151,
2574.670,279.96458,
2571.759,278.92808,
2568.848,294.79634,
2565.938,309.95852,
2563.027,285.72272,
2560.117,278.09227,
2557.206,303.363,
2554.296,303.22225,
2551.385,292.063,
2548.474,301.77333,
2545.564,301.75162,
2542.653,302.70889,
2539.743,302.71126,
2536.832,297.13528,
2533.922,291.89308,
2531.011,305.60026,
2528.100,292.29397,
2525.190,305.01762,
2522.279,314.92153,
2519.369,302.13434,
2516.458,308.96069,
2513.548,305.15236,
2510.637,317.74797,
2507.726,316.81458,
2504.816,306.12443,
2501.905,306.68293,
2498.995,315.50556,
2496.084,311.78527,
2493.173,315.36209,
2490.263,313.64759,
2487.352,320.3746,
2484.442,316.61857,
2481.531,320.04523,
2478.621,318.625,
2475.710,318.56366,
2472.799,309.63846,
2469.889,319.2289,
2466.978,316.74886,
2464.068,331.69386,
2461.157,326.50755,
2458.247,319.3309,
2455.336,332.17687,
2452.425,326.03536,
2449.515,326.97428,
2446.604,338.74019,
2443.694,333.32234,
2440.783,352.53491,
2437.872,359.77086,
2434.962,355.21948,
2432.051,349.18088,
2429.141,348.4076,
2426.230,332.21172,
2423.320,348.88198,
2420.409,352.97761,
2417.498,343.83848,
2414.588,335.72008,
2411.677,365.30228,
2408.767,352.83071,
2405.856,345.84641,
2402.946,355.41678,
2400.035,341.44189,
2397.124,353.09557,
2394.214,366.13701,
2391.303,360.12771,
2388.393,362.14592,
2385.482,349.15374,
2382.571,375.85358,
2379.661,357.95047,
2376.750,369.20381,
2373.840,384.52806,
2370.929,378.7333,
2368.019,389.19214,
2365.108,372.60144,
2362.197,388.76478,
2359.287,378.46511,
2356.376,389.59682,
2353.466,376.83734,
2350.555,371.25491,
2347.645,368.8091,
2344.734,390.90155,
2341.823,363.18883,
2338.913,398.42796,
2336.002,384.36662,
2333.092,386.75142,
2330.181,389.88842,
2327.270,398.18496,
2324.360,402.625,
2321.449,403.27126,
2318.539,401.05007,
2315.628,388.55825,
2312.718,395.22412,
2309.807,411.91716,
2306.896,396.1837,
2303.986,412.9691,
2301.075,402.5399,
2298.165,404.61546,
2295.254,391.9266,
2292.344,414.88639,
2289.433,410.53999,
2286.522,397.866,
2283.612,412.14542,
2280.701,399.91202,
2277.791,427.1441,
2274.880,415.411,
2271.969,416.55916,
2269.059,424.09367,
2266.148,436.37959,
2263.238,436.02655,
2260.327,412.41834,
2257.417,440.18333,
2254.506,438.67907,
2251.595,428.18859,
2248.685,430.20579,
2245.774,431.32825,
2242.864,439.1437,
2239.953,447.99049,
2237.043,446.78036,
2234.132,444.78341,
2231.221,441.38723,
2228.311,464.59017,
2225.400,457.70944,
2222.490,458.02559,
2219.579,456.54022,
2216.669,478.61069,
2213.758,486.84331,
2210.847,471.08598,
2207.937,465.66572,
2205.026,490.62471,
2202.116,501.50928,
2199.205,512.09982,
2196.294,508.31902,
2193.384,512.57202,
2190.473,528.63674,
2187.563,541.7265,
2184.652,561.26949,
2181.742,560.71679,
2178.831,581.58222,
2175.920,593.03666,
2173.010,613.57625,
2170.099,637.82292,
2167.189,657.77569,
2164.278,682.44008,
2161.368,710.62428,
2158.457,743.41734,
2155.546,782.7606,
2152.636,814.83239,
2149.725,843.59814,
2146.815,867.92425,
2143.904,865.93354,
2140.993,888.02181,
2138.083,891.89552,
2135.172,892.1124,
2132.262,884.86268,
2129.351,897.74925,
2126.441,859.45011,
2123.530,821.96278,
2120.619,762.1113,
2117.709,735.74899,
2114.798,689.01347,
2111.888,665.02608,
2108.977,617.46604,
2106.067,604.38338,
2103.156,587.90813,
2100.245,567.62249,
2097.335,561.09621,
2094.424,547.17264,
2091.514,554.4744,
2088.603,544.47291,
2085.692,534.62136,
2082.782,507.2476,
2079.871,503.73235,
2076.961,504.625,
2074.050,525.80076,
2071.140,508.01593,
2068.229,511.3268,
2065.318,529.61148,
2062.408,512.56448,
2059.497,518.42857,
2056.587,528.84578,
2053.676,527.7253,
2050.766,517.39481,
2047.855,500.90979,
2044.944,508.36379,
2042.034,491.96602,
2039.123,493.76641,
2036.213,512.04724,
2033.302,511.10336,
2030.391,515.9298,
2027.481,517.90552,
2024.570,532.63886,
2021.660,509.28062,
2018.749,502.8407,
2015.839,532.81791,
2012.928,523.02768,
2010.017,506.97571,
2007.107,501.43808,
2004.196,501.76788,
2001.286,515.48011,
1998.375,537.32579,
1995.465,531.25268,
1992.554,510.9722,
1989.643,506.69413,
1986.733,551.18377,
1983.822,477.56222,
1980.912,506.71404,
1978.001,510.83651,
1975.090,506.30284,
1972.180,467.90161,
1969.269,499.81766,
1966.359,524.78709,
1963.448,512.1283,
1960.538,520.79765,
1957.627,520.95008,
1954.716,519.65373,
1951.806,498.92951,
1948.895,489.70591,
1945.985,513.94853,
1943.074,504.11201,
1940.164,515.625,
1937.253,504.43393,
1934.342,501.72767,
1931.432,507.85213,
1928.521,514.01533,
1925.611,508.09265,
1922.700,482.25622,
1919.790,520.54936,
1916.879,549.02076,
1913.968,521.66066,
1911.058,529.38775,
1908.147,482.16367,
1905.237,482.75007,
1902.326,516.24131,
1899.415,496.60915,
1896.505,499.40814,
1893.594,501.98781,
1890.684,500.52698,
1887.773,499.93529,
1884.863,516.2947,
1881.952,527.41497,
1879.041,547.53726,
1876.131,523.49299,
1873.220,490.47445,
1870.310,502.40524,
1867.399,529.20917,
1864.489,566.67782,
1861.578,515.63622,
1858.667,485.59806,
1855.757,485.00567,
1852.846,511.39934,
1849.936,519.27666,
1847.025,510.26976,
1844.114,531.89092,
1841.204,540.05507,
1838.293,528.62666,
1835.383,534.72949,
1832.472,538.25283,
1829.562,537.2638,
1826.651,554.03566,
1823.740,531.7782,
1820.830,548.40477,
1817.919,512.64867,
1815.009,533.44942,
1812.098,526.95572,
1809.188,535.00482,
1806.277,512.15616,
1803.366,549.92445,
1800.456,566.69073,
1797.545,549.1499,
1794.635,538.36606,
1791.724,570.72199,
1788.813,596.8124,
1785.903,560.67343,
1782.992,572.5028,
1780.082,575.51616,
1777.171,568.95744,
1774.261,563.79996,
1771.350,571.706,
1768.439,583.09231,
1765.529,578.35279,
1762.618,579.6925,
1759.708,578.13587,
1756.797,578.08712,
1753.887,580.4457,
1750.976,606.21138,
1748.065,616.48061,
1745.155,581.96715,
1742.244,575.88132,
1739.334,576.83206,
1736.423,615.60438,
1733.512,598.42572,
1730.602,614.79766,
1727.691,592.38326,
1724.781,623.52698,
1721.870,629.7964,
1718.960,603.1358,
1716.049,647.96348,
1713.138,644.80006,
1710.228,619.12698,
1707.317,635.08557,
1704.407,659.18653,
1701.496,663.4481,
1698.586,696.88844,
1695.675,679.97512,
1692.764,686.19877,
1689.854,637.83363,
1686.943,730.31989,
1684.033,659.51255,
1681.122,695.9623,
1678.211,691.67259,
1675.301,723.52633,
1672.390,750.63995,
1669.480,755.65709,
1666.569,760.06936,
1663.659,794.77199,
1660.748,804.33843,
1657.837,841.47792,
1654.927,878.10211,
1652.016,815.83995,
1649.106,865.21254,
1646.195,888.19343,
1643.285,872.17449,
1640.374,938.43685,
1637.463,929.58897,
1634.553,928.39345,
1631.642,980.38505,
1628.732,1049.9924,
1625.821,1111.6472,
1622.911,1145.4334,
1620.000,1244.3651,
1617.089,1350.4956,
1614.179,1397.3278,
1611.268,1478.5392,
1608.358,1596.0062,
1605.447,1587.482,
1602.536,1599.6714,
1599.626,1634.6625,
1596.715,1620.3806,
1593.805,1588.2177,
1590.894,1592.551,
1587.984,1542.5256,
1585.073,1513.3546,
1582.162,1548.0298,
1579.252,1540.0773,
1576.341,1545.4367,
1573.431,1517.8644,
1570.520,1529.4988,
1567.610,1492.4086,
1564.699,1517.5016,
1561.788,1478.4002,
1558.878,1387.3487,
1555.967,1333.1624,
1553.057,1335.0214,
1550.146,1314.356,
1547.235,1279.5055,
1544.325,1258.011,
1541.414,1229.0227,
1538.504,1198.2937,
1535.593,1199.2848,
1532.683,1179.0892,
1529.772,1142.6437,
1526.861,1144.211,
1523.951,1134.6615,
1521.040,1132.5041,
1518.130,1135.4731,
1515.219,1111.1448,
1512.309,1116.1385,
1509.398,1099.8096,
1506.487,1060.0658,
1503.577,1072.6859,
1500.666,1057.6396,
1497.756,1072.2519,
1494.845,1055.9852,
1491.934,1064.3415,
1489.024,977.71717,
1486.113,1016.3497,
1483.203,1036.5002,
1480.292,996.19943,
1477.382,993.47449,
1474.471,990.78811,
1471.560,931.57171,
1468.650,923.29047,
1465.739,953.32314,
1462.829,933.20323,
1459.918,932.17215,
1457.008,955.20969,
1454.097,950.91968,
1451.186,944.61533,
1448.276,952.73191,
1445.365,961.37618,
1442.455,970.70525,
1439.544,952.46512,
1436.633,940.91695,
1433.723,960.15669,
1430.812,890.09748,
1427.902,934.36914,
1424.991,965.6453,
1422.081,926.25601,
1419.170,920.03282,
1416.259,905.85393,
1413.349,916.21934,
1410.438,883.53668,
1407.528,883.71854,
1404.617,886.75372,
1401.707,908.06214,
1398.796,934.40121,
1395.885,940.69195,
1392.975,942.20827,
1390.064,945.51118,
1387.154,939.99749,
1384.243,867.86494,
1381.332,837.70758,
1378.422,895.5428,
1375.511,913.34163,
1372.601,980.89963,
1369.690,1024.3428,
1366.780,1025.0808,
1363.869,1050.5046,
1360.958,1105.5197,
1358.048,1115.5721,
1355.137,1102.9452,
1352.227,1109.2329,
1349.316,1122.1803,
1346.406,1153.6824,
1343.495,1226.8358,
1340.584,1249.0187,
1337.674,1195.1962,
1334.763,1193.7068,
1331.853,1248.4135,
1328.942,1213.2675,
1326.032,1252.6685,
1323.121,1295.9684,
1320.210,1340.921,
1317.300,1325.7525,
1314.389,1348.8481,
1311.479,1407.7899,
1308.568,1404.2,
1305.657,1378.3253,
1302.747,1434.7455,
1299.836,1484.1533,
1296.926,1526.7015,
1294.015,1592.8928,
1291.105,1599.1472,
1288.194,1631.5747,
1285.283,1705.4973,
1282.373,1734.7891,
1279.462,1769.0165,
1276.552,1794.2313,
1273.641,1824.5119,
1270.731,1871.6265,
1267.820,1846.122,
1264.909,1795.5921,
1261.999,1804.2228,
1259.088,1848.0046,
1256.178,1816.3667,
1253.267,1791.4451,
1250.356,1706.3863,
1247.446,1649.263,
1244.535,1604.4063,
1241.625,1543.1547,
1238.714,1487.4819,
1235.804,1459.5328,
1232.893,1448.0118,
1229.982,1392.7545,
1227.072,1337.5305,
1224.161,1345.3921,
1221.251,1314.8666,
1218.340,1261.5172,
1215.430,1249.0852,
1212.519,1230.4594,
1209.608,1208.6106,
1206.698,1234.7528,
1203.787,1251.223,
1200.877,1244.6837,
1197.966,1261.7677,
1195.055,1280.5432,
1192.145,1324.1975,
1189.234,1350.6008,
1186.324,1401.2656,
1183.413,1413.7773,
1180.503,1396.4407,
1177.592,1413.7258,
1174.681,1385.9777,
1171.771,1375.0577,
1168.860,1393.8126,
1165.950,1352.0854,
1163.039,1320.6729,
1160.129,1327.5511,
1157.218,1329.9718,
1154.307,1301.3317,
1151.397,1266.0182,
1148.486,1253.6797,
1145.576,1226.1647,
1142.665,1238.5954,
1139.754,1237.1841,
1136.844,1221.9186,
1133.933,1203.8949,
1131.023,1183.3505,
1128.112,1171.4105,
1125.202,1175.3496,
1122.291,1181.8865,
1119.380,1211.3478,
1116.470,1183.1069,
1113.559,1188.904,
1110.649,1215.8543,
1107.738,1215.7654,
1104.828,1205.8733,
1101.917,1215.3176,
1099.006,1220.6563,
1096.096,1161.6139,
1093.185,1194.1,
1090.275,1161.8264,
1087.364,1169.4058,
1084.453,1195.1863,
1081.543,1212.6925,
1078.632,1206.5964,
1075.722,1186.5056,
1072.811,1193.5701,
1069.901,1178.7247,
1066.990,1190.5583,
1064.079,1200.4301,
1061.169,1227.9263,
1058.258,1236.1909,
1055.348,1227.68,
1052.437,1249.5447,
1049.527,1274.0544,
1046.616,1259.2843,
1043.705,1255.3127,
1040.795,1283.3577,
1037.884,1316.8201,
1034.974,1323.942,
1032.063,1311.2018,
1029.153,1322.7289,
1026.242,1323.5938,
1023.331,1316.1255,
1020.421,1329.9612,
1017.510,1340.5469,
1014.600,1374.076,
1011.689,1410.7788,
1008.778,1401.7038,
1005.868,1419.9339,
1002.957,1454.3481,
1000.047,1522.961,
997.136,1560.1335,
994.226,1583.4556,
991.315,1603.974,
988.404,1598.1682,
985.494,1528.4524,
982.583,1520.7434,
979.673,1502.7971,
976.762,1518.9349,
973.852,1538.1611,
970.941,1524.2494,
968.030,1491.8969,
965.120,1555.6859,
962.209,1570.1791,
959.299,1536.5043,
956.388,1508.7458,
953.477,1517.9433,
950.567,1544.5793,
947.656,1542.8505,
944.746,1552.1956,
941.835,1563.1526,
938.925,1568.2572,
936.014,1566.59,
933.103,1547.7358,
930.193,1508.2376,
927.282,1466.5333,
924.372,1464.8421,
921.461,1439.5874,
918.551,1453.2814,
915.640,1454.752,
912.729,1422.0123,
909.819,1387.069,
906.908,1382.8569,
903.998,1391.374,
901.087,1397.444,
898.176,1405.8285,
895.266,1436.1125,
892.355,1487.0962,
889.445,1489.614,
886.534,1486.2855,
883.624,1505.81,
880.713,1531.446,
877.802,1541.0667,
874.892,1529.7058,
871.981,1525.1713,
869.071,1505.9568,
866.160,1528.8435,
863.250,1514.9391,
860.339,1495.5627,
857.428,1501.0945,
854.518,1494.9861,
851.607,1507.4671,
848.697,1447.0336,
845.786,1422.2578,
842.875,1446.9475,
839.965,1478.5422,
837.054,1441.5413,
834.144,1434.0825,
831.233,1447.9572,
828.323,1431.391,
825.412,1393.4245,
822.501,1366.5186,
819.591,1371.477,
816.680,1372.4263,
813.770,1359.4684,
810.859,1338.539,
807.949,1317.3884,
805.038,1305.417,
802.127,1320.2333,
799.217,1314.9165,
796.306,1312.625,
793.396,1307.9532,
790.485,1298.7298,
787.574,1292.2789,
784.664,1309.5012,
781.753,1332.7545,
778.843,1332.3333,
775.932,1320.3905,
773.022,1317.4982,
770.111,1316.6806,
767.200,1296.8309,
764.290,1296.9817,
761.379,1309.8962,
758.469,1324.5084,
755.558,1330.7254,
752.648,1300.5851,
749.737,1279.6108,
746.826,1262.7668,
743.916,1225.261,
741.005,1146.2798,
738.095,1072.3991,
735.184,967.09194,
732.274,913.89987,
729.363,961.48271,
726.452,1097.4122,
723.542,1184.8267,
720.631,1224.0293,
717.721,1246.6548,
714.810,1273.1362,
711.899,1300.12,
708.989,1293.6646,
706.078,1285.612,
703.168,1260.5506,
700.257,1265.4285,
697.347,1281.235,
694.436,1237.1487,
691.525,1256.4401,
688.615,1251.8202,
685.704,1237.1277,
682.794,1226.2633,
679.883,1231.8773,
676.973,1237.4869,
674.062,1238.625,
671.151,1232.05,
668.241,1221.4808,
665.330,1215.5326,
662.420,1234.7021,
659.509,1253.2284,
656.598,1243.8823,
653.688,1229.1366,
650.777,1257.571,
647.867,1255.9783,
644.956,1256.8633,
642.046,1254.3082,
639.135,1256.5421,
636.224,1282.5812,
633.314,1273.8479,
630.403,1249.7502,
627.493,1250.7561,
624.582,1269.5621,
621.672,1237.8824,
618.761,1273.862,
615.850,1297.1957,
612.940,1310.0403,
610.029,1316.625,
607.119,1316.625,
604.208,1322.3051,
601.297,1317.6458,
598.387,1306.3255,
595.476,1295.2536,
592.566,1291.3183,
589.655,1273.7799,
586.745,1265.9269,
583.834,1263.8921,
580.923,1250.4734,
578.013,1225.3619,
575.102,1234.1119,
572.192,1240.9803,
569.281,1238.952,
566.371,1274.1701,
563.460,1271.2758,
560.549,1283.2434,
557.639,1299.6993,
554.728,1303.7582,
551.818,1321.7055,
548.907,1328.0627,
545.996,1321.8492,
543.086,1313.148,
540.175,1329.4996,
537.265,1331.3493,
534.354,1361.2247,
531.444,1373.0695,
528.533,1329.9427,
525.622,1362.5324,
522.712,1367.198,
519.801,1369.0619,
516.891,1383.2328,
513.980,1425.8191,
511.070,1445.825,
508.159,1466.4744,
505.248,1483.6279,
502.338,1490.7998,
499.427,1530.935,
496.517,1565.9482,
493.606,1584.2885,
490.695,1586.1926,
487.785,1604.6676,
484.874,1607.625,
481.964,1598.9042,
479.053,1587.7281,
476.143,1592.3359,
473.232,1568.8847,
470.321,1568.87,
467.411,1563.4294,
464.500,1519.4395,
461.590,1551.6006,
458.679,1587.0391,
455.769,1593.817,
452.858,1564.5678,
449.947,1592.8333,
447.037,1601.052,
444.126,1594.4917,
441.216,1588.9592,
438.305,1636.9609,
435.395,1648.2145,
432.484,1652.292,
429.573,1661.7251,
426.663,1692.1307,
423.752,1668.1231,
420.842,1674.4358,
417.931,1686.7908,
415.020,1655.6981,
412.110,1652.4302,
409.199,1673.1409,
406.289,1711.1217,
403.378,1758.4559,
400.468,1708.5603,
397.557,1687.9977,
394.646,1686.5878,
391.736,1693.2729,
388.825,1651.0359,
385.915,1641.8182,
383.004,1667.754,
380.094,1723.8591,
377.183,1689.2452,
374.272,1740.9592,
371.362,1793.508,
368.451,1797.8134,
365.541,1833.8391,
362.630,1854.5498,
359.719,1878.1274,
356.809,1911.8547,
353.898,1899.1252,
350.988,1883.1478,
348.077,1862.7511,
345.167,1840.1387,
342.256,1870.0214,
339.345,1870.1221,
336.435,1850.6885,
333.524,1820.0948,
330.614,1834.9979,
327.703,1862.2148,
324.793,1870.2199,
321.882,1831.7638,
318.971,1889.0089,
316.061,1907.6484,
313.150,1913.5536,
310.240,1935.817,
307.329,1945.9153,
304.418,1951.9048,
301.508,1956.9881,
298.597,1965.8731,
295.687,1933.4402,
292.776,1947.2085,
289.866,2014.0026,
286.955,2134.4148,
284.044,2215.5074,
281.134,2280.3966,
278.223,2344.5466,
275.313,2460.2329,
272.402,2511.3465,
269.492,2550.9036,
266.581,2598.6714,
263.670,2655.2803,
260.760,2648.6401,
257.849,2635.3238,
254.939,2657.3403,
252.028,2670.6542,
249.117,2667.8589,
246.207,2657.6779,
243.296,2654.0178,
240.386,2649.0541,
237.475,2637.4045,
234.565,2607.2104,
231.654,2509.339,
228.743,2465.0349,
225.833,2422.6235,
222.922,2362.8392,
220.012,2303.0976,
217.101,2300.3093,
214.191,2300.7959,
211.280,2244.7812,
208.369,2195.5465,
205.459,2158.8527,
202.548,2137.2517,
199.638,2140.88,
196.727,2153.7255,
193.816,2155.4005,
190.906,2137.3045,
187.995,2099.6552,
185.085,2147.1505,
182.174,2212.6662,
179.264,2205.4385,
176.353,2205.9066,
173.442,2218.2269,
170.532,2239.213,
167.621,2244.2599,
164.711,2225.6534,
161.800,2181.3282,
158.890,2104.3173,
155.979,2004.7653,
153.068,1856.0909,
150.158,1675.119,
147.247,1519.3234,
144.337,1276.6255,
141.426,1006.6295,
138.516,732.77702,
135.605,527.86141,
132.694,367.06682,
129.784,243.50693,
126.873,150.54005,
123.963,98.618932,
121.052,70.508819,
118.141,62.655897,
115.231,38.465608,
112.320,23.541369,
109.410,17.443132,
106.499,21.716063,
103.589,21.504491,
100.678,17.637161,
97.767,9.8168479,
94.857,18.633858,
91.946,16.981448,
89.036,8.7378979,
86.125,9.4471032,
83.215,9.625,
80.304,8.1884039,
77.393,3.9393843,
74.483,9.5212146,
71.572,11.537944,
68.662,9.07086,
65.751,3.4192514,
62.840,3.5518079,
59.930,6.3741448,
57.019,9.1944727,
54.109,7.8335175,
51.198,4.8153443,
48.288,0.64764977,
45.377,3.461162,
42.466,4.2127807,
39.556,3.625,
36.645,3.625,
33.735,4.1442485,
30.824,4.625,
27.914,4.625,
25.003,4.0023625,
22.092,3.3020954,
19.182,2.8767115,
16.271,10.571103,
13.361,63.778499,
10.450,151.25441,
7.539,259.49329,
4.629,120.85203,
1.718,-150.19476,
-1.192,-524.56138,
-4.103,-382.78212,
-7.013,-180.72114,
-9.924,1.625,
