,PLIQUI~2,
Wavenumbers [1/cm],Intensity,
3014.167,0.5,
3011.256,0.19993558,
3008.346,461.10769,
3005.435,529.77209,
3002.525,565.69016,
2999.614,574.87664,
2996.704,591.35876,
2993.793,597.88076,
2990.882,598.58394,
2987.972,614.58072,
2985.061,627.8399,
2982.151,645.63615,
2979.240,679.52849,
2976.329,713.76502,
2973.419,708.5611,
2970.508,720.33337,
2967.598,725.26827,
2964.687,751.42595,
2961.777,740.59401,
2958.866,773.15083,
2955.955,801.32964,
2953.045,797.81994,
2950.134,826.35132,
2947.224,821.46794,
2944.313,837.87108,
2941.403,859.21532,
2938.492,862.22358,
2935.581,855.9356,
2932.671,870.6245,
2929.760,883.87691,
2926.850,891.61165,
2923.939,891.10282,
2921.028,915.40622,
2918.118,920.37657,
2915.207,904.86091,
2912.297,910.51269,
2909.386,900.68249,
2906.476,902.36797,
2903.565,895.4689,
2900.654,875.88827,
2897.744,858.53772,
2894.833,844.5931,
2891.923,800.22749,
2889.012,766.00867,
2886.102,707.29733,
2883.191,563.61706,
2880.280,117.7965,
2877.370,-732.28319,
2874.459,-1052.7808,
2871.549,-228.46805,
2868.638,526.26667,
2865.727,685.93832,
2862.817,768.72992,
2859.906,812.7792,
2856.996,845.43207,
2854.085,899.23116,
2851.175,933.78317,
2848.264,923.06867,
2845.353,950.39216,
2842.443,939.90975,
2839.532,946.24618,
2836.622,947.38216,
2833.711,961.39639,
2830.801,945.11176,
2827.890,969.08745,
2824.979,959.32621,
2822.069,976.63647,
2819.158,991.16038,
2816.248,988.02895,
2813.337,989.03657,
2810.427,1011.1171,
2807.516,1016.7012,
2804.605,1023.2091,
2801.695,1011.0263,
2798.784,1011.7218,
2795.874,1006.4894,
2792.963,1002.3568,
2790.052,995.49979,
2787.142,987.97354,
2784.231,978.17701,
2781.321,1009.1799,
2778.410,998.21445,
2775.500,995.94863,
2772.589,990.80886,
2769.678,1015.4624,
2766.768,1021.8767,
2763.857,1020.1339,
2760.947,1037.4874,
2758.036,1034.6529,
2755.126,1044.1752,
2752.215,1020.4364,
2749.304,1041.3075,
2746.394,1058.7338,
2743.483,1077.8,
2740.573,1055.6592,
2737.662,1057.8195,
2734.751,1064.6891,
2731.841,1048.0659,
2728.930,1038.216,
2726.020,1065.6227,
2723.109,1074.5,
2720.199,1065.8905,
2717.288,1086.5876,
2714.377,1085.7584,
2711.467,1078.8934,
2708.556,1088.8402,
2705.646,1101.5704,
2702.735,1093.6675,
2699.825,1115.531,
2696.914,1097.8322,
2694.003,1132.9309,
2691.093,1117.7322,
2688.182,1121.2637,
2685.272,1117.1458,
2682.361,1104.6528,
2679.450,1105.9609,
2676.540,1128.0732,
2673.629,1113.8049,
2670.719,1117.5074,
2667.808,1130.5759,
2664.898,1164.6945,
2661.987,1167.5998,
2659.076,1152.3901,
2656.166,1159.1146,
2653.255,1182.4252,
2650.345,1172.7396,
2647.434,1210.2997,
2644.524,1207.9245,
2641.613,1207.3567,
2638.702,1214.2633,
2635.792,1200.3116,
2632.881,1204.6131,
2629.971,1181.5603,
2627.060,1223.6672,
2624.149,1221.3375,
2621.239,1201.707,
2618.328,1232.2881,
2615.418,1225.1773,
2612.507,1233.5316,
2609.597,1227.8772,
2606.686,1252.7209,
2603.775,1254.3016,
2600.865,1254.1484,
2597.954,1306.7334,
2595.044,1295.795,
2592.133,1290.4362,
2589.223,1267.2347,
2586.312,1271.9924,
2583.401,1311.1314,
2580.491,1313.9664,
2577.580,1291.5528,
2574.670,1313.2607,
2571.759,1283.7474,
2568.848,1283.9696,
2565.938,1282.2616,
2563.027,1320.9137,
2560.117,1305.6869,
2557.206,1330.6218,
2554.296,1329.3581,
2551.385,1336.566,
2548.474,1335.574,
2545.564,1358.677,
2542.653,1362.5201,
2539.743,1364.7218,
2536.832,1333.6626,
2533.922,1393.6419,
2531.011,1402.5,
2528.100,1400.9007,
2525.190,1375.7828,
2522.279,1404.8586,
2519.369,1369.9907,
2516.458,1346.4858,
2513.548,1339.3999,
2510.637,1391.7134,
2507.726,1428.6227,
2504.816,1425.9363,
2501.905,1403.0799,
2498.995,1432.7084,
2496.084,1406.0331,
2493.173,1438.2378,
2490.263,1429.5903,
2487.352,1429.8756,
2484.442,1449.0374,
2481.531,1470.7607,
2478.621,1474.1778,
2475.710,1473.6457,
2472.799,1498.4192,
2469.889,1489.3531,
2466.978,1511.015,
2464.068,1479.7432,
2461.157,1500.5848,
2458.247,1536.6324,
2455.336,1511.8013,
2452.425,1499.283,
2449.515,1526.9158,
2446.604,1559.9101,
2443.694,1552.0345,
2440.783,1552.5968,
2437.872,1532.521,
2434.962,1561.8641,
2432.051,1570.4507,
2429.141,1563.9589,
2426.230,1573.5873,
2423.320,1565.4427,
2420.409,1577.6858,
2417.498,1602.6629,
2414.588,1606.5951,
2411.677,1596.6434,
2408.767,1603.5354,
2405.856,1618.1285,
2402.946,1634.7681,
2400.035,1656.5822,
2397.124,1641.7728,
2394.214,1611.7468,
2391.303,1651.5386,
2388.393,1585.3417,
2385.482,1518.4387,
2382.571,1421.3098,
2379.661,1475.5224,
2376.750,1622.6941,
2373.840,1667.4407,
2370.929,1676.3809,
2368.019,1705.4747,
2365.108,1741.5681,
2362.197,1739.9849,
2359.287,1712.3318,
2356.376,1726.4683,
2353.466,1751.1679,
2350.555,1756.0158,
2347.645,1770.9623,
2344.734,1781.1406,
2341.823,1774.7156,
2338.913,1804.6582,
2336.002,1795.2081,
2333.092,1809.3849,
2330.181,1815.5,
2327.270,1830.6199,
2324.360,1859.8868,
2321.449,1854.9932,
2318.539,1857.818,
2315.628,1861.3565,
2312.718,1868.2665,
2309.807,1849.4375,
2306.896,1886.2246,
2303.986,1873.4545,
2301.075,1863.9468,
2298.165,1874.0676,
2295.254,1900.0045,
2292.344,1893.5911,
2289.433,1934.7354,
2286.522,1918.741,
2283.612,1944.7513,
2280.701,1965.482,
2277.791,1963.5783,
2274.880,1949.6318,
2271.969,1975.6317,
2269.059,1972.2929,
2266.148,2001.4933,
2263.238,1984.5116,
2260.327,2000.3626,
2257.417,2043.4856,
2254.506,2039.9873,
2251.595,2066.0819,
2248.685,2050.1346,
2245.774,2084.4444,
2242.864,2061.6022,
2239.953,2072.9484,
2237.043,2069.9686,
2234.132,2095.5571,
2231.221,2076.3397,
2228.311,2087.3763,
2225.400,2132.5281,
2222.490,2137.9561,
2219.579,2161.6028,
2216.669,2184.9261,
2213.758,2212.8935,
2210.847,2232.3967,
2207.937,2224.9479,
2205.026,2253.3872,
2202.116,2297.3535,
2199.205,2291.3873,
2196.294,2316.2939,
2193.384,2345.289,
2190.473,2353.9319,
2187.563,2415.6063,
2184.652,2442.3196,
2181.742,2486.934,
2178.831,2567.6325,
2175.920,2676.9536,
2173.010,2792.7307,
2170.099,2876.8269,
2167.189,3045.3324,
2164.278,3191.6076,
2161.368,3423.6367,
2158.457,3613.7732,
2155.546,3797.7223,
2152.636,4030.8879,
2149.725,4240.8086,
2146.815,4385.4957,
2143.904,4565.6486,
2140.993,4701.8913,
2138.083,4792.4087,
2135.172,4857.3908,
2132.262,4898.6646,
2129.351,4839.2271,
2126.441,4746.4707,
2123.530,4598.6144,
2120.619,4410.8954,
2117.709,4208.787,
2114.798,3936.2606,
2111.888,3642.6569,
2108.977,3402.2218,
2106.067,3241.2936,
2103.156,3088.6021,
2100.245,2874.4611,
2097.335,2799.1335,
2094.424,2695.2769,
2091.514,2643.6798,
2088.603,2572.7351,
2085.692,2569.9126,
2082.782,2534.677,
2079.871,2524.7147,
2076.961,2470.3747,
2074.050,2473.6273,
2071.140,2444.432,
2068.229,2394.8346,
2065.318,2422.4622,
2062.408,2409.5,
2059.497,2393.2678,
2056.587,2377.535,
2053.676,2372.2335,
2050.766,2353.9626,
2047.855,2363.1867,
2044.944,2346.3814,
2042.034,2322.6158,
2039.123,2361.2374,
2036.213,2344.3445,
2033.302,2371.8041,
2030.391,2372.619,
2027.481,2352.1099,
2024.570,2383.7419,
2021.660,2337.8112,
2018.749,2345.424,
2015.839,2343.3655,
2012.928,2345.7181,
2010.017,2350.6563,
2007.107,2350.6421,
2004.196,2353.6785,
2001.286,2351.3763,
1998.375,2334.8405,
1995.465,2318.2071,
1992.554,2315.6235,
1989.643,2297.1567,
1986.733,2291.6605,
1983.822,2294.2179,
1980.912,2293.1832,
1978.001,2294.5594,
1975.090,2294.4924,
1972.180,2310.0505,
1969.269,2305.385,
1966.359,2277.8782,
1963.448,2282.9188,
1960.538,2267.2123,
1957.627,2291.0325,
1954.716,2331.4084,
1951.806,2261.7116,
1948.895,2234.5141,
1945.985,2277.598,
1943.074,2248.6847,
1940.164,2230.2598,
1937.253,2244.6521,
1934.342,2223.2947,
1931.432,2222.5915,
1928.521,2181.0544,
1925.611,2168.9608,
1922.700,2181.2486,
1919.790,2140.2982,
1916.879,2189.315,
1913.968,2148.5553,
1911.058,2174.2267,
1908.147,2184.7657,
1905.237,2177.1691,
1902.326,2118.9312,
1899.415,2033.9439,
1896.505,1974.3674,
1893.594,2010.3843,
1890.684,2070.3431,
1887.773,2136.5244,
1884.863,2160.279,
1881.952,2176.3072,
1879.041,2166.3183,
1876.131,2205.1052,
1873.220,2195.4512,
1870.310,2090.3926,
1867.399,2165.1565,
1864.489,2155.7851,
1861.578,2189.7416,
1858.667,2209.4461,
1855.757,2195.9057,
1852.846,2198.5461,
1849.936,2223.3839,
1847.025,2211.7968,
1844.114,2221.2271,
1841.204,2262.521,
1838.293,2249.0407,
1835.383,2253.4645,
1832.472,2280.4652,
1829.562,2263.9747,
1826.651,2291.1078,
1823.740,2336.1629,
1820.830,2334.1534,
1817.919,2350.8594,
1815.009,2325.5318,
1812.098,2334.8622,
1809.188,2370.2674,
1806.277,2353.9205,
1803.366,2315.0324,
1800.456,2346.8847,
1797.545,2355.0673,
1794.635,2375.4021,
1791.724,2403.7137,
1788.813,2362.4781,
1785.903,2288.1686,
1782.992,2211.7025,
1780.082,1944.719,
1777.171,1615.4662,
1774.261,1563.2315,
1771.350,1925.3883,
1768.439,2358.2553,
1765.529,2455.0444,
1762.618,2437.8712,
1759.708,2464.3047,
1756.797,2512.8712,
1753.887,2543.2449,
1750.976,2563.8069,
1748.065,2571.1866,
1745.155,2572.8613,
1742.244,2606.9311,
1739.334,2594.373,
1736.423,2587.5654,
1733.512,2623.244,
1730.602,2638.4921,
1727.691,2647.1766,
1724.781,2700.6275,
1721.870,2720.9381,
1718.960,2755.3893,
1716.049,2757.4662,
1713.138,2788.1348,
1710.228,2799.5921,
1707.317,2815.5377,
1704.407,2843.5535,
1701.496,2883.8735,
1698.586,2855.1605,
1695.675,2936.7138,
1692.764,2985.1025,
1689.854,2989.4134,
1686.943,3021.3871,
1684.033,3039.0778,
1681.122,3118.1406,
1678.211,3173.9765,
1675.301,3237.3057,
1672.390,3246.6585,
1669.480,3300.5429,
1666.569,3429.9951,
1663.659,3468.4347,
1660.748,3467.0452,
1657.837,3598.3371,
1654.927,3682.468,
1652.016,3765.6664,
1649.106,3815.1684,
1646.195,3924.2093,
1643.285,4035.5254,
1640.374,4081.9251,
1637.463,4198.2022,
1634.553,4348.5886,
1631.642,4556.6933,
1628.732,4757.8806,
1625.821,4989.7329,
1622.911,5343.4939,
1620.000,5630.859,
1617.089,5994.1965,
1614.179,6329.9681,
1611.268,6781.4353,
1608.358,7057.7641,
1605.447,7287.3589,
1602.536,7481.2861,
1599.626,7498.1797,
1596.715,7435.8755,
1593.805,7361.5308,
1590.894,7281.285,
1587.984,7190.0873,
1585.073,7097.5232,
1582.162,7014.2045,
1579.252,6946.4921,
1576.341,6997.784,
1573.431,6925.7845,
1570.520,6879.3331,
1567.610,6801.7146,
1564.699,6728.923,
1561.788,6603.4588,
1558.878,6473.8374,
1555.967,6366.4515,
1553.057,6214.1219,
1550.146,6065.7656,
1547.235,5965.5029,
1544.325,5849.4979,
1541.414,5731.9542,
1538.504,5627.4403,
1535.593,5545.2328,
1532.683,5475.1545,
1529.772,5381.6507,
1526.861,5306.0045,
1523.951,5253.9187,
1521.040,5237.9888,
1518.130,5289.0219,
1515.219,5240.3024,
1512.309,5138.9189,
1509.398,5061.0175,
1506.487,4966.0206,
1503.577,4884.1523,
1500.666,4838.7019,
1497.756,4806.8886,
1494.845,4689.8997,
1491.934,4675.1063,
1489.024,4554.7947,
1486.113,4505.0664,
1483.203,4511.2698,
1480.292,4423.4063,
1477.382,4359.8134,
1474.471,4294.0161,
1471.560,4255.0044,
1468.650,4141.2758,
1465.739,4077.7687,
1462.829,4026.5291,
1459.918,4003.0249,
1457.008,3990.2382,
1454.097,4012.3213,
1451.186,4045.8559,
1448.276,4054.9589,
1445.365,4091.1058,
1442.455,4062.3807,
1439.544,4036.4737,
1436.633,4055.79,
1433.723,3999.3784,
1430.812,3995.0464,
1427.902,4039.1167,
1424.991,4023.0047,
1422.081,4050.0243,
1419.170,3988.5595,
1416.259,4010.0925,
1413.349,3995.598,
1410.438,4067.5751,
1407.528,4057.0818,
1404.617,3997.8594,
1401.707,4016.4252,
1398.796,3961.0387,
1395.885,3874.2757,
1392.975,3898.4375,
1390.064,3923.2821,
1387.154,4000.3513,
1384.243,4041.6378,
1381.332,4044.2506,
1378.422,4104.4898,
1375.511,4220.6507,
1372.601,4305.4413,
1369.690,4349.3606,
1366.780,4455.2964,
1363.869,4562.8654,
1360.958,4661.5023,
1358.048,4706.5863,
1355.137,4812.3286,
1352.227,4947.2519,
1349.316,5065.2679,
1346.406,5201.9016,
1343.495,5302.9182,
1340.584,5366.3576,
1337.674,5344.1129,
1334.763,5438.4632,
1331.853,5595.1653,
1328.942,5685.1096,
1326.032,5733.0185,
1323.121,5843.0121,
1320.210,5962.406,
1317.300,6088.9032,
1314.389,6254.391,
1311.479,6388.7036,
1308.568,6490.0481,
1305.657,6663.0536,
1302.747,6861.3475,
1299.836,6982.9499,
1296.926,7217.4131,
1294.015,7430.6962,
1291.105,7646.4273,
1288.194,7890.9594,
1285.283,8085.8366,
1282.373,8325.6478,
1279.462,8517.5964,
1276.552,8669.2641,
1273.641,8751.3526,
1270.731,8711.8,
1267.820,8645.5957,
1264.909,8594.8977,
1261.999,8749.3349,
1259.088,8717.4107,
1256.178,8628.9979,
1253.267,8460.2937,
1250.356,8260.4406,
1247.446,7930.5135,
1244.535,7611.2459,
1241.625,7336.4707,
1238.714,7052.8755,
1235.804,6811.7285,
1232.893,6608.6526,
1229.982,6478.5018,
1227.072,6330.9359,
1224.161,6279.3153,
1221.251,6186.626,
1218.340,6049.9632,
1215.430,5965.0743,
1212.519,5899.1296,
1209.608,5826.7181,
1206.698,5781.0104,
1203.787,5748.2789,
1200.877,5756.6233,
1197.966,5823.1611,
1195.055,5945.1016,
1192.145,6136.055,
1189.234,6313.1754,
1186.324,6387.2281,
1183.413,6481.9417,
1180.503,6563.8333,
1177.592,6507.2677,
1174.681,6496.1096,
1171.771,6423.4079,
1168.860,6376.0742,
1165.950,6369.8874,
1163.039,6322.707,
1160.129,6337.3015,
1157.218,6353.8082,
1154.307,6280.5706,
1151.397,6172.3248,
1148.486,6163.2636,
1145.576,6081.729,
1142.665,6063.9708,
1139.754,6068.1954,
1136.844,6001.5706,
1133.933,5960.7699,
1131.023,5938.3371,
1128.112,5915.3582,
1125.202,5895.7367,
1122.291,5865.9771,
1119.380,5806.9764,
1116.470,5855.5154,
1113.559,5861.5,
1110.649,5847.0934,
1107.738,5826.6404,
1104.828,5793.0306,
1101.917,5752.328,
1099.006,5730.6753,
1096.096,5732.8438,
1093.185,5754.7939,
1090.275,5777.541,
1087.364,5838.7621,
1084.453,5909.4971,
1081.543,5960.276,
1078.632,5999.3037,
1075.722,6042.5687,
1072.811,6053.4857,
1069.901,6081.43,
1066.990,6031.7668,
1064.079,5977.3081,
1061.169,5959.7092,
1058.258,5972.0871,
1055.348,5997.9644,
1052.437,6015.6607,
1049.527,5967.9839,
1046.616,6032.2773,
1043.705,6084.2044,
1040.795,6107.7161,
1037.884,6125.132,
1034.974,6152.1417,
1032.063,6169.4388,
1029.153,6147.4588,
1026.242,6205.4109,
1023.331,6274.9957,
1020.421,6276.6493,
1017.510,6320.8043,
1014.600,6368.3815,
1011.689,6390.1924,
1008.778,6408.3423,
1005.868,6373.4035,
1002.957,6474.0649,
1000.047,6777.0601,
997.136,7122.9542,
994.226,7375.7141,
991.315,7457.1436,
988.404,7396.7982,
985.494,7371.752,
982.583,7338.3463,
979.673,7319.5987,
976.762,7361.4682,
973.852,7366.2113,
970.941,7385.3304,
968.030,7506.7831,
965.120,7457.5752,
962.209,7475.4786,
959.299,7484.166,
956.388,7452.3422,
953.477,7468.6579,
950.567,7542.7869,
947.656,7571.0382,
944.746,7521.7639,
941.835,7525.9785,
938.925,7560.4025,
936.014,7563.8427,
933.103,7537.7886,
930.193,7502.3148,
927.282,7445.0675,
924.372,7289.4759,
921.461,7164.1948,
918.551,7097.4533,
915.640,7006.8092,
912.729,6890.2264,
909.819,6825.6078,
906.908,6796.123,
903.998,6773.8205,
901.087,6781.8666,
898.176,6847.7178,
895.266,6932.1309,
892.355,6987.8083,
889.445,7048.2355,
886.534,7059.3533,
883.624,7218.9427,
880.713,7238.8505,
877.802,7087.2303,
874.892,6795.2951,
871.981,6302.2142,
869.071,5951.3408,
866.160,6132.6758,
863.250,6601.6273,
860.339,6990.4296,
857.428,7092.5085,
854.518,7047.4229,
851.607,6802.7945,
848.697,6395.2691,
845.786,6251.8155,
842.875,6385.7537,
839.965,6666.5505,
837.054,6986.6582,
834.144,7000.7469,
831.233,7031.498,
828.323,7006.4288,
825.412,6946.5383,
822.501,6885.1378,
819.591,6777.7059,
816.680,6698.3781,
813.770,6607.4522,
810.859,6521.1809,
807.949,6471.2561,
805.038,6469.1416,
802.127,6391.7676,
799.217,6396.4263,
796.306,6367.0133,
793.396,6366.027,
790.485,6390.6017,
787.574,6341.3647,
784.664,6416.815,
781.753,6491.5595,
778.843,6581.29,
775.932,6659.8577,
773.022,6695.1052,
770.111,6686.1119,
767.200,6636.0147,
764.290,6553.4662,
761.379,6515.5283,
758.469,6518.6884,
755.558,6465.3573,
752.648,6427.0709,
749.737,6399.9163,
746.826,6360.1281,
743.916,6328.7338,
741.005,6318.3599,
738.095,6175.4696,
735.184,6128.4675,
732.274,6153.8387,
729.363,6217.7607,
726.452,6297.0878,
723.542,6405.5465,
720.631,6478.7794,
717.721,6496.6358,
714.810,6527.6191,
711.899,6584.1337,
708.989,6595.4306,
706.078,6610.7248,
703.168,6573.8162,
700.257,6505.4177,
697.347,6446.8042,
694.436,6451.3254,
691.525,6444.895,
688.615,6446.0156,
685.704,6479.4453,
682.794,6512.3724,
679.883,6486.5369,
676.973,6576.2904,
674.062,6555.577,
671.151,6554.9782,
668.241,6557.4839,
665.330,6477.6134,
662.420,6480.0096,
659.509,6487.4842,
656.598,6499.7222,
653.688,6540.4055,
650.777,6641.1751,
647.867,6661.0833,
644.956,6555.2913,
642.046,6371.8271,
639.135,6208.7096,
636.224,6210.4072,
633.314,6391.4251,
630.403,6468.243,
627.493,6485.2752,
624.582,6482.7377,
621.672,6501.7456,
618.761,6545.8165,
615.850,6562.8059,
612.940,6571.3061,
610.029,6587.6294,
607.119,6618.425,
604.208,6580.3192,
601.297,6550.5385,
598.387,6559.284,
595.476,6610.0089,
592.566,6573.0167,
589.655,6504.9504,
586.745,6481.4813,
583.834,6497.5742,
580.923,6508.3057,
578.013,6476.1316,
575.102,6470.9415,
572.192,6494.2225,
569.281,6534.4526,
566.371,6550.8877,
563.460,6577.1914,
560.549,6579.7035,
557.639,6586.8081,
554.728,6631.3085,
551.818,6675.7865,
548.907,6690.3753,
545.996,6728.1023,
543.086,6783.3388,
540.175,6787.232,
537.265,6827.3354,
534.354,6818.4188,
531.444,6822.9231,
528.533,6900.749,
525.622,6960.497,
522.712,6993.5229,
519.801,7064.5458,
516.891,7174.7765,
513.980,7255.3033,
511.070,7368.8565,
508.159,7466.9874,
505.248,7559.0486,
502.338,7663.0469,
499.427,7784.2246,
496.517,7854.9646,
493.606,7934.3008,
490.695,8037.3143,
487.785,8071.9549,
484.874,8088.4858,
481.964,8116.925,
479.053,8124.0469,
476.143,8021.9078,
473.232,7985.285,
470.321,8008.5335,
467.411,8038.4087,
464.500,8018.6442,
461.590,8063.8229,
458.679,8156.2927,
455.769,8265.609,
452.858,8370.8056,
449.947,8460.1855,
447.037,8511.8718,
444.126,8568.9909,
441.216,8635.3207,
438.305,8668.8457,
435.395,8712.8382,
432.484,8750.1701,
429.573,8746.6972,
426.663,8631.916,
423.752,7901.3687,
420.842,6950.5097,
417.931,6228.7761,
415.020,6359.9721,
412.110,7603.8527,
409.199,8442.3627,
406.289,8793.8122,
403.378,8640.8699,
400.468,8454.8953,
397.557,8596.0183,
394.646,8928.7919,
391.736,9317.162,
388.825,9306.6027,
385.915,9354.0584,
383.004,9423.0567,
380.094,9488.1854,
377.183,9560.4231,
374.272,9642.9197,
371.362,9701.3865,
368.451,9719.5576,
365.541,9786.3553,
362.630,9806.1387,
359.719,9812.5314,
356.809,9824.1828,
353.898,9818.9412,
350.988,9856.559,
348.077,9872.6563,
345.167,9833.7705,
342.256,9878.5946,
339.345,9894.6886,
336.435,9895.0017,
333.524,9889.416,
330.614,9918.4771,
327.703,9928.5268,
324.793,9948.8343,
321.882,10004.716,
318.971,10093.929,
316.061,10203.607,
313.150,10313.983,
310.240,10402.295,
307.329,10491.971,
304.418,10607.66,
301.508,10709.029,
298.597,10726.059,
295.687,10741.722,
292.776,10774.75,
289.866,10856.495,
286.955,11069.986,
284.044,11204.862,
281.134,11308.824,
278.223,11404.272,
275.313,11553.117,
272.402,11640.267,
269.492,11588.613,
266.581,11386.454,
263.670,11329.845,
260.760,11495.812,
257.849,11787.991,
254.939,12146.859,
252.028,12173.215,
249.117,12281.545,
246.207,12451.641,
243.296,12649.291,
240.386,12766.49,
237.475,12830.178,
234.565,12864.879,
231.654,12956.177,
228.743,13011.173,
225.833,13055.489,
222.922,13105.469,
220.012,13297.808,
217.101,13413.497,
214.191,13505,
211.280,13626.486,
208.369,13659.048,
205.459,13717.212,
202.548,13798.781,
199.638,13864.09,
196.727,13933.393,
193.816,14023.266,
190.906,14138.405,
187.995,14192.706,
185.085,14298.505,
182.174,14397.263,
179.264,14403.768,
176.353,14489.083,
173.442,14539.038,
170.532,14523.506,
167.621,14351.914,
164.711,14101.054,
161.800,13675.896,
158.890,12971.283,
155.979,12169.253,
153.068,11250.047,
150.158,10191.581,
147.247,8881.318,
144.337,7371.6158,
141.426,5830.2234,
138.516,4329.7701,
135.605,3113.2456,
132.694,2138.3174,
129.784,1388.3593,
126.873,889.91379,
123.963,610.38105,
121.052,428.75728,
118.141,310.96345,
115.231,247.25924,
112.320,195.65821,
109.410,156.40934,
106.499,135.04469,
103.589,124.89746,
100.678,116.15405,
97.767,104.77905,
94.857,92.026197,
91.946,86.903111,
89.036,85.016246,
86.125,69.41373,
83.215,70.278283,
80.304,69.711346,
77.393,55.547948,
74.483,49.914055,
71.572,47.137648,
68.662,46.153663,
65.751,42.621407,
62.840,39.573192,
59.930,37.312714,
57.019,36.607632,
54.109,37.097161,
51.198,37.198391,
48.288,36.494338,
45.377,35.790959,
42.466,35.087781,
39.556,34.845356,
36.645,36.951926,
33.735,40.615491,
30.824,40.628469,
27.914,31.513191,
25.003,32.367912,
22.092,34.791618,
19.182,38.186486,
16.271,59.17119,
13.361,165.69971,
10.450,402.78148,
7.539,997.04786,
4.629,1514.4765,
1.718,1814.73,
-1.192,1685.0611,
-4.103,1028.0164,
-7.013,427.52624,
-9.924,-0.5,
