,PL0CF0~1,
Raman shift [1/cm],Intensity,
3014.167,-0.5,
3011.256,-1.3999785,
3008.346,193.48915,
3005.435,255.76855,
3002.525,254.08501,
2999.614,273.21299,
2996.704,285.72165,
2993.793,286.22466,
2990.882,304.37024,
2987.972,303.52522,
2985.061,306.7266,
2982.151,326.51683,
2979.240,329.24809,
2976.329,350.77048,
2973.419,360.14673,
2970.508,348.2166,
2967.598,375.35663,
2964.687,381.09647,
2961.777,379.62809,
2958.866,397.49406,
2955.955,410.05309,
2953.045,410.68345,
2950.134,433.33095,
2947.224,452.21531,
2944.313,448.34259,
2941.403,470.27418,
2938.492,475.38348,
2935.581,479.75278,
2932.671,477.62017,
2929.760,481.7077,
2926.850,500.61165,
2923.939,506.65416,
2921.028,513.39987,
2918.118,510.76071,
2915.207,532.98122,
2912.297,528.5677,
2909.386,541.31751,
2906.476,525.927,
2903.565,556.63038,
2900.654,532.66482,
2897.744,529.53772,
2894.833,538.68545,
2891.923,542.6346,
2889.012,540.96243,
2886.102,529.31216,
2883.191,513.51605,
2880.280,501.47607,
2877.370,463.95356,
2874.459,462.20442,
2871.549,512.46111,
2868.638,553.27319,
2865.727,564.99618,
2862.817,562.70053,
2859.906,567.3604,
2856.996,564.97056,
2854.085,555.65543,
2851.175,580.06635,
2848.264,557.353,
2845.353,563.15493,
2842.443,545.50348,
2839.532,551.03726,
2836.622,547.5,
2833.711,543.81868,
2830.801,522.5147,
2827.890,527.19059,
2824.979,539.29002,
2822.069,545.38628,
2819.158,534.35984,
2816.248,535.48842,
2813.337,555.20121,
2810.427,561.80855,
2807.516,552.81656,
2804.605,553.29567,
2801.695,558.15791,
2798.784,550.461,
2795.874,556.24146,
2792.963,543.35745,
2790.052,565.49678,
2787.142,539.25012,
2784.231,541.56523,
2781.321,558.99135,
2778.410,540.23476,
2775.500,563.88068,
2772.589,549.8838,
2769.678,540.28497,
2766.768,571.09615,
2763.857,568.55202,
2760.947,564.00315,
2758.036,579.7485,
2755.126,564.63462,
2752.215,577.45898,
2749.304,582.58452,
2746.394,585.12088,
2743.483,595.90007,
2740.573,588.59738,
2737.662,585.38314,
2734.751,575.91756,
2731.841,575.95971,
2728.930,601.37715,
2726.020,597.5,
2723.109,599.27317,
2720.199,609.05009,
2717.288,602.48176,
2714.377,610.98328,
2711.467,618.61429,
2708.556,627.51095,
2705.646,636.78174,
2702.735,627.00258,
2699.825,632.43456,
2696.914,629.83317,
2694.003,633.83009,
2691.093,620.26775,
2688.182,645.75704,
2685.272,651.75605,
2682.361,625.0524,
2679.450,644.12965,
2676.540,642.17481,
2673.629,626.83184,
2670.719,648.69687,
2667.808,630.05634,
2664.898,627.98055,
2661.987,635.56684,
2659.076,666.93964,
2656.166,652.90263,
2653.255,657.53232,
2650.345,667.36388,
2647.434,681.69948,
2644.524,670.22186,
2641.613,666.72816,
2638.702,698.86876,
2635.792,675.68545,
2632.881,681.68469,
2629.971,660.54018,
2627.060,668.83188,
2624.149,684.63437,
2621.239,686.49407,
2618.328,696.27077,
2615.418,675.80001,
2612.507,702.29047,
2609.597,686.79541,
2606.686,724.48792,
2603.775,694.05952,
2600.865,702.4386,
2597.954,730.1646,
2595.044,725.15191,
2592.133,722.99676,
2589.223,731.09054,
2586.312,747.10807,
2583.401,740.43797,
2580.491,731.98081,
2577.580,745.52145,
2574.670,752.13504,
2571.759,741.00513,
2568.848,728.21262,
2565.938,754.30954,
2563.027,753.59772,
2560.117,758.04206,
2557.206,775.77306,
2554.296,755.04462,
2551.385,769.07007,
2548.474,781.72231,
2545.564,766.0698,
2542.653,776.78524,
2539.743,771.29052,
2536.832,780.94859,
2533.922,784.46846,
2531.011,782.77498,
2528.100,801.62549,
2525.190,806.43197,
2522.279,796.53176,
2519.369,814.78318,
2516.458,795.15723,
2513.548,795.82711,
2510.637,808.97558,
2507.726,817.13565,
2504.816,785.5,
2501.905,817.96342,
2498.995,789.99297,
2496.084,812.27351,
2493.173,813.92119,
2490.263,832.65709,
2487.352,833.54173,
2484.442,829.08888,
2481.531,824.97863,
2478.621,835.80333,
2475.710,836.63802,
2472.799,856.47307,
2469.889,850.38086,
2466.978,835.33507,
2464.068,849.8228,
2461.157,860.26998,
2458.247,863.92648,
2455.336,875.05187,
2452.425,851.08016,
2449.515,877.72662,
2446.604,878.39176,
2443.694,872.22124,
2440.783,876.88063,
2437.872,885.64586,
2434.962,890.81336,
2432.051,902.30261,
2429.141,909.78824,
2426.230,902.95634,
2423.320,920.78632,
2420.409,904.57675,
2417.498,915.91011,
2414.588,933.11969,
2411.677,933.46817,
2408.767,954.6939,
2405.856,937.21668,
2402.946,929.39276,
2400.035,921.20657,
2397.124,941.40908,
2394.214,953.256,
2391.303,950.25135,
2388.393,965.44421,
2385.482,954.20499,
2382.571,965.70296,
2379.661,957.82547,
2376.750,981.23391,
2373.840,968.5376,
2370.929,984.26175,
2368.019,989.8128,
2365.108,1003.4529,
2362.197,1007.1109,
2359.287,992.72674,
2356.376,997.48591,
2353.466,1015.2877,
2350.555,1008.2296,
2347.645,1019.1423,
2344.734,1017.7995,
2341.823,1009.5497,
2338.913,1018.0523,
2336.002,1038.2081,
2333.092,1031.5462,
2330.181,1048.6611,
2327.270,1033.8751,
2324.360,1037.9952,
2321.449,1060.5,
2318.539,1062.0321,
2315.628,1081.6335,
2312.718,1049.7533,
2309.807,1071.8169,
2306.896,1063.0039,
2303.986,1060.5844,
2301.075,1078.3297,
2298.165,1066.163,
2295.254,1088.8537,
2292.344,1078.9772,
2289.433,1062.8127,
2286.522,1080.6025,
2283.612,1098.3597,
2280.701,1125.0605,
2277.791,1104.2213,
2274.880,1124.4959,
2271.969,1137.4342,
2269.059,1141.6172,
2266.148,1141.7705,
2263.238,1176.5849,
2260.327,1159.4656,
2257.417,1170.8394,
2254.506,1170.7593,
2251.595,1180.7836,
2248.685,1162.6135,
2245.774,1165.4119,
2242.864,1180.8616,
2239.953,1199.1345,
2237.043,1198.7861,
2234.132,1207.7026,
2231.221,1207.3682,
2228.311,1195.192,
2225.400,1240.106,
2222.490,1231.1418,
2219.579,1252.1838,
2216.669,1267.9308,
2213.758,1257.713,
2210.847,1288.0264,
2207.937,1287.9479,
2205.026,1318.4997,
2202.116,1329.9087,
2199.205,1350.2242,
2196.294,1372.244,
2193.384,1408.0515,
2190.473,1420.5,
2187.563,1441.6015,
2184.652,1469.5788,
2181.742,1526.0475,
2178.831,1571.216,
2175.920,1577.3342,
2173.010,1641.03,
2170.099,1715.7609,
2167.189,1788.5718,
2164.278,1808.4779,
2161.368,1893.9253,
2158.457,1979.8687,
2155.546,2048.3462,
2152.636,2142.7286,
2149.725,2203.453,
2146.815,2255.9317,
2143.904,2324.7826,
2140.993,2291.3465,
2138.083,2340.1959,
2135.172,2378.4664,
2132.262,2353.7095,
2129.351,2337.2552,
2126.441,2271.2377,
2123.530,2199.4898,
2120.619,2102.9315,
2117.709,2031.5044,
2114.798,1925.6534,
2111.888,1831.189,
2108.977,1746.7318,
2106.067,1631.5617,
2103.156,1632.6547,
2100.245,1574.4787,
2097.335,1535.6833,
2094.424,1502.4148,
2091.514,1493.1262,
2088.603,1466.924,
2085.692,1472.0464,
2082.782,1441.9861,
2079.871,1438.3576,
2076.961,1435.8229,
2074.050,1445.5,
2071.140,1444.2127,
2068.229,1430.6966,
2065.318,1425.5135,
2062.408,1423.848,
2059.497,1417.9346,
2056.587,1414.6049,
2053.676,1401.9671,
2050.766,1406.9611,
2047.855,1432.7311,
2044.944,1409.9583,
2042.034,1417.5692,
2039.123,1384.1229,
2036.213,1426.2089,
2033.302,1427.1959,
2030.391,1396.7547,
2027.481,1399.4023,
2024.570,1416.1425,
2021.660,1410.0322,
2018.749,1433.5,
2015.839,1435.9213,
2012.928,1442.995,
2010.017,1425.538,
2007.107,1451.4308,
2004.196,1421.2023,
2001.286,1402.3975,
1998.375,1421.938,
1995.465,1420.2071,
1992.554,1407.9824,
1989.643,1419.0507,
1986.733,1396.714,
1983.822,1401.0643,
1980.912,1400.6284,
1978.001,1396.2792,
1975.090,1416.6954,
1972.180,1413.6729,
1969.269,1433.9742,
1966.359,1411.986,
1963.448,1417.2596,
1960.538,1438.0496,
1957.627,1407.5093,
1954.716,1431.6669,
1951.806,1423.5497,
1948.895,1426.1579,
1945.985,1425.2451,
1943.074,1387.0349,
1940.164,1414.702,
1937.253,1423.513,
1934.342,1418.423,
1931.432,1401.418,
1928.521,1394.8506,
1925.611,1393.7792,
1922.700,1361.8425,
1919.790,1401.7307,
1916.879,1355.5455,
1913.968,1378.4668,
1911.058,1365.9355,
1908.147,1415.0314,
1905.237,1417.7059,
1902.326,1415.0274,
1899.415,1404.0341,
1896.505,1376.5421,
1893.594,1387.5824,
1890.684,1410.1797,
1887.773,1416.0776,
1884.863,1430.5319,
1881.952,1430.8276,
1879.041,1418.4221,
1876.131,1382.1105,
1873.220,1411.1108,
1870.310,1418.3565,
1867.399,1405.7079,
1864.489,1434.2928,
1861.578,1407.2086,
1858.667,1431.2994,
1855.757,1426.4714,
1852.846,1443.6744,
1849.936,1414.0105,
1847.025,1456.6727,
1844.114,1475.5118,
1841.204,1459.1049,
1838.293,1438.9942,
1835.383,1478.0225,
1832.472,1486.7435,
1829.562,1516.5774,
1826.651,1488.8491,
1823.740,1480.5154,
1820.830,1490.3583,
1817.919,1500.4581,
1815.009,1535.0369,
1812.098,1510.878,
1809.188,1522.5077,
1806.277,1486.341,
1803.366,1523.1007,
1800.456,1500.6541,
1797.545,1522.7127,
1794.635,1538.5659,
1791.724,1509.3931,
1788.813,1557.8915,
1785.903,1537.1279,
1782.992,1544.7697,
1780.082,1526.3454,
1777.171,1551.8335,
1774.261,1577.6855,
1771.350,1602.504,
1768.439,1584.991,
1765.529,1606.8648,
1762.618,1607.2531,
1759.708,1607.674,
1756.797,1607.9697,
1753.887,1615.0394,
1750.976,1598.9653,
1748.065,1613.6797,
1745.155,1635.1387,
1742.244,1589.8126,
1739.334,1650.7188,
1736.423,1666.1841,
1733.512,1655.0447,
1730.602,1698.633,
1727.691,1681.2583,
1724.781,1713.9751,
1721.870,1698.9427,
1718.960,1697.4334,
1716.049,1734.5759,
1713.138,1784.2498,
1710.228,1736.6713,
1707.317,1755.0371,
1704.407,1795.3343,
1701.496,1753.9226,
1698.586,1802.1671,
1695.675,1803.6929,
1692.764,1793.0861,
1689.854,1856.5985,
1686.943,1848.871,
1684.033,1905.0595,
1681.122,1914.3641,
1678.211,2001.6625,
1675.301,1956.6418,
1672.390,2009.512,
1669.480,2014.1418,
1666.569,2093.1445,
1663.659,2067.0842,
1660.748,2162.8471,
1657.837,2181.8559,
1654.927,2242.5703,
1652.016,2246.6421,
1649.106,2293.6996,
1646.195,2342.3631,
1643.285,2378.1836,
1640.374,2408.0226,
1637.463,2433.9051,
1634.553,2512.3768,
1631.642,2638.7269,
1628.732,2750.9918,
1625.821,2833.5837,
1622.911,2960.7787,
1620.000,3142.1944,
1617.089,3331.699,
1614.179,3473.4955,
1611.268,3667.176,
1608.358,3834.6337,
1605.447,3958.4724,
1602.536,3997.1842,
1599.626,4017.8987,
1596.715,4083.0321,
1593.805,4032.2628,
1590.894,3978.8245,
1587.984,3947.3833,
1585.073,3869.4789,
1582.162,3899.9141,
1579.252,3832.398,
1576.341,3830.7202,
1573.431,3828.2346,
1570.520,3805.8618,
1567.610,3777.1467,
1564.699,3701.3472,
1561.788,3628.3174,
1558.878,3567.5342,
1555.967,3514.1454,
1553.057,3450.5694,
1550.146,3409.7509,
1547.235,3359.7675,
1544.325,3319.0583,
1541.414,3271.696,
1538.504,3236.931,
1535.593,3228.1701,
1532.683,3193.0176,
1529.772,3157.3438,
1526.861,3131.1649,
1523.951,3084.9457,
1521.040,3056.2506,
1518.130,3030.7103,
1515.219,2998.9411,
1512.309,2956.545,
1509.398,2946.2262,
1506.487,2955.1697,
1503.577,2915.8835,
1500.666,2895.9791,
1497.756,2813.7205,
1494.845,2827.3394,
1491.934,2799.4748,
1489.024,2791.7749,
1486.113,2719.1772,
1483.203,2711.7237,
1480.292,2708.106,
1477.382,2646.0731,
1474.471,2590.0615,
1471.560,2592.739,
1468.650,2578.6851,
1465.739,2552.2068,
1462.829,2558.6141,
1459.918,2545.7429,
1457.008,2551.8849,
1454.097,2554.7786,
1451.186,2544.471,
1448.276,2564.0241,
1445.365,2562.4645,
1442.455,2552.7473,
1439.544,2525.3138,
1436.633,2539.8982,
1433.723,2546.3754,
1430.812,2540.3282,
1427.902,2475.7255,
1424.991,2485.2031,
1422.081,2452.4708,
1419.170,2435.675,
1416.259,2423.7792,
1413.349,2435.0943,
1410.438,2404.511,
1407.528,2394.6499,
1404.617,2411.0039,
1401.707,2416.2605,
1398.796,2398.8112,
1395.885,2402.9293,
1392.975,2437.5836,
1390.064,2444.0252,
1387.154,2409.3398,
1384.243,2340.6368,
1381.332,2316.7053,
1378.422,2357.3593,
1375.511,2490.3822,
1372.601,2562.5393,
1369.690,2693.6545,
1366.780,2810.3363,
1363.869,2795.5438,
1360.958,2840.5797,
1358.048,2863.1936,
1355.137,2906.3886,
1352.227,2980.2387,
1349.316,3057.8824,
1346.406,3128.0124,
1343.495,3155.4304,
1340.584,3224.0708,
1337.674,3270.0393,
1334.763,3325.3821,
1331.853,3348.5629,
1328.942,3394.8627,
1326.032,3420.0749,
1323.121,3495.6326,
1320.210,3528.491,
1317.300,3547.2558,
1314.389,3603.237,
1311.479,3636.4515,
1308.568,3649.3618,
1305.657,3713.4813,
1302.747,3776.6862,
1299.836,3852.9767,
1296.926,3920.2512,
1294.015,4065.5043,
1291.105,4078.5443,
1288.194,4216.0851,
1285.283,4319.9523,
1282.373,4414.5779,
1279.462,4480.9505,
1276.552,4522.5473,
1273.641,4520.2052,
1270.731,4510.197,
1267.820,4571.944,
1264.909,4530.9061,
1261.999,4497.0007,
1259.088,4483.3189,
1256.178,4476.5048,
1253.267,4411.8228,
1250.356,4349.833,
1247.446,4250.8786,
1244.535,4168.7411,
1241.625,4079.3298,
1238.714,3954.4956,
1235.804,3865.1166,
1232.893,3809.8698,
1229.982,3830.5256,
1227.072,3742.7103,
1224.161,3700.3583,
1221.251,3653.2965,
1218.340,3583.1404,
1215.430,3521.67,
1212.519,3469.3344,
1209.608,3441.1069,
1206.698,3450.5213,
1203.787,3457.2387,
1200.877,3478.893,
1197.966,3501.372,
1195.055,3579.2924,
1192.145,3661.6236,
1189.234,3775.9797,
1186.324,3840.7742,
1183.413,3886.1802,
1180.503,3934.2451,
1177.592,3953.0759,
1174.681,3958.4487,
1171.771,3864.8734,
1168.860,3707.6897,
1165.950,3725.5579,
1163.039,3705.5639,
1160.129,3643.9522,
1157.218,3581.6173,
1154.307,3534.0618,
1151.397,3496.9403,
1148.486,3478.7968,
1145.576,3497.1531,
1142.665,3489.1619,
1139.754,3434.8005,
1136.844,3407.0933,
1133.933,3384.0778,
1131.023,3374.8605,
1128.112,3368.2156,
1125.202,3357.5386,
1122.291,3376.124,
1119.380,3373.6299,
1116.470,3386.8678,
1113.559,3427.1625,
1110.649,3418.8546,
1107.738,3397.2478,
1104.828,3394.5737,
1101.917,3410.4174,
1099.006,3425.0258,
1096.096,3429.2201,
1093.185,3457.3162,
1090.275,3493.4893,
1087.364,3465.8216,
1084.453,3427.5639,
1081.543,3445.9959,
1078.632,3473.3231,
1075.722,3432.7478,
1072.811,3433.037,
1069.901,3482.8128,
1066.990,3461.4417,
1064.079,3497.0113,
1061.169,3536.3828,
1058.258,3556.7349,
1055.348,3581.9013,
1052.437,3622.9244,
1049.527,3595.742,
1046.616,3627.8886,
1043.705,3648.4568,
1040.795,3677.7632,
1037.884,3672.282,
1034.974,3666.9072,
1032.063,3700.7073,
1029.153,3736.6039,
1026.242,3737.4688,
1023.331,3729.1672,
1020.421,3709.3754,
1017.510,3742.4001,
1014.600,3774.5,
1011.689,3801.5817,
1008.778,3878.4433,
1005.868,3931.2413,
1002.957,4013.8353,
1000.047,4177.9241,
997.136,4314.9636,
994.226,4379.5306,
991.315,4367.2748,
988.404,4297.855,
985.494,4200.3108,
982.583,4147.2044,
979.673,4117.5506,
976.762,4092.474,
973.852,4088.8982,
970.941,4084.681,
968.030,4045.4421,
965.120,4022.6611,
962.209,4061.0255,
959.299,4096.5382,
956.388,4105.1402,
953.477,4116.886,
950.567,4138.5457,
947.656,4143.5054,
944.746,4158.7974,
941.835,4161.1196,
938.925,4181.2415,
936.014,4200.6049,
933.103,4195.0231,
930.193,4154.1175,
927.282,4096.5917,
924.372,4098.2829,
921.461,4071.2532,
918.551,3995.8545,
915.640,3929.8025,
912.729,3900.743,
909.819,3892.6129,
906.908,3908.619,
903.998,3880.0715,
901.087,3920.238,
898.176,3959.4299,
895.266,3968.6912,
892.355,3979.3472,
889.445,4080.0592,
886.534,4084.6744,
883.624,4119.1416,
880.713,4173.7767,
877.802,4187.2248,
874.892,4140.0069,
871.981,4124.934,
869.071,4143.3131,
866.160,4140.9803,
863.250,4114.3867,
860.339,4111.4726,
857.428,4137.465,
854.518,4102.8982,
851.607,4082.0965,
848.697,4056.4899,
845.786,4057.3983,
842.875,4065.4027,
839.965,4073.7139,
837.054,4129.072,
834.144,4090.9494,
831.233,4072.1675,
828.323,4057.5977,
825.412,4039.485,
822.501,4017.5212,
819.591,4000.9932,
816.680,3976.4615,
813.770,3926.6448,
810.859,3897.3413,
807.949,3888.8146,
805.038,3877.2965,
802.127,3883.8815,
799.217,3822.6325,
796.306,3827.0407,
793.396,3816.5226,
790.485,3783.1877,
787.574,3833.1922,
784.664,3798.7475,
781.753,3846.1787,
778.843,3866.619,
775.932,3877.1664,
773.022,3912.3444,
770.111,3898.4456,
767.200,3909.681,
764.290,3894.43,
761.379,3893.4976,
758.469,3892.1548,
755.558,3813.6882,
752.648,3887.0025,
749.737,3795.0954,
746.826,3738.9662,
743.916,3692.5902,
741.005,3547.7484,
738.095,3337.4723,
735.184,3105.1327,
732.274,3077.1933,
729.363,3233.4213,
726.452,3477.6823,
723.542,3661.4146,
720.631,3760.9511,
717.721,3782.1987,
714.810,3806.8123,
711.899,3850.7376,
708.989,3834.5991,
706.078,3803.2492,
703.168,3759.0667,
700.257,3730.5491,
697.347,3723.7174,
694.436,3723.9326,
691.525,3703.0337,
688.615,3733.719,
685.704,3744.571,
682.794,3743.202,
679.883,3778.5444,
676.973,3712.832,
674.062,3738.423,
671.151,3753.925,
668.241,3750.7415,
665.330,3766.5168,
662.420,3745.7498,
659.509,3773.2466,
656.598,3771.5935,
653.688,3758.8425,
650.777,3802.6629,
647.867,3777.9768,
644.956,3792.932,
642.046,3807.9876,
639.135,3810.6616,
636.224,3807.5597,
633.314,3819.4688,
630.403,3821.3176,
627.493,3821.2681,
624.582,3827.2674,
621.672,3848.6513,
618.761,3901.9358,
615.850,3911.3372,
612.940,3900.377,
610.029,3895.1033,
607.119,3922.7404,
604.208,3933.3101,
601.297,3935.0044,
598.387,3935.2198,
595.476,3937.4202,
592.566,3915.3823,
589.655,3933.5283,
586.745,3920.3298,
583.834,3876.0816,
580.923,3835.4384,
578.013,3825.2369,
575.102,3803.5716,
572.192,3800.2185,
569.281,3833.4194,
566.371,3910.8991,
563.460,3934.0203,
560.549,3947.8092,
557.639,3943.4147,
554.728,3916.3633,
551.818,4009.2209,
548.907,4034.3753,
545.996,4039.4439,
543.086,4036.9638,
540.175,4011.2685,
537.265,3997.1873,
534.354,4019.0896,
531.444,4073.3658,
528.533,4140.644,
525.622,4072.3606,
522.712,4078.1296,
519.801,4109.0665,
516.891,4158.1587,
513.980,4260.3657,
511.070,4249.7783,
508.159,4283.0483,
505.248,4330.5029,
502.338,4338.0363,
499.427,4390.5208,
496.517,4470.6817,
493.606,4500.974,
490.695,4469.9146,
487.785,4537.6562,
484.874,4578.2263,
481.964,4566.6764,
479.053,4519.0425,
476.143,4483.7162,
473.232,4526.8224,
470.321,4517.7383,
467.411,4485.9544,
464.500,4475.4224,
461.590,4472.3595,
458.679,4499.565,
455.769,4505.8016,
452.858,4473.3972,
449.947,4510.8298,
447.037,4529.4217,
444.126,4523.5606,
441.216,4503.2197,
438.305,4513.1249,
435.395,4546.6262,
432.484,4531.8268,
429.573,4493.8901,
426.663,4521.2551,
423.752,4524.8948,
420.842,4448.3201,
417.931,4387.9584,
415.020,4498.6787,
412.110,4577.8562,
409.199,4623.1039,
406.289,4642.4839,
403.378,4645.5307,
400.468,4654.6027,
397.557,4657.5,
394.646,4635.4137,
391.736,4575.7656,
388.825,4584.0621,
385.915,4530.0875,
383.004,4491.6362,
380.094,4526.0261,
377.183,4653.9471,
374.272,4718.8101,
371.362,4785.8831,
368.451,4889.5972,
365.541,4924.1218,
362.630,4937.3237,
359.719,4952.6347,
356.809,4982.1796,
353.898,4993.4116,
350.988,4981.3104,
348.077,4988.8286,
345.167,5038.5,
342.256,5038.5,
339.345,5048.0658,
336.435,5057.888,
333.524,5061.0068,
330.614,5045.3585,
327.703,5075.4116,
324.793,5118.8116,
321.882,5148.3522,
318.971,5087.3899,
316.061,5133.399,
313.150,5224.9785,
310.240,5293.9953,
307.329,5292.9268,
304.418,5305.1786,
301.508,5321.5,
298.597,5321.5,
295.687,5325.5634,
292.776,5366.6669,
289.866,5475.5246,
286.955,5731.8624,
284.044,5969.6348,
281.134,6180.1828,
278.223,6368.0619,
275.313,6563.3286,
272.402,6679.4365,
269.492,6780.7111,
266.581,6889.2265,
263.670,6983.3296,
260.760,7095.6485,
257.849,7212.764,
254.939,7325.048,
252.028,7428.5621,
249.117,7412.2239,
246.207,7353.5082,
243.296,7380.5936,
240.386,7297.9581,
237.475,7201.0189,
234.565,7102.3952,
231.654,7000.1415,
228.743,6949.7316,
225.833,6878.1921,
222.922,6760.0007,
220.012,6684.9595,
217.101,6591.3091,
214.191,6505.5121,
211.280,6458.9545,
208.369,6452.1359,
205.459,6416.1645,
202.548,6355.6002,
199.638,6304.0792,
196.727,6312.5151,
193.816,6363.2248,
190.906,6445.0717,
187.995,6347.3284,
185.085,6390.1026,
182.174,6448.0763,
179.264,6346.8891,
176.353,6418.8013,
173.442,6421.2679,
170.532,6346.3562,
167.621,6370.8694,
164.711,6257.6706,
161.800,6055.3722,
158.890,5779.7165,
155.979,5479.6057,
153.068,5057.3068,
150.158,4520.0331,
147.247,3882.4915,
144.337,3183.4183,
141.426,2508.1461,
138.516,1899.5054,
135.605,1348.8002,
132.694,914.71148,
129.784,589.22215,
126.873,382.54962,
123.963,270.50437,
121.052,195.40344,
118.141,139.71908,
115.231,98.99749,
112.320,79.534549,
109.410,74.272803,
106.499,67.863406,
103.589,59.216692,
100.678,52.141891,
97.767,48.587204,
94.857,41.57011,
91.946,38.5,
89.036,38.274204,
86.125,36.855794,
83.215,38.092761,
80.304,37.584539,
77.393,31.919179,
74.483,22.983246,
71.572,21.761169,
68.662,26.322453,
65.751,14.312784,
62.840,18.207232,
59.930,26.874572,
57.019,28.284736,
54.109,21.33407,
51.198,17.404828,
48.288,19.567949,
45.377,28.008486,
42.466,29.026684,
39.556,25.154644,
36.645,23.048074,
33.735,21.980752,
30.824,21.058226,
27.914,19.655876,
25.003,20.122637,
22.092,21.791618,
19.182,24.98054,
16.271,39.669833,
13.361,164.77261,
10.450,397.00816,
7.539,795.04792,
4.629,962.5243,
1.718,902.97626,
-1.192,513.27247,
-4.103,239.87763,
-7.013,66.921897,
-9.924,1.5,
