,PL4B8A~1,
Raman shift [1/cm],Intensity,
3014.167,-0.75,
3011.256,3.0499571,
3008.346,100.54748,
3005.435,115.97791,
3002.525,122.06264,
2999.614,105.33963,
2996.704,119.33866,
2993.793,129.51613,
2990.882,122.33394,
2987.972,130.30045,
2985.061,138.4766,
2982.151,128.32394,
2979.240,141.41539,
2976.329,156.51502,
2973.419,161.85026,
2970.508,159.26662,
2967.598,145.91908,
2964.687,166.41372,
2961.777,172.43802,
2958.866,158.91568,
2955.955,161.7677,
2953.045,188.94797,
2950.134,188.19755,
2947.224,183.62009,
2944.313,198.04772,
2941.403,199.38093,
2938.492,198.23915,
2935.581,196.06717,
2932.671,192.09121,
2929.760,207.33848,
2926.850,193.45188,
2923.939,210.65188,
2921.028,203.4794,
2918.118,237.16939,
2915.207,215.18017,
2912.297,218.18653,
2909.386,220.05292,
2906.476,222.05618,
2903.565,239.94408,
2900.654,232.47346,
2897.744,213.40087,
2894.833,221.95109,
2891.923,215.6282,
2889.012,223.20954,
2886.102,207.16893,
2883.191,214.23584,
2880.280,201.26435,
2877.370,191.31393,
2874.459,159.18716,
2871.549,186.35549,
2868.638,224.11596,
2865.727,206.12304,
2862.817,232.90774,
2859.906,219.70584,
2856.996,225.73868,
2854.085,233.53152,
2851.175,230.10545,
2848.264,223.1765,
2845.353,232.60299,
2842.443,207.24304,
2839.532,231.87675,
2836.622,215.40169,
2833.711,218.87952,
2830.801,227.54485,
2827.890,225.52098,
2824.979,217.26206,
2822.069,242.14765,
2819.158,227.92924,
2816.248,227.46816,
2813.337,215.06463,
2810.427,234.02961,
2807.516,219.04875,
2804.605,236.63702,
2801.695,228.0263,
2798.784,226.02823,
2795.874,235.68537,
2792.963,224.74989,
2790.052,226.24914,
2787.142,231.64485,
2784.231,231.89598,
2781.321,227.18714,
2778.410,231.64466,
2775.500,233.88897,
2772.589,229.55734,
2769.678,235.85404,
2766.768,240.32183,
2763.857,242.092,
2760.947,242.2563,
2758.036,234.77861,
2755.126,231.10257,
2752.215,248.56825,
2749.304,248.88849,
2746.394,232.69551,
2743.483,247.60001,
2740.573,252.4602,
2737.662,239.47337,
2734.751,244.71595,
2731.841,244.68223,
2728.930,241.02543,
2726.020,250.26042,
2723.109,253.81708,
2720.199,247.05305,
2717.288,259.42518,
2714.377,256.8959,
2711.467,242.62693,
2708.556,247.72874,
2705.646,246.40493,
2702.735,266.24484,
2699.825,253.91361,
2696.914,264.06002,
2694.003,256.60773,
2691.093,263.41124,
2688.182,258.15741,
2685.272,264.64829,
2682.361,264.91485,
2679.450,266.03598,
2676.540,253.71745,
2673.629,273.92714,
2670.719,257.04574,
2667.808,265.47183,
2664.898,257.28891,
2661.987,265.91678,
2659.076,273.74138,
2656.166,270.20234,
2653.255,268.66156,
2650.345,269.01044,
2647.434,272.33574,
2644.524,281.35795,
2641.613,283.96402,
2638.702,292.04485,
2635.792,278.2181,
2632.881,280.36314,
2629.971,277.37751,
2627.060,279.91563,
2624.149,286.4125,
2621.239,281.24407,
2618.328,288.75865,
2615.418,295.93636,
2612.507,300.90212,
2609.597,303.8009,
2606.686,306.93874,
2603.775,292.76984,
2600.865,300.65958,
2597.954,293.53748,
2595.044,297.26771,
2592.133,295.69588,
2589.223,293.68368,
2586.312,303.76256,
2583.401,303.10765,
2580.491,306.5096,
2577.580,299.2632,
2574.670,308.63369,
2571.759,306.74487,
2568.848,301.42679,
2565.938,312.63107,
2563.027,298.34772,
2560.117,301.52103,
2557.206,322.1393,
2554.296,299.10812,
2551.385,314.20011,
2548.474,330.36115,
2545.564,311.88311,
2542.653,314.56543,
2539.743,319.78081,
2536.832,323.29112,
2533.922,325.28154,
2531.011,330.27474,
2528.100,336.65069,
2525.190,334.45943,
2522.279,324.57829,
2519.369,335.17429,
2516.458,339.24646,
2513.548,319.87749,
2510.637,329.21745,
2507.726,347.69607,
2504.816,338.00198,
2501.905,329.96036,
2498.995,336.47365,
2496.084,329.15595,
2493.173,344.11854,
2490.263,331.29517,
2487.352,332.70907,
2484.442,347.80673,
2481.531,353.4575,
2478.621,327.52007,
2475.710,381.92029,
2472.799,341.46971,
2469.889,349.21953,
2466.978,356.02314,
2464.068,345.80022,
2461.157,360.90253,
2458.247,347.99992,
2455.336,361.99171,
2452.425,351.96224,
2449.515,362.77806,
2446.604,352.60253,
2443.694,364.87832,
2440.783,368.39189,
2437.872,358.72404,
2434.962,371.77534,
2432.051,375.20065,
2429.141,374.40298,
2426.230,372.31519,
2423.320,377.19274,
2420.409,380.73721,
2417.498,381.24158,
2414.588,375.89262,
2411.677,383.10657,
2408.767,378.99705,
2405.856,377.78095,
2402.946,382.72632,
2400.035,401.43311,
2397.124,372.28207,
2394.214,394.9524,
2391.303,389.57046,
2388.393,386.50349,
2385.482,396.76532,
2382.571,395.93375,
2379.661,394.08712,
2376.750,408.61696,
2373.840,414.03437,
2370.929,428.09838,
2368.019,421.04621,
2365.108,394.50654,
2362.197,412.9323,
2359.287,407.09846,
2356.376,411.23239,
2353.466,405.43149,
2350.555,410.64501,
2347.645,411.25,
2344.734,413.61406,
2341.823,418.18367,
2338.913,410.09181,
2336.002,419.5419,
2333.092,416.62925,
2330.181,435.84842,
2327.270,411.95516,
2324.360,427.77124,
2321.449,426.32825,
2318.539,429.46098,
2315.628,440.66048,
2312.718,449.48348,
2309.807,446.56687,
2306.896,434.22652,
2303.986,420.89931,
2301.075,427.59038,
2298.165,435.25,
2295.254,428.4008,
2292.344,426.35371,
2289.433,444.00682,
2286.522,461.60272,
2283.612,442.44896,
2280.701,457.88673,
2277.791,468.80918,
2274.880,458.89199,
2271.969,463.18416,
2269.059,475.18734,
2266.148,469.84766,
2263.238,466.14961,
2260.327,492.04308,
2257.417,489.01278,
2254.506,479.34968,
2251.595,469.67543,
2248.685,490.6634,
2245.774,506.26083,
2242.864,486.82359,
2239.953,467.84307,
2237.043,477.53607,
2234.132,483.14871,
2231.221,475.14402,
2228.311,496.60564,
2225.400,490.67218,
2222.490,510.44881,
2219.579,527.77954,
2216.669,514.26431,
2213.758,516.46831,
2210.847,530.53462,
2207.937,547.63923,
2205.026,565.25117,
2202.116,549.24466,
2199.205,587.65047,
2196.294,590.05197,
2193.384,592.85549,
2190.473,596.25587,
2187.563,658.134,
2184.652,635.15367,
2181.742,653.25161,
2178.831,668.42114,
2175.920,668.06786,
2173.010,671.37415,
2170.099,661.18403,
2167.189,668.32176,
2164.278,678.10327,
2161.368,682.67792,
2158.457,704.72254,
2155.546,725.77982,
2152.636,722.7979,
2149.725,724.90771,
2146.815,733.01642,
2143.904,757.65148,
2140.993,762.64681,
2138.083,761.04942,
2135.172,764.62825,
2132.262,769.23592,
2129.351,757.96376,
2126.441,742.99753,
2123.530,710.9245,
2120.619,680.18587,
2117.709,663.82206,
2114.798,648.03455,
2111.888,637.73752,
2108.977,615.63409,
2106.067,600.97487,
2103.156,581.77346,
2100.245,567.26129,
2097.335,584.64791,
2094.424,581.2074,
2091.514,573.16657,
2088.603,548.02882,
2085.692,538.11248,
2082.782,557.16151,
2079.871,555.57089,
2076.961,574.76471,
2074.050,563.66818,
2071.140,548.54914,
2068.229,533.05989,
2065.318,540.57075,
2062.408,540.68192,
2059.497,543.44643,
2056.587,550.76149,
2053.676,542.00075,
2050.766,532.78886,
2047.855,539.16456,
2044.944,535.58494,
2042.034,529.35402,
2039.123,525.2904,
2036.213,532.78779,
2033.302,528.01101,
2030.391,531.84291,
2027.481,539.73779,
2024.570,564.69221,
2021.660,539.14214,
2018.749,544.37622,
2015.839,523.86417,
2012.928,538.61745,
2010.017,547.73099,
2007.107,538.34346,
2004.196,525.8928,
2001.286,516.68815,
1998.375,509.812,
1995.465,523.34196,
1992.554,519.48537,
1989.643,514.38825,
1986.733,516.67807,
1983.822,522.13405,
1980.912,510.38871,
1978.001,505.47077,
1975.090,484.25763,
1972.180,491.86966,
1969.269,499.85344,
1966.359,508.27717,
1963.448,504.7533,
1960.538,502.06151,
1957.627,499.57508,
1954.716,480.79581,
1951.806,476.19388,
1948.895,488.12864,
1945.985,453.19445,
1943.074,476.32386,
1940.164,470.16355,
1937.253,475.09787,
1934.342,480.31845,
1931.432,477.28154,
1928.521,468.6006,
1925.611,464.64614,
1922.700,445.04697,
1919.790,448.86262,
1916.879,443.73825,
1913.968,401.30164,
1911.058,467.43919,
1908.147,476.27913,
1905.237,425.63972,
1902.326,422.28409,
1899.415,395.60975,
1896.505,408.30441,
1893.594,428.7073,
1890.684,447.00148,
1887.773,448.45742,
1884.863,433.25,
1881.952,422.7876,
1879.041,425.05841,
1876.131,423.99248,
1873.220,411.9181,
1870.310,393.54151,
1867.399,429.64224,
1864.489,450.96486,
1861.578,419.4368,
1858.667,420.51647,
1855.757,426.61277,
1852.846,462.97309,
1849.936,444.22698,
1847.025,433.36923,
1844.114,422.62881,
1841.204,430.78147,
1838.293,444.25499,
1835.383,443.436,
1832.472,445.84304,
1829.562,440.50078,
1826.651,459.13088,
1823.740,462.69826,
1820.830,471.05324,
1817.919,466.92061,
1815.009,444.70039,
1812.098,469.97439,
1809.188,479.81588,
1806.277,483.1836,
1803.366,478.03373,
1800.456,463.93103,
1797.545,441.34219,
1794.635,447.02308,
1791.724,476.44421,
1788.813,470.26029,
1785.903,500.60854,
1782.992,498.20083,
1780.082,490.58435,
1777.171,457.91863,
1774.261,472.18514,
1771.350,481.084,
1768.439,480.93151,
1765.529,476.79349,
1762.618,479.71003,
1759.708,514.64149,
1756.797,533.32576,
1753.887,516.76166,
1750.976,491.45681,
1748.065,502.29762,
1745.155,508.50165,
1742.244,509.88496,
1739.334,501.29471,
1736.423,511.7939,
1733.512,516.06707,
1730.602,512.25793,
1727.691,516.62362,
1724.781,532.40838,
1721.870,557.9787,
1718.960,564.89446,
1716.049,550.98743,
1713.138,532.00508,
1710.228,524.02822,
1707.317,510.866,
1704.407,529.01474,
1701.496,559.50798,
1698.586,591.8175,
1695.675,570.85728,
1692.764,585.34427,
1689.854,573.81298,
1686.943,593.54176,
1684.033,597.17549,
1681.122,629.68925,
1678.211,660.95496,
1675.301,651.28083,
1672.390,630.32477,
1669.480,655.18582,
1666.569,648.32915,
1663.659,732.36433,
1660.748,739.94414,
1657.837,775.18439,
1654.927,773.44488,
1652.016,823.90607,
1649.106,850.39689,
1646.195,856.70555,
1643.285,875.27279,
1640.374,876.79355,
1637.463,903.3669,
1634.553,964.53078,
1631.642,983.95576,
1628.732,1048.8011,
1625.821,1141.286,
1622.911,1195.9401,
1620.000,1294.9901,
1617.089,1329.5734,
1614.179,1406.0503,
1611.268,1539.1938,
1608.358,1585.2366,
1605.447,1625.9075,
1602.536,1688.8227,
1599.626,1679.451,
1596.715,1717.2769,
1593.805,1687.2654,
1590.894,1646.2619,
1587.984,1666.3667,
1585.073,1617.4994,
1582.162,1599.9011,
1579.252,1547.5153,
1576.341,1504.2075,
1573.431,1475.1043,
1570.520,1481.48,
1567.610,1456.9358,
1564.699,1424.7741,
1561.788,1402.1656,
1558.878,1375.7671,
1555.967,1321.9855,
1553.057,1274.3709,
1550.146,1246.73,
1547.235,1227.6241,
1544.325,1189.1457,
1541.414,1163.0898,
1538.504,1175.1227,
1535.593,1193.1191,
1532.683,1214.3288,
1529.772,1206.9442,
1526.861,1204.8386,
1523.951,1242.8138,
1521.040,1244.434,
1518.130,1277.8225,
1515.219,1263.5305,
1512.309,1225.1914,
1509.398,1170.9171,
1506.487,1202.6281,
1503.577,1186.8378,
1500.666,1187.7877,
1497.756,1165.1225,
1494.845,1123.7681,
1491.934,1040.565,
1489.024,1136.8143,
1486.113,1066.0728,
1483.203,1071.7962,
1480.292,1014.7027,
1477.382,981.61905,
1474.471,986.99331,
1471.560,966.30302,
1468.650,950.41726,
1465.739,956.85735,
1462.829,922.26323,
1459.918,902.98487,
1457.008,906.20381,
1454.097,900.01489,
1451.186,895.00242,
1448.276,880.33608,
1445.365,857.28555,
1442.455,854.70336,
1439.544,849.66052,
1436.633,838.82299,
1433.723,844.6299,
1430.812,831.77235,
1427.902,813.81374,
1424.991,837.5078,
1422.081,770.35669,
1419.170,749.56097,
1416.259,807.19467,
1413.349,790.28512,
1410.438,796.34493,
1407.528,778.14407,
1404.617,754.26882,
1401.707,746.19012,
1398.796,740.52973,
1395.885,718.71443,
1392.975,689.5831,
1390.064,649.23046,
1387.154,551.07999,
1384.243,444.9014,
1381.332,340.27808,
1378.422,293.62118,
1375.511,475.35668,
1372.601,642.28952,
1369.690,711.96946,
1366.780,771.14822,
1363.869,792.24125,
1360.958,846.08665,
1358.048,869.28344,
1355.137,870.92979,
1352.227,891.17821,
1349.316,928.7473,
1346.406,956.88862,
1343.495,979.17689,
1340.584,1033.8577,
1337.674,1003.1829,
1334.763,1069.3206,
1331.853,1071.175,
1328.942,1169.091,
1326.032,1153.5189,
1323.121,1177.6295,
1320.210,1177.5953,
1317.300,1195.8593,
1314.389,1210.1944,
1311.479,1219.6091,
1308.568,1218.8048,
1305.657,1183.9451,
1302.747,1170.1026,
1299.836,1204.4836,
1296.926,1315.5574,
1294.015,1365.2008,
1291.105,1487.8842,
1288.194,1564.1557,
1285.283,1591.4221,
1282.373,1636.7499,
1279.462,1629.5055,
1276.552,1631.195,
1273.641,1657.3151,
1270.731,1637.7828,
1267.820,1614.197,
1264.909,1632.635,
1261.999,1656.4844,
1259.088,1635.5056,
1256.178,1629.1113,
1253.267,1601.3982,
1250.356,1565.4826,
1247.446,1554.0102,
1244.535,1549.3036,
1241.625,1547.6907,
1238.714,1529.0297,
1235.804,1479.3665,
1232.893,1495.0096,
1229.982,1449.5022,
1227.072,1397.8994,
1224.161,1383.3235,
1221.251,1331.3679,
1218.340,1281.2116,
1215.430,1249.4866,
1212.519,1235.0807,
1209.608,1237.2744,
1206.698,1261.2716,
1203.787,1292.2399,
1200.877,1258.2619,
1197.966,1323.0014,
1195.055,1373.1787,
1192.145,1401.5363,
1189.234,1458.207,
1186.324,1503.7972,
1183.413,1562.0876,
1180.503,1606.1323,
1177.592,1588.5733,
1174.681,1592.1952,
1171.771,1564.4973,
1168.860,1575.2143,
1165.950,1574.6374,
1163.039,1533.7426,
1160.129,1508.5819,
1157.218,1518.1528,
1154.307,1526.0874,
1151.397,1502.6049,
1148.486,1478.2471,
1145.576,1496.4064,
1142.665,1523.0438,
1139.754,1540.7089,
1136.844,1544.25,
1133.933,1524.3088,
1131.023,1481.4522,
1128.112,1450.6784,
1125.202,1454.2162,
1122.291,1452.2365,
1119.380,1417.3713,
1116.470,1429.7267,
1113.559,1415.785,
1110.649,1404.0467,
1107.738,1400.7858,
1104.828,1402.9144,
1101.917,1397.2615,
1099.006,1382.1056,
1096.096,1401.0025,
1093.185,1413.2946,
1090.275,1445.0023,
1087.364,1438.5275,
1084.453,1469.3726,
1081.543,1507.8909,
1078.632,1539.9938,
1075.722,1567.641,
1072.811,1500.7464,
1069.901,1507.7325,
1066.990,1489.6584,
1064.079,1493.4162,
1061.169,1471.2918,
1058.258,1450.25,
1055.348,1464.066,
1052.437,1491.5104,
1049.527,1463.8612,
1046.616,1505.565,
1043.705,1490.2101,
1040.795,1462.5408,
1037.884,1458.8475,
1034.974,1470.2294,
1032.063,1479.0653,
1029.153,1490.8346,
1026.242,1487.3747,
1023.331,1513.915,
1020.421,1526.221,
1017.510,1510.7609,
1014.600,1504.2857,
1011.689,1523.8021,
1008.778,1548.7687,
1005.868,1570.0068,
1002.957,1654.3215,
1000.047,1695.642,
997.136,1706.25,
994.226,1701.7885,
991.315,1683.4629,
988.404,1646.3056,
985.494,1605.3459,
982.583,1609.6287,
979.673,1600.0069,
976.762,1580.3982,
973.852,1565.7139,
970.941,1556.5079,
968.030,1544.6488,
965.120,1541.3538,
962.209,1566.0775,
959.299,1562.4593,
956.388,1574.929,
953.477,1580.2625,
950.567,1562.4073,
947.656,1543.2581,
944.746,1566.1961,
941.835,1582.6365,
938.925,1619.8106,
936.014,1623.0869,
933.103,1624.7862,
930.193,1648.6556,
927.282,1629.7917,
924.372,1621.3356,
921.461,1601.84,
918.551,1592.9263,
915.640,1567.8781,
912.729,1538.1285,
909.819,1539.1354,
906.908,1507.9657,
903.998,1489.5474,
901.087,1520.8943,
898.176,1526.457,
895.266,1514.6936,
892.355,1533.2024,
889.445,1581.0406,
886.534,1582.0849,
883.624,1618.5829,
880.713,1637.2707,
877.802,1639.987,
874.892,1633.8738,
871.981,1591.9344,
869.071,1578.5677,
866.160,1581.7697,
863.250,1584.7742,
860.339,1583.8181,
857.428,1577.8064,
854.518,1563.7555,
851.607,1581.229,
848.697,1578.7475,
845.786,1579.3638,
842.875,1581.5509,
839.965,1584.3812,
837.054,1603.3616,
834.144,1613.3067,
831.233,1583.9189,
828.323,1594.9569,
825.412,1612.9131,
822.501,1592.0585,
819.591,1585.4473,
816.680,1577.2372,
813.770,1549.5634,
810.859,1515.2979,
807.949,1491.9744,
805.038,1495.2323,
802.127,1528.1574,
799.217,1507.3975,
796.306,1487.331,
793.396,1478.6393,
790.485,1490.2002,
787.574,1532.9314,
784.664,1577.2175,
781.753,1579.2111,
778.843,1592.9128,
775.932,1590.8059,
773.022,1546.1088,
770.111,1538.7506,
767.200,1526.8303,
764.290,1503.0243,
761.379,1481.5543,
758.469,1468.3203,
755.558,1456.083,
752.648,1416.982,
749.737,1389.6663,
746.826,1337.7563,
743.916,1226.5867,
741.005,1018.415,
738.095,630.33791,
735.184,258.18278,
732.274,161.90743,
729.363,409.45488,
726.452,898.03662,
723.542,1229.0785,
720.631,1369.5762,
717.721,1449.6406,
714.810,1490.3863,
711.899,1508.448,
708.989,1522.1658,
706.078,1489.3966,
703.168,1515.2544,
700.257,1530.6488,
697.347,1514.7289,
694.436,1491.621,
691.525,1505.2857,
688.615,1517.6837,
685.704,1520.6598,
682.794,1512.5692,
679.883,1496.7093,
676.973,1484.6888,
674.062,1538.4012,
671.151,1547.4568,
668.241,1516.5823,
665.330,1512.1954,
662.420,1532.1637,
659.509,1537.5199,
656.598,1543.0102,
653.688,1560.292,
650.777,1597.79,
647.867,1613.7166,
644.956,1600.5329,
642.046,1576.5683,
639.135,1552.8482,
636.224,1536.5166,
633.314,1589.7105,
630.403,1581.9664,
627.493,1545.3578,
624.582,1505.1294,
621.672,1482.1616,
618.761,1512.4075,
615.850,1527.2089,
612.940,1531.9331,
610.029,1528.9098,
607.119,1502.8519,
604.208,1495.2799,
601.297,1482.2826,
598.387,1488.4479,
595.476,1527.3875,
592.566,1486.4599,
589.655,1443.616,
586.745,1432.4954,
583.834,1415.802,
580.923,1318.0984,
578.013,1292.9869,
575.102,1318.9445,
572.192,1381.1222,
569.281,1455.0146,
566.371,1487.1022,
563.460,1527.6398,
560.549,1567.6139,
557.639,1583.3132,
554.728,1556.3978,
551.818,1558.7388,
548.907,1573.8759,
545.996,1600.3567,
543.086,1631.4441,
540.175,1650.9102,
537.265,1605.8961,
534.354,1576.7111,
531.444,1559.6768,
528.533,1547.6228,
525.622,1580.9886,
522.712,1590.677,
519.801,1606.3796,
516.891,1629.7195,
513.980,1632.0424,
511.070,1625.9109,
508.159,1650.9489,
505.248,1671.4859,
502.338,1643.8314,
499.427,1697.8597,
496.517,1718.4722,
493.606,1711.1363,
490.695,1687.571,
487.785,1689.8803,
484.874,1659.2313,
481.964,1666.7514,
479.053,1687.6445,
476.143,1630.8153,
473.232,1677.6083,
470.321,1688.4916,
467.411,1681.5293,
464.500,1687.6682,
461.590,1664.696,
458.679,1646.6938,
455.769,1652.3731,
452.858,1689.704,
449.947,1732.4841,
447.037,1699.9903,
444.126,1690.9954,
441.216,1721.25,
438.305,1721.25,
435.395,1702.2365,
432.484,1694.3338,
429.573,1695.6525,
426.663,1688.8112,
423.752,1667.3274,
420.842,1668.7538,
417.931,1684.6975,
415.020,1696.8312,
412.110,1766.0216,
409.199,1809.3429,
406.289,1817.9189,
403.378,1786.1962,
400.468,1770.3203,
397.557,1759.5944,
394.646,1718.6964,
391.736,1618.2661,
388.825,1493.8179,
385.915,1423.1896,
383.004,1417.8067,
380.094,1484.279,
377.183,1582.8534,
374.272,1681.897,
371.362,1770.2111,
368.451,1837.2044,
365.541,1836.4539,
362.630,1863.0158,
359.719,1872.2274,
356.809,1844.4669,
353.898,1897.6316,
350.988,1923.0997,
348.077,1926.1514,
345.167,1909.6228,
342.256,1877.4989,
339.345,1901.1988,
336.435,1922.4774,
333.524,1902.9546,
330.614,1925.3093,
327.703,1952.2728,
324.793,1963.0007,
321.882,1939.2716,
318.971,1948.1929,
316.061,1982.5021,
313.150,2027.7214,
310.240,2067.7957,
307.329,2081.3988,
304.418,2075.3071,
301.508,2028.5761,
298.597,1901.9648,
295.687,1820.1398,
292.776,1817.5002,
289.866,1932.4006,
286.955,2269.9981,
284.044,2532.0348,
281.134,2741.4162,
278.223,2906.8361,
275.313,3047.5755,
272.402,3168.4518,
269.492,3266.569,
266.581,3343.6596,
263.670,3447.3201,
260.760,3463.668,
257.849,3488.7176,
254.939,3595.8644,
252.028,3585.6685,
249.117,3571.1998,
246.207,3547.5065,
243.296,3502.1202,
240.386,3445.0107,
237.475,3407.6453,
234.565,3378.5609,
231.654,3291.6453,
228.743,3253.1121,
225.833,3217.8219,
222.922,3169.5513,
220.012,3133.1236,
217.101,3077.5763,
214.191,2995.3133,
211.280,2872.3721,
208.369,2834.319,
205.459,2817.8545,
202.548,2809.3614,
199.638,2781.0611,
196.727,2734.3387,
193.816,2719.9032,
190.906,2756.0976,
187.995,2751.7535,
185.085,2790.9156,
182.174,2822.3423,
179.264,2771.0259,
176.353,2774.2209,
173.442,2766.1979,
170.532,2743.418,
167.621,2744.86,
164.711,2675.3495,
161.800,2582.7582,
158.890,2496.3909,
155.979,2304.639,
153.068,2123.806,
150.158,1936.8568,
147.247,1658.2913,
144.337,1372.079,
141.426,1084.0322,
138.516,796.55879,
135.605,569.5402,
132.694,387.82499,
129.784,249.38626,
126.873,162.85555,
123.963,116.22742,
121.052,84.334877,
118.141,59.348307,
115.231,49.302015,
112.320,41.437277,
109.410,34.613737,
106.499,26.067874,
103.589,27.051272,
100.678,27.62027,
97.767,23.354644,
94.857,19.785055,
91.946,17.846889,
89.036,16.346817,
86.125,10.673175,
83.215,10.311841,
80.304,10.052837,
77.393,6.5119869,
74.483,11.49108,
71.572,13.525296,
68.662,12.52707,
65.751,15.352874,
62.840,14.323192,
59.930,11.875428,
57.019,10.465264,
54.109,9.0556783,
51.198,7.6467814,
48.288,6.2783122,
45.377,9.7952025,
42.466,10.013342,
39.556,8.7104743,
36.645,11.519235,
33.735,12.25,
30.824,11.808226,
27.914,10.405876,
25.003,8.3820876,
22.092,10.156141,
19.182,16.455946,
16.271,22.751357,
13.361,88.890155,
10.450,225.40761,
7.539,511.0186,
4.629,815.01461,
1.718,957.33838,
-1.192,719.61209,
-4.103,405.46835,
-7.013,154.45301,
-9.924,-0.75,
