,PL56DB~1,
Raman shift [1/cm],Intensity,
3014.167,0.75,
3011.256,-1.3500215,
3008.346,184.95076,
3005.435,237.05742,
3002.525,258.73266,
2999.614,244.12664,
2996.704,264.01598,
2993.793,261.9977,
2990.882,274.48277,
2987.972,280.7046,
2985.061,288.15396,
2982.151,302.58529,
2979.240,325.54847,
2976.329,342.76638,
2973.419,349.6889,
2970.508,352.09989,
2967.598,355.08454,
2964.687,360.31726,
2961.777,392.27171,
2958.866,380.40677,
2955.955,401.33849,
2953.045,416.09899,
2950.134,424.5168,
2947.224,428.83541,
2944.313,435.34544,
2941.403,449.30976,
2938.492,449.75,
2935.581,467.35733,
2932.671,449.15346,
2929.760,474.23463,
2926.850,490.22744,
2923.939,485.06774,
2921.028,492.75,
2918.118,501.83061,
2915.207,490.8574,
2912.297,510.61883,
2909.386,514.15146,
2906.476,502.65732,
2903.565,506.86334,
2900.654,502.80864,
2897.744,501.61171,
2894.833,499.40963,
2891.923,497.15379,
2889.012,514.84248,
2886.102,493.20675,
2883.191,491.75661,
2880.280,473.2811,
2877.370,434.79665,
2874.459,431.27211,
2871.549,477.73721,
2868.638,505.52319,
2865.727,508.09231,
2862.817,505.83556,
2859.906,535.92664,
2856.996,521.75,
2854.085,514.70797,
2851.175,553.24704,
2848.264,521.69584,
2845.353,504.09507,
2842.443,524.14234,
2839.532,509.7949,
2836.622,511.50846,
2833.711,511.01687,
2830.801,504.05221,
2827.890,513.31118,
2824.979,513.16996,
2822.069,526.79549,
2819.158,535.31065,
2816.248,539.01447,
2813.337,535.18293,
2810.427,523.10262,
2807.516,539.15984,
2804.605,517.20193,
2801.695,527.31579,
2798.784,526.82392,
2795.874,531.61016,
2792.963,530.67862,
2790.052,510.7545,
2787.142,528.77623,
2784.231,515.49224,
2781.321,516.81862,
2778.410,535.65482,
2775.500,519.83759,
2772.589,525.28975,
2769.678,541.50087,
2766.768,543.43156,
2763.857,547.11609,
2760.947,536.30359,
2758.036,549.83283,
2755.126,550.03205,
2752.215,554.96358,
2749.304,557.72841,
2746.394,570.85897,
2743.483,549.84995,
2740.573,569.50889,
2737.662,557.86686,
2734.751,558.95878,
2731.841,575.48078,
2728.930,567.178,
2726.020,560.0816,
2723.109,575.59508,
2720.199,581.10314,
2717.288,586.36314,
2714.377,569.23786,
2711.467,588.5533,
2708.556,585.14368,
2705.646,589.51058,
2702.735,612.57216,
2699.825,596.85907,
2696.914,603.8932,
2694.003,609.64918,
2691.093,601.46362,
2688.182,599.78778,
2685.272,597.46693,
2682.361,604.56769,
2679.450,599.91874,
2676.540,596.68903,
2673.629,601.38225,
2670.719,609.68438,
2667.808,615.26364,
2664.898,608.08755,
2661.987,611.34993,
2659.076,614.85991,
2656.166,623.62017,
2653.255,607.0119,
2650.345,636.59937,
2647.434,630.69313,
2644.524,644.61093,
2641.613,643.20694,
2638.702,644.67109,
2635.792,636.18769,
2632.881,633.59526,
2629.971,641.47489,
2627.060,667.75187,
2624.149,666.07186,
2621.239,665.21739,
2618.328,658.4109,
2615.418,656.0591,
2612.507,678.54047,
2609.597,661.22904,
2606.686,684.8283,
2603.775,673.71032,
2600.865,677.80803,
2597.954,685.51043,
2595.044,681.41076,
2592.133,688.86471,
2589.223,709.69002,
2586.312,702.77511,
2583.401,693.8339,
2580.491,704.33646,
2577.580,674.7698,
2574.670,693.94517,
2571.759,704.4923,
2568.848,710.92134,
2565.938,696.13093,
2563.027,704.14088,
2560.117,703.4883,
2557.206,725.87177,
2554.296,721.4365,
2551.385,729.13004,
2548.474,729.12026,
2545.564,716.09821,
2542.653,734.3708,
2539.743,748.6391,
2536.832,733.5855,
2533.922,757.545,
2531.011,747.49977,
2528.100,746.22036,
2525.190,750.60861,
2522.279,759.38996,
2519.369,740.50419,
2516.458,746.29533,
2513.548,757.40423,
2510.637,765.3359,
2507.726,744.37454,
2504.816,748.00028,
2501.905,745.69207,
2498.995,763.22775,
2496.084,777.49568,
2493.173,785.01291,
2490.263,773.16581,
2487.352,773.75,
2484.442,776.02837,
2481.531,793.33499,
2478.621,779.94897,
2475.710,816.55831,
2472.799,794.46297,
2469.889,796.93281,
2466.978,800.13135,
2464.068,802.79232,
2461.157,818.78265,
2458.247,817.20615,
2455.336,842.81457,
2452.425,820.13677,
2449.515,841.89137,
2446.604,830.46202,
2443.694,819.58717,
2440.783,832.51464,
2437.872,852.16656,
2434.962,837.27534,
2432.051,841.18832,
2429.141,860.83213,
2426.230,852.79306,
2423.320,859.76467,
2420.409,848.66657,
2417.498,878.28935,
2414.588,870.67785,
2411.677,864.71414,
2408.767,867.54429,
2405.856,886.25472,
2402.946,883.11283,
2400.035,892.13499,
2397.124,899.53609,
2394.214,910.29159,
2391.303,911.17548,
2388.393,893.29881,
2385.482,888.79406,
2382.571,884.06625,
2379.661,898.9359,
2376.750,908.6983,
2373.840,908.88749,
2370.929,898.86913,
2368.019,926.0628,
2365.108,939.30759,
2362.197,947.13905,
2359.287,939.96838,
2356.376,976.68132,
2353.466,964.35617,
2350.555,960.37991,
2347.645,946.68511,
2344.734,965.75467,
2341.823,935.38016,
2338.913,959.19033,
2336.002,974.18785,
2333.092,969.81888,
2330.181,954.13369,
2327.270,965.7049,
2324.360,975.97638,
2321.449,991.57992,
2318.539,988.92127,
2315.628,999.53977,
2312.718,988.38435,
2309.807,1011.1105,
2306.896,990.5137,
2303.986,994.44479,
2301.075,1007.5585,
2298.165,1002.3843,
2295.254,1021.2545,
2292.344,1020.7002,
2289.433,1012.7732,
2286.522,1022.3437,
2283.612,1027.8202,
2280.701,1056.445,
2277.791,1038.6279,
2274.880,1023.7338,
2271.969,1063.4949,
2269.059,1064.0116,
2266.148,1079.9637,
2263.238,1065.7577,
2260.327,1054.1985,
2257.417,1080.3922,
2254.506,1104.9865,
2251.595,1106.3246,
2248.685,1089.7558,
2245.774,1102.7717,
2242.864,1109.5829,
2239.953,1096.3913,
2237.043,1103.6846,
2234.132,1121.6304,
2231.221,1130.6698,
2228.311,1127.4897,
2225.400,1113.8477,
2222.490,1155.4634,
2219.579,1171.0662,
2216.669,1170.2476,
2213.758,1185.7526,
2210.847,1219.5434,
2207.937,1219.035,
2205.026,1236.0821,
2202.116,1271.5366,
2199.205,1270.4502,
2196.294,1274.18,
2193.384,1305.6175,
2190.473,1333.7676,
2187.563,1384.1125,
2184.652,1463.1177,
2181.742,1504.593,
2178.831,1594.435,
2175.920,1717.2036,
2173.010,1814.8543,
2170.099,1930.2059,
2167.189,2108.4676,
2164.278,2238.4174,
2161.368,2443.3182,
2158.457,2558.4671,
2155.546,2706.0338,
2152.636,2836.6434,
2149.725,2903.1996,
2146.815,2982.2807,
2143.904,3070.3522,
2140.993,3064.3427,
2138.083,3036.2332,
2135.172,3022.5061,
2132.262,2969.2183,
2129.351,2893.8255,
2126.441,2769.4973,
2123.530,2582.6725,
2120.619,2472.8882,
2117.709,2332.8136,
2114.798,2151.6379,
2111.888,2017.4024,
2108.977,1885.2798,
2106.067,1759.362,
2103.156,1676.5607,
2100.245,1596.7186,
2097.335,1539.284,
2094.424,1472.7825,
2091.514,1437.2527,
2088.603,1428.9344,
2085.692,1403.5196,
2082.782,1391.5091,
2079.871,1355.2483,
2076.961,1369.2647,
2074.050,1368.247,
2071.140,1335.5319,
2068.229,1328.819,
2065.318,1355.3672,
2062.408,1325.6963,
2059.497,1301.1607,
2056.587,1299.785,
2053.676,1264.2687,
2050.766,1296.4398,
2047.855,1269.1202,
2044.944,1280.6859,
2042.034,1272.565,
2039.123,1260.9285,
2036.213,1270.9568,
2033.302,1283.1851,
2030.391,1267.3941,
2027.481,1276.6767,
2024.570,1251.0936,
2021.660,1274.917,
2018.749,1317.0024,
2015.839,1269.9252,
2012.928,1257.0369,
2010.017,1277.6718,
2007.107,1274.5388,
2004.196,1277.1072,
2001.286,1275.4355,
1998.375,1247.3533,
1995.465,1257.0554,
1992.554,1259.9971,
1989.643,1254.9228,
1986.733,1211.8939,
1983.822,1199.7123,
1980.912,1226.6319,
1978.001,1252.0468,
1975.090,1239.3592,
1972.180,1222.7168,
1969.269,1208.1839,
1966.359,1227.2097,
1963.448,1228.2533,
1960.538,1237.7342,
1957.627,1253.233,
1954.716,1234.3533,
1951.806,1217.601,
1948.895,1213.6022,
1945.985,1205.5458,
1943.074,1199.9825,
1940.164,1180.9902,
1937.253,1163.1545,
1934.342,1175.4168,
1931.432,1201.1002,
1928.521,1163.5393,
1925.611,1117.6853,
1922.700,1144.3646,
1919.790,1163.2239,
1916.879,1174.9828,
1913.968,1163.7648,
1911.058,1173.2695,
1908.147,1186.7791,
1905.237,1148.0516,
1902.326,1193.3115,
1899.415,1168.1098,
1896.505,1171.4067,
1893.594,1171.7561,
1890.684,1158.7173,
1887.773,1172.7669,
1884.863,1155.6862,
1881.952,1147.4224,
1879.041,1156.8019,
1876.131,1170.1513,
1873.220,1158.803,
1870.310,1142.8263,
1867.399,1194.8863,
1864.489,1150.9711,
1861.578,1133.618,
1858.667,1156.5913,
1855.757,1188.1378,
1852.846,1202.0013,
1849.936,1195.4948,
1847.025,1190.3923,
1844.114,1221.0041,
1841.204,1234.75,
1838.293,1229.7583,
1835.383,1229.122,
1832.472,1228.5987,
1829.562,1227.6664,
1826.651,1222.596,
1823.740,1240.8612,
1820.830,1210.167,
1817.919,1234.5826,
1815.009,1216.2067,
1812.098,1226.1122,
1809.188,1202.4245,
1806.277,1233.9975,
1803.366,1238.299,
1800.456,1270.6401,
1797.545,1271.2392,
1794.635,1294.202,
1791.724,1286.7208,
1788.813,1296.1428,
1785.903,1274.688,
1782.992,1281.7739,
1780.082,1281.6033,
1777.171,1267.0894,
1774.261,1299.9702,
1771.350,1316.9585,
1768.439,1317.0268,
1765.529,1327.388,
1762.618,1342.5813,
1759.708,1326.8041,
1756.797,1324.5,
1753.887,1353.2894,
1750.976,1346.0602,
1748.065,1350.3399,
1745.155,1346.6985,
1742.244,1345.3714,
1739.334,1343.9571,
1736.423,1362.2397,
1733.512,1360.563,
1730.602,1382.1826,
1727.691,1376.9321,
1724.781,1408.9325,
1721.870,1437.2596,
1718.960,1449.1501,
1716.049,1428.0977,
1713.138,1446.8349,
1710.228,1494.2648,
1707.317,1472.4437,
1704.407,1472.3436,
1701.496,1534.7352,
1698.586,1556.4577,
1695.675,1567.1071,
1692.764,1523.2541,
1689.854,1532.2303,
1686.943,1587.8276,
1684.033,1584.8742,
1681.122,1592.6141,
1678.211,1614.5406,
1675.301,1715.4386,
1672.390,1729.8038,
1669.480,1747.8543,
1666.569,1761.6514,
1663.659,1832.5176,
1660.748,1879.7719,
1657.837,1933.4121,
1654.927,2006.5317,
1652.016,1957.9612,
1649.106,2046.8969,
1646.195,2054.788,
1643.285,2137.8411,
1640.374,2142.9416,
1637.463,2200.7496,
1634.553,2310.5332,
1631.642,2364.1615,
1628.732,2493.3366,
1625.821,2591.8292,
1622.911,2712.0681,
1620.000,2804.5783,
1617.089,2992.949,
1614.179,3188.1944,
1611.268,3305.4374,
1608.358,3505.1513,
1605.447,3617.5223,
1602.536,3658.2298,
1599.626,3669.0294,
1596.715,3667.0272,
1593.805,3654.2294,
1590.894,3630.7332,
1587.984,3576.6506,
1585.073,3567.0484,
1582.162,3585.9524,
1579.252,3548.0166,
1576.341,3473.0628,
1573.431,3510.0058,
1570.520,3464.3642,
1567.610,3436.0636,
1564.699,3396.4985,
1561.788,3362.3277,
1558.878,3289.5703,
1555.967,3216.8068,
1553.057,3214.5257,
1550.146,3164.9101,
1547.235,3083.6562,
1544.325,3021.5147,
1541.414,2979.4682,
1538.504,2951.9049,
1535.593,2891.0586,
1532.683,2822.7524,
1529.772,2771.2692,
1526.861,2732.5663,
1523.951,2721.8412,
1521.040,2676.5383,
1518.130,2621.5475,
1515.219,2581.2703,
1512.309,2566.777,
1509.398,2562.9058,
1506.487,2567.8059,
1503.577,2509.1586,
1500.666,2530.3849,
1497.756,2495.5212,
1494.845,2489.068,
1491.934,2400.5862,
1489.024,2350.5366,
1486.113,2341.3323,
1483.203,2345.1908,
1480.292,2317.7491,
1477.382,2310.3253,
1474.471,2279.0548,
1471.560,2271.927,
1468.650,2244.0525,
1465.739,2220.5022,
1462.829,2176.5537,
1459.918,2187.2144,
1457.008,2243.1503,
1454.097,2201.2749,
1451.186,2145.6223,
1448.276,2185.1294,
1445.365,2205.7871,
1442.455,2209.6307,
1439.544,2166.898,
1436.633,2150.0618,
1433.723,2192.0204,
1430.812,2143.5679,
1427.902,2127.4196,
1424.991,2071.5016,
1422.081,2023.8761,
1419.170,2003.3329,
1416.259,2024.2418,
1413.349,1995.7642,
1410.438,1981.9509,
1407.528,2000.0623,
1404.617,2004.2916,
1401.707,2036.8458,
1398.796,2048.0368,
1395.885,2076.6638,
1392.975,2130.8533,
1390.064,2086.5695,
1387.154,2066.8431,
1384.243,2042.4726,
1381.332,2018.3538,
1378.422,2146.4551,
1375.511,2198.9148,
1372.601,2302.9659,
1369.690,2339.1811,
1366.780,2398.4004,
1363.869,2425.1001,
1360.958,2437.0124,
1358.048,2486.435,
1355.137,2516.1729,
1352.227,2568.7373,
1349.316,2654.1356,
1346.406,2715.8495,
1343.495,2774.7535,
1340.584,2788.5345,
1337.674,2874.4333,
1334.763,2948.6554,
1331.853,2998.7259,
1328.942,3052.3389,
1326.032,3085.6655,
1323.121,3165.1055,
1320.210,3190.75,
1317.300,3262.7583,
1314.389,3359.0009,
1311.479,3407.9927,
1308.568,3418.3419,
1305.657,3459.3078,
1302.747,3548.3566,
1299.836,3571.8804,
1296.926,3729.2875,
1294.015,3869.944,
1291.105,3903.0468,
1288.194,4014.5803,
1285.283,4057.5021,
1282.373,4172.5933,
1279.462,4252.2203,
1276.552,4303.8447,
1273.641,4359.8974,
1270.731,4377.9858,
1267.820,4373.75,
1264.909,4370.1233,
1261.999,4343.3838,
1259.088,4333.3505,
1256.178,4278.7932,
1253.267,4169.2474,
1250.356,4052.0615,
1247.446,3910.4197,
1244.535,3765.9154,
1241.625,3653.6094,
1238.714,3573.8411,
1235.804,3492.755,
1232.893,3396.1306,
1229.982,3369.8914,
1227.072,3344.5427,
1224.161,3240.2085,
1221.251,3176.0794,
1218.340,3112.8119,
1215.430,3070.2339,
1212.519,3050.4114,
1209.608,3045.585,
1206.698,3047.9414,
1203.787,3051.745,
1200.877,3117.0843,
1197.966,3122.4793,
1195.055,3175.6514,
1192.145,3265.1437,
1189.234,3346.8973,
1186.324,3381.1141,
1183.413,3431.1206,
1180.503,3471.2009,
1177.592,3421.9719,
1174.681,3373.0343,
1171.771,3326.8324,
1168.860,3330.4048,
1165.950,3242.0582,
1163.039,3187.2267,
1160.129,3152.6949,
1157.218,3116.1554,
1154.307,3100.2836,
1151.397,3081.9045,
1148.486,2994.7443,
1145.576,3025.5891,
1142.665,2952.7802,
1139.754,2988.2451,
1136.844,2936.8237,
1133.933,2887.2898,
1131.023,2880.664,
1128.112,2887.1078,
1125.202,2884.5471,
1122.291,2900.8699,
1119.380,2887.2303,
1116.470,2834.2786,
1113.559,2882.6507,
1110.649,2895.4758,
1107.738,2878.2113,
1104.828,2882.2262,
1101.917,2888.406,
1099.006,2844.75,
1096.096,2848.029,
1093.185,2901.5871,
1090.275,2863.6679,
1087.364,2880.5088,
1084.453,2875.3136,
1081.543,2859.5589,
1078.632,2861.1375,
1075.722,2872.8187,
1072.811,2881.1915,
1069.901,2873.3322,
1066.990,2884.875,
1064.079,2900.6798,
1061.169,2922.7667,
1058.258,2957.3478,
1055.348,3012.9123,
1052.437,3076.242,
1049.527,3079.2871,
1046.616,3093.1883,
1043.705,3080.8762,
1040.795,3092.7126,
1037.884,3119.4508,
1034.974,3130.7912,
1032.063,3125.996,
1029.153,3146.9045,
1026.242,3181.5027,
1023.331,3176.917,
1020.421,3198.0572,
1017.510,3227.9199,
1014.600,3239.9436,
1011.689,3242.732,
1008.778,3279.0238,
1005.868,3375.4412,
1002.957,3563.8587,
1000.047,3691.03,
997.136,3780.022,
994.226,3813.1808,
991.315,3794.4406,
988.404,3756.8861,
985.494,3730.8677,
982.583,3691.4661,
979.673,3653.5575,
976.762,3635.879,
973.852,3638.8222,
970.941,3645.0826,
968.030,3637.5477,
965.120,3630.6247,
962.209,3600.7857,
959.299,3661.6172,
956.388,3646.7527,
953.477,3639.6447,
950.567,3669.6916,
947.656,3653.9836,
944.746,3686.2667,
941.835,3672.3635,
938.925,3654.2729,
936.014,3670.5238,
933.103,3687.3943,
930.193,3662.9656,
927.282,3610.6501,
924.372,3590.3556,
921.461,3517.0556,
918.551,3498.1403,
915.640,3448.3572,
912.729,3364.8208,
909.819,3344.8671,
906.908,3398.7823,
903.998,3375.503,
901.087,3413.3054,
898.176,3460.701,
895.266,3490.7806,
892.355,3509.2471,
889.445,3538.6214,
886.534,3604.7049,
883.624,3630.5338,
880.713,3660.2264,
877.802,3666.4226,
874.892,3627.2931,
871.981,3589.1779,
869.071,3564.9509,
866.160,3569.0295,
863.250,3589.0003,
860.339,3591.2209,
857.428,3571.8109,
854.518,3583.8112,
851.607,3551.3605,
848.697,3522.3642,
845.786,3505.0034,
842.875,3498.75,
839.965,3508.4493,
837.054,3552.4616,
834.144,3526.7703,
831.233,3529.7494,
828.323,3513.4726,
825.412,3489.8523,
822.501,3477.3456,
819.591,3441.8104,
816.680,3426.3269,
813.770,3387.6659,
810.859,3335.1632,
807.949,3297.0256,
805.038,3301.9314,
802.127,3336.5028,
799.217,3289.8088,
796.306,3302.2637,
793.396,3323.1927,
790.485,3307.9046,
787.574,3258.9716,
784.664,3238.4688,
781.753,3227.3692,
778.843,3232.5715,
775.932,3244.8364,
773.022,3255.5539,
770.111,3280.0813,
767.200,3303.8281,
764.290,3280.7003,
761.379,3269.7783,
758.469,3285.4944,
755.558,3279.972,
752.648,3253.9047,
749.737,3250.0556,
746.826,3226.0403,
743.916,3199.1461,
741.005,3199.1735,
738.095,3167.5103,
735.184,3061.4965,
732.274,3054.4074,
729.363,3094.8369,
726.452,3118.9891,
723.542,3142.4616,
720.631,3188.8578,
717.721,3231.3923,
714.810,3247.0398,
711.899,3229.0965,
708.989,3191.978,
706.078,3190.1474,
703.168,3201.2872,
700.257,3190.1843,
697.347,3167.2279,
694.436,3179.1172,
691.525,3155.8068,
688.615,3139.4296,
685.704,3137.9303,
682.794,3145.9202,
679.883,3148.921,
676.973,3130.4895,
674.062,3136.3212,
671.151,3124.2168,
668.241,3112.4712,
665.330,3146.2206,
662.420,3135.0383,
659.509,3147.9883,
656.598,3134.247,
653.688,3125.2238,
650.777,3192.6969,
647.867,3161.6401,
644.956,3141.1287,
642.046,3138.1398,
639.135,3150.571,
636.224,3168.6863,
633.314,3155.9833,
630.403,3191.7699,
627.493,3206.8437,
624.582,3200.11,
621.672,3255.5496,
618.761,3234.9518,
615.850,3244.2796,
612.940,3289.8543,
610.029,3352.5391,
607.119,3357.2769,
604.208,3318.6993,
601.297,3318.204,
598.387,3335.7564,
595.476,3341.3442,
592.566,3347.6408,
589.655,3352.6373,
586.745,3322.6363,
583.834,3277.6758,
580.923,3266.7737,
578.013,3270.6974,
575.102,3279.7802,
572.192,3297.5404,
569.281,3317.0628,
566.371,3307.6713,
563.460,3354.7218,
560.549,3384.9829,
557.639,3402.4641,
554.728,3419.666,
551.818,3402.4991,
548.907,3437.7524,
545.996,3488.0213,
543.086,3523.8915,
540.175,3505.9826,
537.265,3517.0627,
534.354,3548.3396,
531.444,3593.9774,
528.533,3644.357,
525.622,3652.8924,
522.712,3696.0092,
519.801,3746.4266,
516.891,3793.5143,
513.980,3836.8749,
511.070,3915.4108,
508.159,3983.5226,
505.248,4043.0279,
502.338,4102.5574,
499.427,4164.3039,
496.517,4227.6994,
493.606,4285.9585,
490.695,4324.6147,
487.785,4287.6648,
484.874,4336.0328,
481.964,4354.5375,
479.053,4332.1311,
476.143,4304.4845,
473.232,4286.2037,
470.321,4251.5286,
467.411,4226.8152,
464.500,4241.2264,
461.590,4220.5514,
458.679,4218.0518,
455.769,4233.6676,
452.858,4263.1021,
449.947,4276.0889,
447.037,4312.1218,
444.126,4316.7439,
441.216,4289.2052,
438.305,4297.5864,
435.395,4294.1605,
432.484,4268.8286,
429.573,4248.4651,
426.663,4298.6344,
423.752,4297.8681,
420.842,4232.2706,
417.931,4157.1809,
415.020,4158.6977,
412.110,4278.0029,
409.199,4387.2756,
406.289,4443.943,
403.378,4407.686,
400.468,4388.7861,
397.557,4393.033,
394.646,4404.0967,
391.736,4407.9914,
388.825,4415.5338,
385.915,4405.5095,
383.004,4412.4537,
380.094,4455.2912,
377.183,4426.6971,
374.272,4488.7687,
371.362,4548.9273,
368.451,4553.4369,
365.541,4581.2067,
362.630,4609.5071,
359.719,4642.1403,
356.809,4681.6951,
353.898,4730.367,
350.988,4723.1355,
348.077,4702.5555,
345.167,4697.5881,
342.256,4753.6182,
339.345,4812.796,
336.435,4852.4156,
333.524,4856.9614,
330.614,4863.6678,
327.703,4934.5463,
324.793,4967.2683,
321.882,4874.0096,
318.971,4981.0654,
316.061,5011.8902,
313.150,5011.9857,
310.240,5032.0228,
307.329,5108.5015,
304.418,5152.4286,
301.508,5151.6176,
298.597,5087.2014,
295.687,5156.2464,
292.776,5223.4168,
289.866,5314.4572,
286.955,5536.0748,
284.044,5620.8799,
281.134,5710.9961,
278.223,5832.1206,
275.313,5971.3862,
272.402,6048.3841,
269.492,6153.4082,
266.581,6312.0561,
263.670,6400.2777,
260.760,6500.9732,
257.849,6612.3501,
254.939,6734.1746,
252.028,6757.4653,
249.117,6827.8785,
246.207,6904.4018,
243.296,6914.6503,
240.386,6909.2201,
237.475,6896.9137,
234.565,6879.7591,
231.654,6860.7691,
228.743,6796.9117,
225.833,6733.5415,
222.922,6690.8711,
220.012,6714.9135,
217.101,6681.0392,
214.191,6640.5913,
211.280,6650.0483,
208.369,6602.3074,
205.459,6609.093,
202.548,6647.9812,
199.638,6608.7961,
196.727,6641.0851,
193.816,6667.4388,
190.906,6660.9182,
187.995,6694.2233,
185.085,6722.3,
182.174,6737.2241,
179.264,6724.2143,
176.353,6729.7986,
173.442,6747.8898,
170.532,6766.1974,
167.621,6709.9614,
164.711,6641.6677,
161.800,6498.6391,
158.890,6220.1045,
155.979,5809.6171,
153.068,5355.9299,
150.158,4840.565,
147.247,4163.536,
144.337,3422.21,
141.426,2686.0389,
138.516,1987.7868,
135.605,1436.7582,
132.694,995.75662,
129.784,659.21782,
126.873,446.10913,
123.963,302.02459,
121.052,201.95371,
118.141,141.98594,
115.231,114.74833,
112.320,92.735466,
109.410,75.431961,
106.499,63.325322,
103.589,59.629491,
100.678,54.675674,
97.767,44.011611,
94.857,34.741142,
91.946,33.571776,
89.036,37.524204,
86.125,36.105794,
83.215,32.033558,
80.304,28.75,
77.393,28.75,
74.483,31.37054,
71.572,29.126479,
68.662,22.47293,
65.751,19.647126,
62.840,20.676808,
59.930,21.25171,
57.019,15.611055,
54.109,12.361357,
51.198,8.6387351,
48.288,3.7952995,
45.377,9.4223241,
42.466,10.101123,
39.556,7.8651186,
36.645,8.5673088,
33.735,9.2692485,
30.824,10.191774,
27.914,11.594124,
25.003,13.617912,
22.092,12.812573,
19.182,9.2991887,
16.271,26.086952,
13.361,66.888096,
10.450,107.74051,
7.539,72.824744,
4.629,-124.70862,
1.718,-383.35575,
-1.192,-651.05925,
-4.103,-511.45653,
-7.013,-277.94507,
-9.924,-0.25,
