,PLEC39~1,
Wavenumbers [1/cm],Intensity,
3014.167,5,
3011.256,-0.79995705,
3008.346,246.03208,
3005.435,281.11661,
3002.525,292.54754,
2999.614,302.28701,
2996.704,302.04433,
2993.793,323.87615,
2990.882,324.69465,
2987.972,349.90919,
2985.061,354.16752,
2982.151,370.55125,
2979.240,387.36692,
2976.329,385.24863,
2973.419,412.26162,
2970.508,408.38334,
2967.598,417.4743,
2964.687,407.95516,
2961.777,437.08576,
2958.866,446.34769,
2955.955,463.42473,
2953.045,466.10068,
2950.134,472.81925,
2947.224,474.76866,
2944.313,497.40456,
2941.403,515.5958,
2938.492,513.30895,
2935.581,520.47853,
2932.671,541.1974,
2929.760,529.60385,
2926.850,541.42519,
2923.939,553.56075,
2921.028,557.93536,
2918.118,558.52141,
2915.207,571.76584,
2912.297,553.08463,
2909.386,561.56935,
2906.476,569.15447,
2903.565,562.30592,
2900.654,577.11728,
2897.744,570.69827,
2894.833,547.82473,
2891.923,569.27251,
2889.012,509.6185,
2886.102,494.75679,
2883.191,461.00944,
2880.280,312.64587,
2877.370,79.180555,
2874.459,-29.521319,
2871.549,227.01491,
2868.638,477.28648,
2865.727,500.90759,
2862.817,558.30079,
2859.906,556.31624,
2856.996,563.94113,
2854.085,574.35924,
2851.175,602.23499,
2848.264,602.69633,
2845.353,622.05105,
2842.443,593.77424,
2839.532,607.46274,
2836.622,610.75846,
2833.711,618.15542,
2830.801,610.20882,
2827.890,645.68353,
2824.979,638.83991,
2822.069,630.12509,
2819.158,634.15902,
2816.248,637.9421,
2813.337,636.34024,
2810.427,639,
2807.516,661.7264,
2804.605,655.81731,
2801.695,649.94735,
2798.784,658.74331,
2795.874,645.87073,
2792.963,636.85723,
2790.052,622.00365,
2787.142,636.97377,
2784.231,631.09784,
2781.321,642.6857,
2778.410,638.41497,
2775.500,654.31724,
2772.589,643.53975,
2769.678,663,
2766.768,653.26018,
2763.857,665.78998,
2760.947,672.01261,
2758.036,674.84714,
2755.126,647.28205,
2752.215,668.70014,
2749.304,665.91548,
2746.394,668.81044,
2743.483,680.25001,
2740.573,668.24111,
2737.662,669.55326,
2734.751,673.58244,
2731.841,690.48718,
2728.930,688.22457,
2726.020,695.11748,
2723.109,672.51592,
2720.199,683,
2717.288,696.5949,
2714.377,703.6459,
2711.467,704.63956,
2708.556,716.89305,
2705.646,731.92956,
2702.735,713.00516,
2699.825,725.82549,
2696.914,716.18998,
2694.003,705.36747,
2691.093,725.62456,
2688.182,733.8563,
2685.272,711.27454,
2682.361,727.57642,
2679.450,728.58437,
2676.540,759.28866,
2673.629,722.67714,
2670.719,735.98522,
2667.808,742.19454,
2664.898,722.60991,
2661.987,752.26671,
2659.076,753.12716,
2656.166,740.67954,
2653.255,760.2619,
2650.345,773.38476,
2647.434,778.62904,
2644.524,792.52516,
2641.613,789.0572,
2638.702,796.88953,
2635.792,777.37686,
2632.881,776.85691,
2629.971,768.67774,
2627.060,803.99938,
2624.149,802.10938,
2621.239,778.21887,
2618.328,791.12716,
2615.418,792.00909,
2612.507,798.54937,
2609.597,792.28543,
2606.686,806.75302,
2603.775,810.15873,
2600.865,825.11269,
2597.954,826.90417,
2595.044,830.61648,
2592.133,855.45237,
2589.223,834.57787,
2586.312,843.63318,
2583.401,844.63141,
2580.491,848.91828,
2577.580,847.96204,
2574.670,828.87432,
2571.759,847.2577,
2568.848,844.9447,
2565.938,870.52384,
2563.027,870.02497,
2560.117,872.55139,
2557.206,862.76753,
2554.296,865.91075,
2551.385,849.68599,
2548.474,866.29666,
2545.564,875.93669,
2542.653,879.01006,
2539.743,890.48152,
2536.832,887.46916,
2533.922,909.95269,
2531.011,905.62512,
2528.100,893.47036,
2525.190,896.27746,
2522.279,902.29653,
2519.369,881.96263,
2516.458,891.34985,
2513.548,898.67289,
2510.637,888.30741,
2507.726,902.99259,
2504.816,921.06201,
2501.905,914.75366,
2498.995,902.41803,
2496.084,920.03839,
2493.173,931.18377,
2490.263,937.55031,
2487.352,940.79293,
2484.442,956.43684,
2481.531,955.2659,
2478.621,946.94782,
2475.710,950.96166,
2472.799,946.24663,
2469.889,957.66484,
2466.978,956.01043,
2464.068,969.19583,
2461.157,985.64766,
2458.247,963.69123,
2455.336,959.44813,
2452.425,962.9151,
2449.515,986.73597,
2446.604,996.93545,
2443.694,991.4646,
2440.783,1002.8615,
2437.872,1004.6564,
2434.962,1012.2811,
2432.051,999.6299,
2429.141,1009.306,
2426.230,1013.5437,
2423.320,1041.8003,
2420.409,1033.0256,
2417.498,1038.5983,
2414.588,1052.8973,
2411.677,1044.8247,
2408.767,1060.4232,
2405.856,1047.5666,
2402.946,1065.2681,
2400.035,1079.8897,
2397.124,1066.6524,
2394.214,1055.3512,
2391.303,1062.5745,
2388.393,1056.5628,
2385.482,999.4234,
2382.571,1003.203,
2379.661,1004.2555,
2376.750,1046.2068,
2373.840,1093.2967,
2370.929,1089.1516,
2368.019,1110.7346,
2365.108,1110.0942,
2362.197,1106.3617,
2359.287,1116.79,
2356.376,1126.9842,
2353.466,1123.0309,
2350.555,1123.6903,
2347.645,1123.3828,
2344.734,1148.6729,
2341.823,1158,
2338.913,1146.1045,
2336.002,1175.6627,
2333.092,1154.2302,
2330.181,1169.9155,
2327.270,1199.7899,
2324.360,1180.7146,
2321.449,1175.3708,
2318.539,1187.8501,
2315.628,1176.1179,
2312.718,1186.3656,
2309.807,1197.5218,
2306.896,1196.0391,
2303.986,1207.0844,
2301.075,1211.8723,
2298.165,1214.8076,
2295.254,1200.3016,
2292.344,1227.4814,
2289.433,1205.39,
2286.522,1221.0268,
2283.612,1250.2921,
2280.701,1264.7309,
2277.791,1244.3206,
2274.880,1255.2099,
2271.969,1263.9053,
2269.059,1260.6758,
2266.148,1280.9683,
2263.238,1294.2973,
2260.327,1312.2407,
2257.417,1261.0472,
2254.506,1298.5498,
2251.595,1305.1308,
2248.685,1313.5269,
2245.774,1338.2303,
2242.864,1339.6384,
2239.953,1322.9586,
2237.043,1325.2072,
2234.132,1333.9246,
2231.221,1342.4728,
2228.311,1328.5619,
2225.400,1355.1689,
2222.490,1363.7851,
2219.579,1388.6504,
2216.669,1406.0334,
2213.758,1426.3961,
2210.847,1389.4132,
2207.937,1407.697,
2205.026,1435.6662,
2202.116,1446.6401,
2199.205,1455.2614,
2196.294,1467.446,
2193.384,1469.2365,
2190.473,1501.3134,
2187.563,1559,
2184.652,1560.8073,
2181.742,1596.1168,
2178.831,1663.9144,
2175.920,1700.2295,
2173.010,1787.1553,
2170.099,1877.9926,
2167.189,1979.4664,
2164.278,2062.195,
2161.368,2194.5682,
2158.457,2306.3281,
2155.546,2460.4954,
2152.636,2610.3455,
2149.725,2723.8926,
2146.815,2854.0625,
2143.904,2948.9182,
2140.993,2998.1216,
2138.083,3042.7202,
2135.172,3095.958,
2132.262,3092.8636,
2129.351,3088.7552,
2126.441,3007.7182,
2123.530,2923.9797,
2120.619,2730.4502,
2117.709,2607.1586,
2114.798,2461.5799,
2111.888,2269.1284,
2108.977,2152.1324,
2106.067,2034.4779,
2103.156,1948.6906,
2100.245,1809.9724,
2097.335,1758.6545,
2094.424,1696.8621,
2091.514,1650.6208,
2088.603,1600.7097,
2085.692,1599.5947,
2082.782,1595.5704,
2079.871,1574.3921,
2076.961,1521.4226,
2074.050,1533.5152,
2071.140,1525.2873,
2068.229,1533.0885,
2065.318,1524.1347,
2062.408,1506.4773,
2059.497,1486.9583,
2056.587,1493.5694,
2053.676,1486.4843,
2050.766,1520.8438,
2047.855,1491.8893,
2044.944,1455.1971,
2042.034,1472.7169,
2039.123,1497.8788,
2036.213,1485.1156,
2033.302,1503.0214,
2030.391,1473.2724,
2027.481,1438.3294,
2024.570,1479.6703,
2021.660,1501.1722,
2018.749,1487.2659,
2015.839,1494.6726,
2012.928,1498.0805,
2010.017,1493.7014,
2007.107,1491.4187,
2004.196,1498.6548,
2001.286,1497.1449,
1998.375,1478.0827,
1995.465,1463.3473,
1992.554,1468.8882,
1989.643,1479.6544,
1986.733,1437.2675,
1983.822,1437.627,
1980.912,1408.2671,
1978.001,1409.974,
1975.090,1413.6778,
1972.180,1410.5146,
1969.269,1427.5459,
1966.359,1418.6487,
1963.448,1404.3897,
1960.538,1407.9266,
1957.627,1411.7833,
1954.716,1455.7073,
1951.806,1417.8077,
1948.895,1396.5303,
1945.985,1401.4853,
1943.074,1374.3912,
1940.164,1373.5195,
1937.253,1376.0483,
1934.342,1362.1283,
1931.432,1353.3312,
1928.521,1384.0553,
1925.611,1384.773,
1922.700,1333.0539,
1919.790,1340.9478,
1916.879,1343.0697,
1913.968,1370.9656,
1911.058,1349.1982,
1908.147,1356.2511,
1905.237,1374.6691,
1902.326,1329.0889,
1899.415,1285.0207,
1896.505,1239.6084,
1893.594,1273.5245,
1890.684,1306.2223,
1887.773,1285.2934,
1884.863,1311.7175,
1881.952,1353.6223,
1879.041,1370.5649,
1876.131,1363.2275,
1873.220,1324.3892,
1870.310,1341.278,
1867.399,1382.3603,
1864.489,1348.2337,
1861.578,1352.0386,
1858.667,1336.5209,
1855.757,1362.9785,
1852.846,1383.4821,
1849.936,1363.6286,
1847.025,1350.1143,
1844.114,1389.5436,
1841.204,1398.486,
1838.293,1374.9834,
1835.383,1413.9645,
1832.472,1396.487,
1829.562,1366.7224,
1826.651,1383.0944,
1823.740,1386.6322,
1820.830,1419.7247,
1817.919,1424.2994,
1815.009,1418.7188,
1812.098,1403.6378,
1809.188,1401.062,
1806.277,1431.3139,
1803.366,1438.0998,
1800.456,1443.8351,
1797.545,1442.5673,
1794.635,1457.484,
1791.724,1465.3882,
1788.813,1509.9833,
1785.903,1444.3993,
1782.992,1381.4903,
1780.082,1269.2412,
1777.171,1108.3239,
1774.261,1111.3258,
1771.350,1256.3585,
1768.439,1425.7942,
1765.529,1481.6342,
1762.618,1502.3019,
1759.708,1527.7608,
1756.797,1519.6894,
1753.887,1528.7697,
1750.976,1526.9241,
1748.065,1550.2642,
1745.155,1555.2259,
1742.244,1528.798,
1739.334,1566.9294,
1736.423,1611.6093,
1733.512,1618.0894,
1730.602,1606.5278,
1727.691,1612.2119,
1724.781,1631.5181,
1721.870,1663.3621,
1718.960,1621.4883,
1716.049,1646.2369,
1713.138,1678.6499,
1710.228,1671.6861,
1707.317,1697.4217,
1704.407,1689.3208,
1701.496,1726.285,
1698.586,1698.5845,
1695.675,1773.6638,
1692.764,1764.7992,
1689.854,1777.3937,
1686.943,1753.8431,
1684.033,1808.5843,
1681.122,1876.8445,
1678.211,1869.0857,
1675.301,1897.9106,
1672.390,1902.2094,
1669.480,1972.1685,
1666.569,1993.127,
1663.659,2004.8292,
1660.748,2115.2699,
1657.837,2128.825,
1654.927,2121.9606,
1652.016,2163.2636,
1649.106,2214.3917,
1646.195,2232.5894,
1643.285,2339.6862,
1640.374,2413.108,
1637.463,2467.2158,
1634.553,2589.5073,
1631.642,2691.4875,
1628.732,2827.6814,
1625.821,2942.1583,
1622.911,3182.6363,
1620.000,3444.6739,
1617.089,3660.6816,
1614.179,3851.5854,
1611.268,4135.2556,
1608.358,4376.6688,
1605.447,4520.9439,
1602.536,4621.2568,
1599.626,4615.1209,
1596.715,4601.2936,
1593.805,4597.317,
1590.894,4523.9044,
1587.984,4488.8833,
1585.073,4422.0396,
1582.162,4325.0067,
1579.252,4297.3621,
1576.341,4257.35,
1573.431,4268.3625,
1570.520,4219.7292,
1567.610,4156.0581,
1564.699,4118.9741,
1561.788,4027.198,
1558.878,3972.8826,
1555.967,3893.3089,
1553.057,3820.0004,
1550.146,3751.6801,
1547.235,3633.451,
1544.325,3534.6749,
1541.414,3462.2554,
1538.504,3436.8175,
1535.593,3414.8898,
1532.683,3324.8727,
1529.772,3225.0693,
1526.861,3211.5886,
1523.951,3244.7185,
1521.040,3225.1663,
1518.130,3183.7186,
1515.219,3081.9588,
1512.309,3093.5179,
1509.398,3003.1407,
1506.487,2995.1105,
1503.577,2967.5627,
1500.666,2930.4038,
1497.756,2887.2205,
1494.845,2898.318,
1491.934,2809.9843,
1489.024,2805.1718,
1486.113,2753.0759,
1483.203,2686.8283,
1480.292,2656.9387,
1477.382,2612.5876,
1474.471,2567.7006,
1471.560,2490.2387,
1468.650,2425.3701,
1465.739,2433.2601,
1462.829,2447.4032,
1459.918,2398.3808,
1457.008,2370.1694,
1454.097,2363.9002,
1451.186,2353.9807,
1448.276,2357.6689,
1445.365,2358.0032,
1442.455,2380.1475,
1439.544,2332.8401,
1436.633,2322.3406,
1433.723,2355.8784,
1430.812,2344.8969,
1427.902,2306.1804,
1424.991,2313.7625,
1422.081,2325.0097,
1419.170,2312.175,
1416.259,2352.9333,
1413.349,2285.9654,
1410.438,2344.2738,
1407.528,2360.6877,
1404.617,2315.9466,
1401.707,2267.6227,
1398.796,2277.6258,
1395.885,2315.4803,
1392.975,2299.52,
1390.064,2257.2309,
1387.154,2231.8872,
1384.243,2206.4836,
1381.332,2229.8813,
1378.422,2252.3424,
1375.511,2394.7331,
1372.601,2489.157,
1369.690,2517.5733,
1366.780,2595.4513,
1363.869,2675.2976,
1360.958,2697.3398,
1358.048,2751.5847,
1355.137,2823.1695,
1352.227,2904.3271,
1349.316,2988.8851,
1346.406,3058.0153,
1343.495,3135.453,
1340.584,3177.2499,
1337.674,3197.2577,
1334.763,3317.0586,
1331.853,3344.8755,
1328.942,3433.1675,
1326.032,3491.306,
1323.121,3533.1205,
1320.210,3611.9239,
1317.300,3712.106,
1314.389,3823.2652,
1311.479,3900.2911,
1308.568,3972.8011,
1305.657,4096.5005,
1302.747,4204.5526,
1299.836,4350.322,
1296.926,4480.4948,
1294.015,4620.232,
1291.105,4796.8251,
1288.194,4973.3587,
1285.283,5136.5845,
1282.373,5223.3358,
1279.462,5308.136,
1276.552,5419.4648,
1273.641,5518.3685,
1270.731,5555.0627,
1267.820,5521.9226,
1264.909,5513.1538,
1261.999,5509.663,
1259.088,5582.6327,
1256.178,5429.412,
1253.267,5345.4603,
1250.356,5142.4324,
1247.446,4947.2157,
1244.535,4782.3083,
1241.625,4592.0929,
1238.714,4375.6322,
1235.804,4200.7768,
1232.893,4119.3945,
1229.982,4028.4549,
1227.072,3953.314,
1224.161,3868.9926,
1221.251,3784.7606,
1218.340,3693.6276,
1215.430,3662.5054,
1212.519,3641.6455,
1209.608,3598.5969,
1206.698,3574.468,
1203.787,3569.3769,
1200.877,3570.9592,
1197.966,3650.9843,
1195.055,3763.3626,
1192.145,3840.6048,
1189.234,3930.0696,
1186.324,4016.0046,
1183.413,4070.5736,
1180.503,4101.1412,
1177.592,4109.434,
1174.681,4059.3938,
1171.771,4067.7225,
1168.860,4012.3509,
1165.950,4003.7748,
1163.039,3982.7463,
1160.129,3971.0507,
1157.218,3947.8476,
1154.307,3912.0141,
1151.397,3889.218,
1148.486,3885.951,
1145.576,3876.6078,
1142.665,3798.4715,
1139.754,3816.4089,
1136.844,3767.3764,
1133.933,3734.6159,
1131.023,3711.0045,
1128.112,3679.1447,
1125.202,3666.3864,
1122.291,3695.1145,
1119.380,3668.1646,
1116.470,3684.9326,
1113.559,3669.9885,
1110.649,3665,
1107.738,3650.5329,
1104.828,3642.9932,
1101.917,3623.9634,
1099.006,3573.041,
1096.096,3624.355,
1093.185,3613.8189,
1090.275,3660.7469,
1087.364,3700.8172,
1084.453,3736.4986,
1081.543,3779.4168,
1078.632,3816.3875,
1075.722,3815.4686,
1072.811,3773.599,
1069.901,3824.2482,
1066.990,3767.3751,
1064.079,3753.6805,
1061.169,3757.3138,
1058.258,3764.6583,
1055.348,3764.5329,
1052.437,3757.8554,
1049.527,3803.6378,
1046.616,3820.1455,
1043.705,3802.7309,
1040.795,3783.5914,
1037.884,3829.6082,
1034.974,3888.7036,
1032.063,3908.1074,
1029.153,3935.1425,
1026.242,3944.657,
1023.331,3974.9981,
1020.421,3968.4522,
1017.510,3989.333,
1014.600,4051.8701,
1011.689,4107.2896,
1008.778,4106.0788,
1005.868,4124.8108,
1002.957,4215.148,
1000.047,4394.9841,
997.136,4581.513,
994.226,4667.6616,
991.315,4675.4381,
988.404,4680.787,
985.494,4597.7672,
982.583,4632.0294,
979.673,4603.3443,
976.762,4601.5678,
973.852,4642.5928,
970.941,4691.224,
968.030,4707.6532,
965.120,4717.2506,
962.209,4776.9285,
959.299,4747.338,
956.388,4778.037,
953.477,4787.0501,
950.567,4753.2742,
947.656,4773.2282,
944.746,4790.2193,
941.835,4780.4724,
938.925,4779.9742,
936.014,4766.8369,
933.103,4736.4046,
930.193,4712.9915,
927.282,4732.4759,
924.372,4575.193,
921.461,4483.5692,
918.551,4415.0109,
915.640,4365.7274,
912.729,4318.9948,
909.819,4251.7717,
906.908,4197.0141,
903.998,4201.1583,
901.087,4253.9205,
898.176,4308.2913,
895.266,4335.3652,
892.355,4349.5489,
889.445,4432.6364,
886.534,4441.3487,
883.624,4482.6971,
880.713,4542.3181,
877.802,4531.323,
874.892,4372.7344,
871.981,4079.2714,
869.071,3921.3784,
866.160,3994.7341,
863.250,4231.334,
860.339,4400.7043,
857.428,4398.7393,
854.518,4419.7503,
851.607,4307.421,
848.697,4084.4061,
845.786,3998.7466,
842.875,4056.7332,
839.965,4187.4864,
837.054,4345.1396,
834.144,4357.5708,
831.233,4329.3356,
828.323,4295.2063,
825.412,4260.5458,
822.501,4217.4253,
819.591,4158.7509,
816.680,4094.4999,
813.770,4033.2653,
810.859,3983.8892,
807.949,3953.6927,
805.038,3942.4115,
802.127,3921.0102,
799.217,3910.8007,
796.306,3874.5133,
793.396,3853.6718,
790.485,3873.6348,
787.574,3920.3772,
784.664,3903.975,
781.753,3966.0854,
778.843,4029.3653,
775.932,4048.7286,
773.022,4022.4235,
770.111,4044.4981,
767.200,3985.8563,
764.290,3954.8646,
761.379,3947.9693,
758.469,3945.9776,
755.558,3926.3922,
752.648,3906.0271,
749.737,3860.8743,
746.826,3826.412,
743.916,3786.0321,
741.005,3711.2968,
738.095,3643.0991,
735.184,3528.4561,
732.274,3483.8964,
729.363,3553.2809,
726.452,3715.0496,
723.542,3831.6022,
720.631,3814.2993,
717.721,3878.0329,
714.810,3928.7159,
711.899,3928.3861,
708.989,3942.9108,
706.078,3922.9674,
703.168,3920.4289,
700.257,3888.5817,
697.347,3839.9132,
694.436,3836.2182,
691.525,3844.2563,
688.615,3871.1564,
685.704,3886.4317,
682.794,3887.4681,
679.883,3888.6035,
676.973,3879.7884,
674.062,3905.4375,
671.151,3904.3435,
668.241,3891.1004,
665.330,3914.2016,
662.420,3855.0955,
659.509,3863.9527,
656.598,3873.4035,
653.688,3885.8729,
650.777,3939.8101,
647.867,3963.6999,
644.956,3926.2786,
642.046,3834.0789,
639.135,3743.7249,
636.224,3754.4138,
633.314,3836.9834,
630.403,3848.5406,
627.493,3869.6534,
624.582,3905.7011,
621.672,3868.4774,
618.761,3870.0398,
615.850,3911.7731,
612.940,3938.1693,
610.029,3921.7119,
607.119,3901.9712,
604.208,3863.0793,
601.297,3870.4333,
598.387,3890.4203,
595.476,3882.143,
592.566,3862.4663,
589.655,3827.9013,
586.745,3807.0943,
583.834,3792.7775,
580.923,3760.0569,
578.013,3769.4737,
575.102,3742.1734,
572.192,3742.8662,
569.281,3794.6856,
566.371,3854.165,
563.460,3840.9524,
560.549,3854.9275,
557.639,3877.4629,
554.728,3878.0201,
551.818,3910.0131,
548.907,3956.6119,
545.996,3990.5534,
543.086,3997.625,
540.175,3968.0365,
537.265,3971.7942,
534.354,3993.5659,
531.444,4022.4744,
528.533,4047.9933,
525.622,4061.9603,
522.712,4122.6416,
519.801,4155.0356,
516.891,4160.4594,
513.980,4227.0489,
511.070,4278.7826,
508.159,4330.9521,
505.248,4385.2765,
502.338,4443.5469,
499.427,4564.7246,
496.517,4672.7979,
493.606,4739.7488,
490.695,4751.8647,
487.785,4714.9148,
484.874,4742.6036,
481.964,4753.1097,
479.053,4734.6457,
476.143,4703.9272,
473.232,4675.3821,
470.321,4716.5771,
467.411,4756.3109,
464.500,4713.4848,
461.590,4732.6283,
458.679,4761.6627,
455.769,4828.8898,
452.858,4938.5674,
449.947,4992.0426,
447.037,5017.5623,
444.126,5046.2242,
441.216,5081.9103,
438.305,5098.6728,
435.395,5123.9473,
432.484,5131.4157,
429.573,5133.1651,
426.663,5168.1316,
423.752,4826.475,
420.842,4438.6099,
417.931,4172.022,
415.020,4231.9323,
412.110,4761.4931,
409.199,5143.7528,
406.289,5332.3907,
403.378,5305.5594,
400.468,5175.5284,
397.557,5188.4999,
394.646,5300.6028,
391.736,5466.1348,
388.825,5501.5837,
385.915,5531.6912,
383.004,5551.8554,
380.094,5563.9522,
377.183,5661.0216,
374.272,5677.1444,
371.362,5687.1313,
368.451,5735.0516,
365.541,5768.8257,
362.630,5814.0519,
359.719,5838.0806,
356.809,5823.5016,
353.898,5815.2648,
350.988,5837.4119,
348.077,5851.0302,
345.167,5832.1079,
342.256,5794.7545,
339.345,5807.9145,
336.435,5842.8796,
333.524,5877.99,
330.614,5845.9483,
327.703,5846.2681,
324.793,5887.7083,
321.882,5978.8918,
318.971,5934.2853,
316.061,5988.8289,
313.150,6077.2428,
310.240,6126.2225,
307.329,6200.893,
304.418,6191.244,
301.508,6157.4062,
298.597,6204.0524,
295.687,6199.1959,
292.776,6201.6667,
289.866,6232.4853,
286.955,6334.4294,
284.044,6414.7799,
281.134,6484.4745,
278.223,6538,
275.313,6538,
272.402,6594.9285,
269.492,6588.4721,
266.581,6482.1113,
263.670,6427.7079,
260.760,6527.4467,
257.849,6654.8133,
254.939,6717.1933,
252.028,6801.2422,
249.117,6827.5181,
246.207,6825.3564,
243.296,6842.1933,
240.386,6868.8137,
237.475,6907.3563,
234.565,6949.8405,
231.654,6961.5267,
228.743,6950.7665,
225.833,6955.635,
222.922,6986.7238,
220.012,6937.9106,
217.101,6913.1671,
214.191,6908.8083,
211.280,6924.8125,
208.369,6960.9863,
205.459,6987.9813,
202.548,6987.0807,
199.638,6894.9233,
196.727,6905.9632,
193.816,6940.0409,
190.906,6969.4983,
187.995,7012.2157,
185.085,7063.8827,
182.174,7104.0206,
179.264,7100.4068,
176.353,7117.301,
173.442,7153.4667,
170.532,7192.2713,
167.621,7125.9416,
164.711,7037.0484,
161.800,6850.1177,
158.890,6490.2539,
155.979,6153.2396,
153.068,5766.6612,
150.158,5292.9291,
147.247,4587.182,
144.337,3795.9641,
141.426,3009.3472,
138.516,2269.5154,
135.605,1621.0201,
132.694,1111.1872,
129.784,729.75366,
126.873,487.32464,
123.963,338.41273,
121.052,229.85516,
118.141,146.32863,
115.231,128.23574,
112.320,109.13819,
109.410,90.13654,
106.499,75.18128,
103.589,66.397455,
100.678,57.110809,
97.767,44.313933,
94.857,42.614022,
91.946,42,
89.036,41.548408,
86.125,38.711587,
83.215,34.283558,
80.304,31.239433,
77.393,31.947603,
74.483,32,
71.572,29.101183,
68.662,24.346337,
65.751,27.878593,
62.840,26.59149,
59.930,23.812714,
57.019,23.107632,
54.109,18.819874,
51.198,17.508046,
48.288,20.9547,
45.377,15.327676,
42.466,15.885535,
39.556,20.345356,
36.645,22.451926,
33.735,19.884509,
30.824,15.453791,
27.914,10.545564,
25.003,15.603737,
22.092,16.416764,
19.182,11.091531,
16.271,13.889492,
13.361,6.5708405,
10.450,-25.191879,
7.539,-142.50886,
4.629,-391.92179,
1.718,-560.00965,
-1.192,-439.40364,
-4.103,-302.4661,
-7.013,-156.50703,
-9.924,-2,
