,PLCB58~1,
Wavenumbers [1/cm],Intensity,
3014.167,2.25,
3011.256,-2.8999248,
3008.346,341.17569,
3005.435,407.36661,
3002.525,425.13758,
2999.614,427.62664,
2996.704,436.61289,
2993.793,448.71774,
2990.882,468.16606,
2987.972,483.28531,
2985.061,505.76726,
2982.151,505.87519,
2979.240,526.91156,
2976.329,542.97952,
2973.419,561.91136,
2970.508,581.58327,
2967.598,595.44116,
2964.687,604.02581,
2961.777,614.68595,
2958.866,638.25891,
2955.955,639.15043,
2953.045,685.53412,
2950.134,688.21792,
2947.224,696.13253,
2944.313,729.84544,
2941.403,738.59535,
2938.492,746.12264,
2935.581,749.72853,
2932.671,759.33156,
2929.760,775.80386,
2926.850,765.24286,
2923.939,814.65659,
2921.028,803.80894,
2918.118,830.0699,
2915.207,836.90199,
2912.297,823.33039,
2909.386,837.01643,
2906.476,849.8539,
2903.565,826.83074,
2900.654,822.80309,
2897.744,841.07399,
2894.833,824.36346,
2891.923,842.14431,
2889.012,819.37139,
2886.102,824.00136,
2883.191,776.29059,
2880.280,716.24518,
2877.370,573.67462,
2874.459,541.81634,
2871.549,655.185,
2868.638,812.12414,
2865.727,853.69998,
2862.817,864.43583,
2859.906,859.04772,
2856.996,872.71603,
2854.085,874.96848,
2851.175,891.77409,
2848.264,884.25967,
2845.353,899.79709,
2842.443,891.22911,
2839.532,889.07102,
2836.622,895.42969,
2833.711,887.35361,
2830.801,890.14926,
2827.890,904.66961,
2824.979,935.94189,
2822.069,933.19314,
2819.158,925.96967,
2816.248,926.73263,
2813.337,950.32196,
2810.427,948.63291,
2807.516,973.35062,
2804.605,951.90626,
2801.695,969.03949,
2798.784,947.39377,
2795.874,949.66951,
2792.963,954.39277,
2790.052,912.25858,
2787.142,962.11838,
2784.231,943.34784,
2781.321,965.86707,
2778.410,949.39974,
2775.500,952.18655,
2772.589,930.4824,
2769.678,971.03149,
2766.768,979.51018,
2763.857,998.25,
2760.947,988.18696,
2758.036,997.73419,
2755.126,970.05342,
2752.215,999.01379,
2749.304,992.80398,
2746.394,990.30846,
2743.483,1012.9499,
2740.573,1006.0707,
2737.662,997.69674,
2734.751,1007.0654,
2731.841,1029.305,
2728.930,1019.8814,
2726.020,1016.0359,
2723.109,1018.7037,
2720.199,1035.2687,
2717.288,1042.4434,
2714.377,1042.7333,
2711.467,1051.7577,
2708.556,1081.5477,
2705.646,1100.081,
2702.735,1082.4227,
2699.825,1090.2064,
2696.914,1082.5354,
2694.003,1094.3329,
2691.093,1096.9456,
2688.182,1065.8493,
2685.272,1083.8432,
2682.361,1105.0087,
2679.450,1107.1266,
2676.540,1099.1484,
2673.629,1093.2545,
2670.719,1113.0892,
2667.808,1109.0768,
2664.898,1121.2763,
2661.987,1124.6504,
2659.076,1137.6315,
2656.166,1147.5055,
2653.255,1117.6939,
2650.345,1149.0431,
2647.434,1183.6787,
2644.524,1174.7367,
2641.613,1175.1934,
2638.702,1172.4552,
2635.792,1191.9688,
2632.881,1188.3631,
2629.971,1177.5251,
2627.060,1177.4159,
2624.149,1196.1125,
2621.239,1190.96,
2618.328,1181.8434,
2615.418,1199.5636,
2612.507,1201.4239,
2609.597,1210.8728,
2606.686,1220.003,
2603.775,1228.2103,
2600.865,1226.192,
2597.954,1268.573,
2595.044,1242.5184,
2592.133,1251.1353,
2589.223,1261.5153,
2586.312,1270.25,
2583.401,1255.4361,
2580.491,1256.8509,
2577.580,1275.283,
2574.670,1297.7406,
2571.759,1293.7902,
2568.848,1299.2445,
2565.938,1303.2023,
2563.027,1303.8341,
2560.117,1300.0538,
2557.206,1291.7851,
2554.296,1325.2203,
2551.385,1323.316,
2548.474,1327.9537,
2545.564,1331.155,
2542.653,1305.4379,
2539.743,1342.7069,
2536.832,1361.3528,
2533.922,1364.4865,
2531.011,1380.8999,
2528.100,1355.9294,
2525.190,1382.4279,
2522.279,1385.3589,
2519.369,1369.3631,
2516.458,1378.1416,
2513.548,1379.6318,
2510.637,1380.3567,
2507.726,1391.3169,
2504.816,1389.5014,
2501.905,1364.975,
2498.995,1405.4889,
2496.084,1403.1176,
2493.173,1396.9871,
2490.263,1411.2274,
2487.352,1430.7508,
2484.442,1442.5348,
2481.531,1457.4679,
2478.621,1446.449,
2475.710,1462.1887,
2472.799,1455.2365,
2469.889,1457.2805,
2466.978,1459.1366,
2464.068,1452.5886,
2461.157,1479.2027,
2458.247,1440.397,
2455.336,1456.3968,
2452.425,1479.5142,
2449.515,1493.5327,
2446.604,1485.8329,
2443.694,1505.2969,
2440.783,1525.3953,
2437.872,1505.271,
2434.962,1521.7431,
2432.051,1510.7812,
2429.141,1549.4674,
2426.230,1529.2057,
2423.320,1546.5642,
2420.409,1552.4102,
2417.498,1553.8652,
2414.588,1573.1396,
2411.677,1599.1066,
2408.767,1590.9498,
2405.856,1568.4001,
2402.946,1588.7388,
2400.035,1586.1678,
2397.124,1607.4532,
2394.214,1592.9256,
2391.303,1601.3604,
2388.393,1586.8546,
2385.482,1571.6025,
2382.571,1549.5663,
2379.661,1575.2264,
2376.750,1617.0898,
2373.840,1662.6842,
2370.929,1671.2717,
2368.019,1660.9957,
2365.108,1678.5772,
2362.197,1663.4445,
2359.287,1649.0818,
2356.376,1675.1972,
2353.466,1699.6747,
2350.555,1694.8301,
2347.645,1712.0513,
2344.734,1696.2453,
2341.823,1748.255,
2338.913,1748.0918,
2336.002,1752.3506,
2333.092,1742.3189,
2330.181,1760.585,
2327.270,1765.25,
2324.360,1775.1321,
2321.449,1787.5731,
2318.539,1786.7179,
2315.628,1771.9986,
2312.718,1776.8491,
2309.807,1761.9578,
2306.896,1789.0293,
2303.986,1815.4774,
2301.075,1813.6543,
2298.165,1829.7794,
2295.254,1782.4564,
2292.344,1830.0965,
2289.433,1817.2809,
2286.522,1839.6249,
2283.612,1879.472,
2280.701,1854.9003,
2277.791,1869.3339,
2274.880,1915.6121,
2271.969,1903.7973,
2269.059,1898.4298,
2266.148,1904.6523,
2263.238,1927.2423,
2260.327,1926.5262,
2257.417,1949.4217,
2254.506,1938.005,
2251.595,1949.1155,
2248.685,1933.4116,
2245.774,1964.4912,
2242.864,1953.9632,
2239.953,1961.2914,
2237.043,1957.4843,
2234.132,1986.5226,
2231.221,2002.9606,
2228.311,2006.7294,
2225.400,2006.5315,
2222.490,2024.6052,
2219.579,2055.4376,
2216.669,2049.7238,
2213.758,2081.3415,
2210.847,2109.7588,
2207.937,2108.4536,
2205.026,2100.3602,
2202.116,2128.3965,
2199.205,2152.9239,
2196.294,2181.994,
2193.384,2204.302,
2190.473,2242.1373,
2187.563,2234.6657,
2184.652,2324.3165,
2181.742,2365.8659,
2178.831,2435.7521,
2175.920,2503.2227,
2173.010,2602.9308,
2170.099,2743.0372,
2167.189,2892.0752,
2164.278,3035.45,
2161.368,3246.3879,
2158.457,3433.1282,
2155.546,3643.1088,
2152.636,3858.3081,
2149.725,4078.2029,
2146.815,4264.911,
2143.904,4372.0157,
2140.993,4544.0541,
2138.083,4607.0402,
2135.172,4654.1576,
2132.262,4652.7324,
2129.351,4604.4704,
2126.441,4539.1236,
2123.530,4351.4766,
2120.619,4169.2419,
2117.709,3951.9304,
2114.798,3740.4263,
2111.888,3517.6182,
2108.977,3264.283,
2106.067,3073.2182,
2103.156,2905.1546,
2100.245,2753.1961,
2097.335,2657.7369,
2094.424,2581.3089,
2091.514,2527.4298,
2088.603,2432.2778,
2085.692,2404.4358,
2082.782,2396.5794,
2079.871,2335.8545,
2076.961,2324.25,
2074.050,2289.2015,
2071.140,2288.5718,
2068.229,2294.332,
2065.318,2297.9777,
2062.408,2262.6131,
2059.497,2253.2798,
2056.587,2249.0642,
2053.676,2182.8204,
2050.766,2195.0945,
2047.855,2187.6804,
2044.944,2169.9792,
2042.034,2186.7009,
2039.123,2196.7685,
2036.213,2182.6922,
2033.302,2203.9019,
2030.391,2195.488,
2027.481,2197.6157,
2024.570,2230.2207,
2021.660,2237.1317,
2018.749,2195.6936,
2015.839,2233.5951,
2012.928,2236.2735,
2010.017,2219.4965,
2007.107,2217.8762,
2004.196,2221.0953,
2001.286,2212.8932,
1998.375,2198.9459,
1995.465,2195.317,
1992.554,2183.7324,
1989.643,2192.8698,
1986.733,2183.7851,
1983.822,2182.6702,
1980.912,2124.6268,
1978.001,2141.2333,
1975.090,2127.4607,
1972.180,2127.1117,
1969.269,2136.3448,
1966.359,2146.0879,
1963.448,2140.4838,
1960.538,2157.5377,
1957.627,2148.8754,
1954.716,2179.302,
1951.806,2156.6106,
1948.895,2130.6062,
1945.985,2156.0163,
1943.074,2102.7151,
1940.164,2073.9807,
1937.253,2069.6934,
1934.342,2062.1473,
1931.432,2069.8778,
1928.521,2088.1464,
1925.611,2071.5099,
1922.700,2046.047,
1919.790,2071.3942,
1916.879,2064.1567,
1913.968,2079.2303,
1911.058,2098.286,
1908.147,2047.0325,
1905.237,2076.0662,
1902.326,2058.0204,
1899.415,2015.8475,
1896.505,1974.8102,
1893.594,2010.0398,
1890.684,2048.6946,
1887.773,2045.5341,
1884.863,2039.3047,
1881.952,2095.1169,
1879.041,2064.2438,
1876.131,2065.6095,
1873.220,2063.2765,
1870.310,2033.4743,
1867.399,2044.0421,
1864.489,2094.5226,
1861.578,2101.1566,
1858.667,2104.9446,
1855.757,2128.4636,
1852.846,2121.291,
1849.936,2119.252,
1847.025,2077.5955,
1844.114,2120.1018,
1841.204,2129.1906,
1838.293,2137.7275,
1835.383,2137.5875,
1832.472,2145.8204,
1829.562,2171.3872,
1826.651,2158.4205,
1823.740,2184.1926,
1820.830,2157.8953,
1817.919,2182.8969,
1815.009,2229.7805,
1812.098,2208.4232,
1809.188,2178.0485,
1806.277,2198.741,
1803.366,2205.3498,
1800.456,2210.8103,
1797.545,2205.7392,
1794.635,2235.7971,
1791.724,2272.0947,
1788.813,2257.4387,
1785.903,2222.719,
1782.992,2208.4228,
1780.082,2132.4124,
1777.171,2027.2345,
1774.261,2012.6859,
1771.350,2174.9193,
1768.439,2308.1012,
1765.529,2303.3398,
1762.618,2292.385,
1759.708,2313.7937,
1756.797,2322.1136,
1753.887,2348.3039,
1750.976,2375.712,
1748.065,2378.78,
1745.155,2368.8372,
1742.244,2344.0344,
1739.334,2397.5582,
1736.423,2422.7173,
1733.512,2438.7135,
1730.602,2459.4623,
1727.691,2463.4823,
1724.781,2497.8594,
1721.870,2514.4929,
1718.960,2506.3832,
1716.049,2518.5126,
1713.138,2528.945,
1710.228,2545.9153,
1707.317,2560.634,
1704.407,2579.3195,
1701.496,2600.3925,
1698.586,2604.098,
1695.675,2605.1857,
1692.764,2732.1107,
1689.854,2659.8444,
1686.943,2702.6312,
1684.033,2724.7284,
1681.122,2739.9951,
1678.211,2834.3459,
1675.301,2836.2469,
1672.390,2865.5162,
1669.480,2954.0414,
1666.569,2929.4053,
1663.659,3020.2136,
1660.748,3079.9468,
1657.837,3166.5343,
1654.927,3179.5546,
1652.016,3196.3808,
1649.106,3362.2255,
1646.195,3365.2541,
1643.285,3530.4603,
1640.374,3625.919,
1637.463,3660.6187,
1634.553,3846.1859,
1631.642,3977.2153,
1628.732,4157.8321,
1625.821,4423.4469,
1622.911,4722.5538,
1620.000,4959.2515,
1617.089,5283.7226,
1614.179,5709.0954,
1611.268,6037.0556,
1608.358,6379.0492,
1605.447,6644.1663,
1602.536,6688.1385,
1599.626,6773.9639,
1596.715,6767.636,
1593.805,6723.3221,
1590.894,6622.257,
1587.984,6596.2586,
1585.073,6553.4108,
1582.162,6431.0357,
1579.252,6359.1519,
1576.341,6385.9,
1573.431,6346.6932,
1570.520,6312.6118,
1567.610,6204.9151,
1564.699,6175.3252,
1561.788,6065.9835,
1558.878,5998.7671,
1555.967,5906.6669,
1553.057,5736.6651,
1550.146,5608.3265,
1547.235,5508.9044,
1544.325,5417.3109,
1541.414,5308.8823,
1538.504,5183.5385,
1535.593,5108.6426,
1532.683,5052.3639,
1529.772,4968.4568,
1526.861,4914.8127,
1523.951,4925.0042,
1521.040,4952.4263,
1518.130,4886.4107,
1515.219,4777.0091,
1512.309,4779.0067,
1509.398,4663.6041,
1506.487,4556.1555,
1503.577,4549.8163,
1500.666,4483.5418,
1497.756,4436.8007,
1494.845,4415.8481,
1491.934,4334.165,
1489.024,4308.1777,
1486.113,4194.1297,
1483.203,4147.947,
1480.292,4087.2482,
1477.382,3989.1509,
1474.471,3899.1859,
1471.560,3853.5774,
1468.650,3799.8372,
1465.739,3805.5101,
1462.829,3780.8601,
1459.918,3751.4875,
1457.008,3736.5575,
1454.097,3729.3337,
1451.186,3720.279,
1448.276,3684.1223,
1445.365,3675.2887,
1442.455,3695.3975,
1439.544,3660.8776,
1436.633,3691.4446,
1433.723,3707.6359,
1430.812,3679.3686,
1427.902,3642.1676,
1424.991,3596.675,
1422.081,3582.4053,
1419.170,3659.8795,
1416.259,3711.9431,
1413.349,3669.8936,
1410.438,3687.5392,
1407.528,3671.9941,
1404.617,3699.8717,
1401.707,3671.8967,
1398.796,3606.0333,
1395.885,3591.25,
1392.975,3595.8544,
1390.064,3596.0093,
1387.154,3584.1945,
1384.243,3608.8704,
1381.332,3603.3567,
1378.422,3620.5102,
1375.511,3780.6997,
1372.601,3974.0151,
1369.690,3928.53,
1366.780,4102.7942,
1363.869,4156.3353,
1360.958,4234.1749,
1358.048,4365.8066,
1355.137,4423.9932,
1352.227,4481.9301,
1349.316,4614.5743,
1346.406,4743.6095,
1343.495,4843.4295,
1340.584,4904.6071,
1337.674,4925.7606,
1334.763,5092.9077,
1331.853,5215.3022,
1328.942,5179.3347,
1326.032,5303.1181,
1323.121,5445.6176,
1320.210,5581.8085,
1317.300,5670.3858,
1314.389,5810.28,
1311.479,5933.2887,
1308.568,6028.8842,
1305.657,6217.8463,
1302.747,6390.1194,
1299.836,6518.7171,
1296.926,6742.7021,
1294.015,6881.5199,
1291.105,7116.1909,
1288.194,7343.7408,
1285.283,7613.063,
1282.373,7789.4762,
1279.462,7923.0523,
1276.552,8025.0927,
1273.641,8153.6983,
1270.731,8302.0724,
1267.820,8311.25,
1264.909,8307.5024,
1261.999,8276.2555,
1259.088,8166.8009,
1256.178,8023.217,
1253.267,7882.8691,
1250.356,7609.5339,
1247.446,7380.6648,
1244.535,7116.3978,
1241.625,6787.3393,
1238.714,6507.439,
1235.804,6302.6047,
1232.893,6100.7708,
1229.982,6000.8532,
1227.072,5841.5182,
1224.161,5729.3895,
1221.251,5682.7032,
1218.340,5547.5745,
1215.430,5410.4331,
1212.519,5356.061,
1209.608,5357.5412,
1206.698,5346.803,
1203.787,5318.1595,
1200.877,5314.5346,
1197.966,5351.4001,
1195.055,5534.1387,
1192.145,5718.5241,
1189.234,5852.2954,
1186.324,5979.076,
1183.413,6061.8236,
1180.503,6063.3872,
1177.592,6021.4215,
1174.681,5992.3767,
1171.771,5991.1895,
1168.860,5901.8805,
1165.950,5935.9833,
1163.039,5923.9011,
1160.129,5908.3514,
1157.218,5835.5048,
1154.307,5759.3949,
1151.397,5733.3103,
1148.486,5663.9042,
1145.576,5637.3612,
1142.665,5593.8534,
1139.754,5577.2319,
1136.844,5514.024,
1133.933,5463.6167,
1131.023,5455.6919,
1128.112,5435.5402,
1125.202,5383.8732,
1122.291,5395.7513,
1119.380,5398.8256,
1116.470,5355.5817,
1113.559,5402.0577,
1110.649,5378.6141,
1107.738,5340.0322,
1104.828,5307.606,
1101.917,5284.8417,
1099.006,5282.9202,
1096.096,5267.3038,
1093.185,5268.1818,
1090.275,5296.5745,
1087.364,5342.359,
1084.453,5412.5592,
1081.543,5524.2418,
1078.632,5610.5491,
1075.722,5596.3007,
1072.811,5579.4982,
1069.901,5582.9913,
1066.990,5553.3417,
1064.079,5463.9078,
1061.169,5461.1496,
1058.258,5475.8515,
1055.348,5458.3077,
1052.437,5477.517,
1049.527,5551.022,
1046.616,5571.0051,
1043.705,5581.7284,
1040.795,5574.6724,
1037.884,5600.1,
1034.974,5625.7809,
1032.063,5637.0878,
1029.153,5706.5976,
1026.242,5784.4437,
1023.331,5723.9207,
1020.421,5741.9225,
1017.510,5800.0721,
1014.600,5870.3532,
1011.689,5938.49,
1008.778,6002.0052,
1005.868,6078.1497,
1002.957,6289.7968,
1000.047,6513.7141,
997.136,6717.9856,
994.226,6843.8187,
991.315,6869.3317,
988.404,6824.8737,
985.494,6770.8856,
982.583,6754.611,
979.673,6749.3234,
976.762,6770.5599,
973.852,6807.0245,
970.941,6827.6188,
968.030,6818.4582,
965.120,6842.386,
962.209,6874.7826,
959.299,6849.7953,
956.388,6907.8055,
953.477,6930.3678,
950.567,6886.3871,
947.656,6897.2554,
944.746,6912.5474,
941.835,6919.7285,
938.925,6902.1665,
936.014,6931.1986,
933.103,6916.992,
930.193,6815.4571,
927.282,6787.9879,
924.372,6709.3465,
921.461,6590.9992,
918.551,6437.8061,
915.640,6356.9498,
912.729,6312.2876,
909.819,6179.8018,
906.908,6146.1048,
903.998,6167.3156,
901.087,6232.4451,
898.176,6238.5727,
895.266,6228.8809,
892.355,6281.8883,
889.445,6328.048,
886.534,6412.5721,
883.624,6499.8974,
880.713,6560.7885,
877.802,6549.7739,
874.892,6435.656,
871.981,6228.1996,
869.071,6014.3339,
866.160,6121.4516,
863.250,6309.9619,
860.339,6430.1254,
857.428,6432.5802,
854.518,6380.5299,
851.607,6286.5061,
848.697,6123.0571,
845.786,6079.0845,
842.875,6140.4481,
839.965,6237.5225,
837.054,6339.65,
834.144,6375.2864,
831.233,6375.5838,
828.323,6328.2331,
825.412,6248.8,
822.501,6165.6753,
819.591,6107.0009,
816.680,6011.4998,
813.770,5916.2022,
810.859,5840.7607,
807.949,5794.3597,
805.038,5769.6792,
802.127,5715.3528,
799.217,5683.4159,
796.306,5644.1687,
793.396,5639.1586,
790.485,5654.6152,
787.574,5609.4919,
784.664,5668.54,
781.753,5760.4391,
778.843,5826.2244,
775.932,5869.2991,
773.022,5897.5153,
770.111,5847.6431,
767.200,5780.2998,
764.290,5751.5818,
761.379,5722.4057,
758.469,5699.5967,
755.558,5743.2109,
752.648,5641.3854,
749.737,5606.8886,
746.826,5613.7029,
743.916,5578.3142,
741.005,5430.586,
738.095,5309.6163,
735.184,5228.0344,
732.274,5229.6485,
729.363,5315.099,
726.452,5448.1601,
723.542,5530.7182,
720.631,5611.7039,
717.721,5666.7565,
714.810,5683.7785,
711.899,5683.7847,
708.989,5728.9725,
706.078,5736.4617,
703.168,5723.6767,
700.257,5677.9437,
697.347,5632.7711,
694.436,5656.1191,
691.525,5651.2962,
688.615,5661.5704,
685.704,5666.0915,
682.794,5678.6966,
679.883,5728.6012,
676.973,5714.1765,
674.062,5725.2878,
671.151,5720.1001,
668.241,5695.8643,
665.330,5668.8466,
662.420,5596.9607,
659.509,5580.3452,
656.598,5622.9577,
653.688,5710.6156,
650.777,5812.412,
647.867,5817.19,
644.956,5798.4372,
642.046,5726.9625,
639.135,5637.1713,
636.224,5614.3972,
633.314,5643.7729,
630.403,5575.575,
627.493,5567.8026,
624.582,5632.3637,
621.672,5601.4759,
618.761,5579.7316,
615.850,5604.6563,
612.940,5647.6683,
610.029,5676.6467,
607.119,5649.0096,
604.208,5647.67,
601.297,5652.2381,
598.387,5638.1922,
595.476,5594.8841,
592.566,5612.1996,
589.655,5598.4049,
586.745,5591.8538,
583.834,5584.0512,
580.923,5544.359,
578.013,5562.4079,
575.102,5578.7218,
572.192,5582.9626,
569.281,5579.7492,
566.371,5604.7932,
563.460,5630.5305,
560.549,5653.4065,
557.639,5672.6213,
554.728,5688.876,
551.818,5714.6264,
548.907,5740.97,
545.996,5765.9137,
543.086,5783.9145,
540.175,5782.3572,
537.265,5761.2459,
534.354,5807.4326,
531.444,5859.2994,
528.533,5856.5125,
525.622,5888.3263,
522.712,5949.8578,
519.801,6023.0561,
516.891,6089.2582,
513.980,6114.0356,
511.070,6224.0151,
508.159,6328.9458,
505.248,6427.0475,
502.338,6527.8029,
499.427,6615.0199,
496.517,6714.6136,
493.606,6780.3163,
490.695,6805.4834,
487.785,6886.3114,
484.874,6920.5754,
481.964,6921.868,
479.053,6901.5504,
476.143,6877.7436,
473.232,6780.5693,
470.321,6762.7131,
467.411,6800.9782,
464.500,6853.3664,
461.590,6857.9608,
458.679,6961.0545,
455.769,7069.7702,
452.858,7128.5109,
449.947,7159.8321,
447.037,7228.1396,
444.126,7291.5409,
441.216,7339.3196,
438.305,7385.7974,
435.395,7406.0184,
432.484,7437.8384,
429.573,7472.7825,
426.663,7475.0629,
423.752,7239.5224,
420.842,6926.2611,
417.931,6690.5483,
415.020,6744.3917,
412.110,7344.7096,
409.199,7714.8611,
406.289,7847.898,
403.378,7772.876,
400.468,7662.5009,
397.557,7702.3158,
394.646,7817.9614,
391.736,7941.0126,
388.825,7996.0715,
385.915,8036.1987,
383.004,8077.5236,
380.094,8132.3576,
377.183,8212.8726,
374.272,8243.9345,
371.362,8278.0338,
368.451,8343.8001,
365.541,8369.3183,
362.630,8377.3425,
359.719,8404.2951,
356.809,8464.7095,
353.898,8439.2504,
350.988,8437.1324,
348.077,8460.417,
345.167,8506.6067,
342.256,8493.9065,
339.345,8488.6557,
336.435,8489.4707,
333.524,8495.8372,
330.614,8514.4661,
327.703,8564.4028,
324.793,8614.4993,
321.882,8638.4267,
318.971,8711.2841,
316.061,8805.1023,
313.150,8900.5761,
310.240,8975.5298,
307.329,9055.4308,
304.418,9059.3488,
301.508,9032.9608,
298.597,9054.4329,
295.687,9041.3507,
292.776,9048.8334,
289.866,9097.5857,
286.955,9232.0337,
284.044,9329.6799,
281.134,9388.2101,
278.223,9424.4771,
275.313,9521.742,
272.402,9531.7937,
269.492,9540.7263,
266.581,9572.0459,
263.670,9513.2315,
260.760,9601.7714,
257.849,9723.3995,
254.939,9795.32,
252.028,9954.772,
249.117,9945.8122,
246.207,9895.2604,
243.296,10018.975,
240.386,10044.657,
237.475,10050.482,
234.565,10055.117,
231.654,10092.366,
228.743,10106.579,
225.833,10092.042,
222.922,10048.25,
220.012,10048.25,
217.101,10062.971,
214.191,10092.894,
211.280,10141.634,
208.369,10134.485,
205.459,10105.295,
202.548,10067.871,
199.638,10059.889,
196.727,10047.878,
193.816,10073.664,
190.906,10152.266,
187.995,10181.227,
185.085,10181.32,
182.174,10202.767,
179.264,10322.746,
176.353,10297.162,
173.442,10275.25,
170.532,10270.378,
167.621,10228.561,
164.711,10065.886,
161.800,9833.8933,
158.890,9554.639,
155.979,9024.9773,
153.068,8394.5406,
150.158,7652.1603,
147.247,6699.4377,
144.337,5576.625,
141.426,4407.3319,
138.516,3241.6667,
135.605,2332.7028,
132.694,1599.1927,
129.784,1041.5336,
126.873,719.72519,
123.963,491.49594,
121.052,322.35715,
118.141,206.70502,
115.231,177.82719,
112.320,146.33911,
109.410,116.52289,
106.499,102.27979,
103.589,91.966692,
100.678,83.533783,
97.767,76.424407,
94.857,65.855164,
91.946,66.08733,
89.036,72.346817,
86.125,66.673175,
83.215,57.286195,
80.304,50.25,
77.393,50.25,
74.483,46.974325,
71.572,43.438239,
68.662,40.111465,
65.751,38.698563,
62.840,31.506172,
59.930,25.561003,
57.019,30.496577,
54.109,24.08407,
51.198,23.774139,
48.288,34.182051,
45.377,25.741514,
42.466,23.898877,
39.556,26.25,
36.645,26.25,
33.735,26.769248,
30.824,24.157582,
27.914,14.341129,
25.003,20.099012,
22.092,22.312573,
19.182,18.181351,
16.271,16.082881,
13.361,12.721252,
10.450,-3.0093554,
7.539,-74.237523,
4.629,-234.73937,
1.718,-347.86501,
-1.192,-283.03057,
-4.103,-220.05975,
-7.013,-129.11391,
-9.924,-1.75,
