,PL1AF9~1,
Raman shift [1/cm],Intensity,
3014.167,0.25,
3011.256,-1.1999893,
3008.346,156.47977,
3005.435,176.63516,
3002.525,177.66499,
2999.614,186.61757,
2996.704,200.7098,
2993.793,215.14458,
2990.882,198.55535,
2987.972,217.21469,
2985.061,215.12685,
2982.151,225.65337,
2979.240,227.88308,
2976.329,250.28822,
2973.419,242.80379,
2970.508,250.18331,
2967.598,269.6251,
2964.687,251.57744,
2961.777,265.43802,
2958.866,287.91419,
2955.955,285.93806,
2953.045,287.59899,
2950.134,306.32586,
2947.224,314.87631,
2944.313,325.46367,
2941.403,332.23859,
2938.492,320.98443,
2935.581,338.70152,
2932.671,341.81225,
2929.760,345.76537,
2926.850,344.93647,
2923.939,351.96492,
2921.028,362.31464,
2918.118,354.95151,
2915.207,380.78814,
2912.297,384.27539,
2909.386,395.23541,
2906.476,379.57586,
2903.565,383.7826,
2900.654,377.02654,
2897.744,363.55173,
2894.833,384.36346,
2891.923,385.9263,
2889.012,383.37717,
2886.102,363.56488,
2883.191,380.2264,
2880.280,352.83372,
2877.370,335.11047,
2874.459,328.53937,
2871.549,371.5004,
2868.638,409.61494,
2865.727,401.61922,
2862.817,399.14974,
2859.906,396.1104,
2856.996,402.67981,
2854.085,413.84873,
2851.175,408.31931,
2848.264,390.18617,
2845.353,399.88336,
2842.443,380.85418,
2839.532,375.69777,
2836.622,396.88477,
2833.711,388.19819,
2830.801,389.04853,
2827.890,382.26922,
2824.979,379.38596,
2822.069,396.97707,
2819.158,376.29043,
2816.248,380.50289,
2813.337,406.77562,
2810.427,390.47039,
2807.516,389.45859,
2804.605,389.08895,
2801.695,392.28947,
2798.784,392.95431,
2795.874,391.8252,
2792.963,394.03585,
2790.052,375.25472,
2787.142,394.88138,
2784.231,372.83075,
2781.321,390.42705,
2778.410,374.86927,
2775.500,392.78172,
2772.589,392.09557,
2769.678,389.74826,
2766.768,396.43835,
2763.857,392.56599,
2760.947,390.22478,
2758.036,393.02711,
2755.126,410.24359,
2752.215,413.95438,
2749.304,413.58992,
2746.394,413.02412,
2743.483,424.50006,
2740.573,403.49111,
2737.662,402.04733,
2734.751,423.06542,
2731.841,394.46427,
2728.930,414.51685,
2726.020,420.35185,
2723.109,399.95125,
2720.199,434.50637,
2717.288,416.16241,
2714.377,423.9582,
2711.467,420.41374,
2708.556,430.29253,
2705.646,446.46131,
2702.735,434.61085,
2699.825,448.53359,
2696.914,415.01134,
2694.003,437.47927,
2691.093,429.5713,
2688.182,453.74334,
2685.272,434.96693,
2682.361,441.27948,
2679.450,443.20471,
2676.540,441.02644,
2673.629,435.22755,
2670.719,443.96534,
2667.808,463.22865,
2664.898,449.54864,
2661.987,445.31651,
2659.076,447.1056,
2656.166,450.83011,
2653.255,452.91327,
2650.345,475.5785,
2647.434,452.36461,
2644.524,469.26921,
2641.613,471.07841,
2638.702,473.17109,
2635.792,473.1862,
2632.881,482.67263,
2629.971,490.1024,
2627.060,473.08344,
2624.149,483.27498,
2621.239,497.75296,
2618.328,489.27509,
2615.418,470.9,
2612.507,488.17882,
2609.597,480.62724,
2606.686,494.79616,
2603.775,490.9762,
2600.865,500.54689,
2597.954,499.5854,
2595.044,503.27657,
2592.133,505.8106,
2589.223,498.76788,
2586.312,524.24505,
2583.401,496.08579,
2580.491,511.23555,
2577.580,530.2401,
2574.670,518.16178,
2571.759,506.65411,
2568.848,503.66433,
2565.938,525.77384,
2563.027,531.12948,
2560.117,534.26866,
2557.206,520.82565,
2554.296,545.82437,
2551.385,542.04384,
2548.474,526.17602,
2545.564,549.55358,
2542.653,532.16611,
2539.743,542.53435,
2536.832,545.14719,
2533.922,540.26577,
2531.011,542.89986,
2528.100,549.38241,
2525.190,552.83115,
2522.279,559.57829,
2519.369,560.5145,
2516.458,546.1381,
2513.548,557.38619,
2510.637,546.25,
2507.726,548.43588,
2504.816,552.68743,
2501.905,553.06159,
2498.995,564.77225,
2496.084,563.07582,
2493.173,570.17086,
2490.263,562.05903,
2487.352,575.33347,
2484.442,582.37632,
2481.531,594.72341,
2478.621,578.89449,
2475.710,594.11965,
2472.799,576.75673,
2469.889,571.85664,
2466.978,578.353,
2464.068,610.98026,
2461.157,598.94493,
2458.247,603.42639,
2455.336,596.88797,
2452.425,600.92453,
2449.515,617.61799,
2446.604,606.14872,
2443.694,595.94823,
2440.783,607.25,
2437.872,608.08312,
2434.962,589.5956,
2432.051,620.34869,
2429.141,631.19687,
2426.230,606.40131,
2423.320,639.67877,
2420.409,640.32675,
2417.498,622.94097,
2414.588,657.6566,
2411.677,651.57272,
2408.767,657.46752,
2405.856,650.65714,
2402.946,648.14276,
2400.035,654.34156,
2397.124,644.81149,
2394.214,647.9524,
2391.303,656.50406,
2388.393,649.08019,
2385.482,658.54501,
2382.571,662.93375,
2379.661,665.55216,
2376.750,681.25,
2373.840,663.99383,
2370.929,667.16336,
2368.019,700.6718,
2365.108,690.73953,
2362.197,703.14052,
2359.287,687.31685,
2356.376,698.21654,
2353.466,704.25,
2350.555,702.27493,
2347.645,685.04075,
2344.734,695.73853,
2341.823,716.98467,
2338.913,716.45445,
2336.002,705.3743,
2333.092,727.06604,
2330.181,738.30368,
2327.270,717.62513,
2324.360,727.53535,
2321.449,734.49488,
2318.539,720.29282,
2315.628,728.52698,
2312.718,712.70153,
2309.807,724.13807,
2306.896,735.24217,
2303.986,738.34096,
2301.075,749.95211,
2298.165,737.08625,
2295.254,760.6468,
2292.344,758.36212,
2289.433,739.97591,
2286.522,759.8705,
2283.612,768.39031,
2280.701,768.51906,
2277.791,762.37022,
2274.880,767.38996,
2271.969,782.21297,
2269.059,795.48434,
2266.148,796.52045,
2263.238,789.05309,
2260.327,790.0777,
2257.417,797.45445,
2254.506,790.91384,
2251.595,788.40279,
2248.685,780.25,
2245.774,812.689,
2242.864,815.0006,
2239.953,834.78803,
2237.043,818.9775,
2234.132,821.59806,
2231.221,820.9606,
2228.311,823.85953,
2225.400,845.64404,
2222.490,857.9503,
2219.579,856.01094,
2216.669,856.28339,
2213.758,866.86179,
2210.847,891.56484,
2207.937,919.23205,
2205.026,922.02814,
2202.116,921.95168,
2199.205,936.87588,
2196.294,941.72993,
2193.384,969.90752,
2190.473,985.40376,
2187.563,992.48684,
2184.652,1041.7018,
2181.742,1061.684,
2178.831,1116.001,
2175.920,1146.822,
2173.010,1193.5028,
2170.099,1250.5784,
2167.189,1275.2285,
2164.278,1280.4671,
2161.368,1357.9607,
2158.457,1446.6533,
2155.546,1494.2789,
2152.636,1547.6063,
2149.725,1582.0554,
2146.815,1656.8141,
2143.904,1674.2574,
2140.993,1690.1548,
2138.083,1701.487,
2135.172,1722.3424,
2132.262,1720.0123,
2129.351,1694.2877,
2126.441,1661.2791,
2123.530,1593.0041,
2120.619,1477.608,
2117.709,1420.3639,
2114.798,1335.1651,
2111.888,1282.3882,
2108.977,1218.0248,
2106.067,1137.6803,
2103.156,1112.4516,
2100.245,1093.2406,
2097.335,1072.5903,
2094.424,1021.9154,
2091.514,997.25542,
2088.603,998.65556,
2085.692,1003.2536,
2082.782,995.28625,
2079.871,988.25,
2076.961,990.12084,
2074.050,973.91061,
2071.140,965.31912,
2068.229,949.8073,
2065.318,952.47377,
2062.408,963.5072,
2059.497,942.04166,
2056.587,958.40085,
2053.676,957.26722,
2050.766,929.40546,
2047.855,942.7089,
2044.944,926.51121,
2042.034,940.77601,
2039.123,954.21296,
2036.213,971.30995,
2033.302,937.77202,
2030.391,934.48696,
2027.481,945.71337,
2024.570,964.94953,
2021.660,958.84129,
2018.749,923.95957,
2015.839,965.63583,
2012.928,958.23826,
2010.017,972.14577,
2007.107,971.87615,
2004.196,962.80953,
2001.286,962.2288,
1998.375,955.37893,
1995.465,974.48839,
1992.554,960.96781,
1989.643,937.97584,
1986.733,935.62456,
1983.822,941.12149,
1980.912,933.56678,
1978.001,933.44481,
1975.090,939.84389,
1972.180,924.38965,
1969.269,925.06328,
1966.359,942.84463,
1963.448,934.02278,
1960.538,937.55359,
1957.627,927.65866,
1954.716,924.30745,
1951.806,924.50483,
1948.895,914.96855,
1945.985,943.16503,
1943.074,924.16518,
1940.164,918.74044,
1937.253,928.41511,
1934.342,930.20722,
1931.432,905.04495,
1928.521,884.40544,
1925.611,920.89245,
1922.700,901.4268,
1919.790,903.44641,
1916.879,909.90125,
1913.968,908.25246,
1911.058,887.49626,
1908.147,917.25728,
1905.237,903.65441,
1902.326,912.58924,
1899.415,924.89509,
1896.505,893.08142,
1893.594,917.96956,
1890.684,925.50495,
1887.773,928.64629,
1884.863,910.73747,
1881.952,912.29234,
1879.041,895.04231,
1876.131,880.73497,
1873.220,891.45359,
1870.310,886.75225,
1867.399,915.77019,
1864.489,919.86056,
1861.578,909.8764,
1858.667,912.41164,
1855.757,946.45644,
1852.846,933.72181,
1849.936,928.73747,
1847.025,943.60768,
1844.114,925.87119,
1841.204,940.27098,
1838.293,949.75249,
1835.383,925.84352,
1832.472,930.3787,
1829.562,977.55131,
1826.651,957.64224,
1823.740,941.70594,
1820.830,955.36823,
1817.919,953.54936,
1815.009,972.79961,
1812.098,973.55709,
1809.188,954.49035,
1806.277,986.49752,
1803.366,999.60119,
1800.456,961.96444,
1797.545,977.75337,
1794.635,1003.3489,
1791.724,955.95856,
1788.813,1018.0472,
1785.903,1013.2364,
1782.992,1015.5197,
1780.082,989.86515,
1777.171,1002.2521,
1774.261,1012.44,
1771.350,1014.2712,
1768.439,1008.6965,
1765.529,1017.525,
1762.618,1034.6656,
1759.708,1035.2065,
1756.797,1031.0985,
1753.887,1049.559,
1750.976,1025.1532,
1748.065,1030.4297,
1745.155,1076.7982,
1742.244,1053.5082,
1739.334,1074.6476,
1736.423,1073.4668,
1733.512,1068.1606,
1730.602,1089.4465,
1727.691,1095.4823,
1724.781,1096.8232,
1721.870,1080.3499,
1718.960,1107.4948,
1716.049,1101.6654,
1713.138,1114.6399,
1710.228,1117.25,
1707.317,1107.5197,
1704.407,1151.1699,
1701.496,1142.5768,
1698.586,1139.402,
1695.675,1175.7426,
1692.764,1192.4508,
1689.854,1208.5571,
1686.943,1226.6429,
1684.033,1228.2252,
1681.122,1217.4369,
1678.211,1271.7265,
1675.301,1283.2161,
1672.390,1316.262,
1669.480,1320.7393,
1666.569,1381.2246,
1663.659,1380.0503,
1660.748,1428.1536,
1657.837,1424.9121,
1654.927,1500.1169,
1652.016,1535.0593,
1649.106,1488.8657,
1646.195,1553.7535,
1643.285,1575.5944,
1640.374,1633.48,
1637.463,1645.2228,
1634.553,1699.7426,
1631.642,1800.1295,
1628.732,1880.333,
1625.821,1894.3239,
1622.911,2006.6132,
1620.000,2182.02,
1617.089,2285.2002,
1614.179,2406.7813,
1611.268,2551.7848,
1608.358,2601.0961,
1605.447,2764.4799,
1602.536,2775.1819,
1599.626,2789.9689,
1596.715,2828.4616,
1593.805,2795.5824,
1590.894,2789.4887,
1587.984,2738.1506,
1585.073,2691.9632,
1582.162,2699.4431,
1579.252,2672.7912,
1576.341,2667.0511,
1573.431,2675.8649,
1570.520,2638.5024,
1567.610,2638.9169,
1564.699,2570.022,
1561.788,2567.6019,
1558.878,2464.2286,
1555.967,2424.4633,
1553.057,2373.8368,
1550.146,2326.5009,
1547.235,2277.6981,
1544.325,2240.0704,
1541.414,2225.7693,
1538.504,2205.3497,
1535.593,2182.4855,
1532.683,2159.0088,
1529.772,2135.3501,
1526.861,2092.8567,
1523.951,2054.4316,
1521.040,2064.6857,
1518.130,2032.3591,
1515.219,1993.3303,
1512.309,1983.0023,
1509.398,1974.0866,
1506.487,1943.5256,
1503.577,1940.9848,
1500.666,1935.9602,
1497.756,1863.6993,
1494.845,1880.2895,
1491.934,1857.0862,
1489.024,1807.0366,
1486.113,1834.9209,
1483.203,1800.8351,
1480.292,1777.5827,
1477.382,1754.852,
1474.471,1704.2073,
1471.560,1690.9757,
1468.650,1702.8657,
1465.739,1696.0807,
1462.829,1697.6054,
1459.918,1669.5481,
1457.008,1637.173,
1454.097,1645.1904,
1451.186,1662.3293,
1448.276,1660.4534,
1445.365,1655.4648,
1442.455,1680.8357,
1439.544,1706.4697,
1436.633,1631.9402,
1433.723,1666.3807,
1430.812,1647.9305,
1427.902,1581.498,
1424.991,1591.9234,
1422.081,1590.415,
1419.170,1590.25,
1416.259,1587.0097,
1413.349,1583.9843,
1410.438,1532.8659,
1407.528,1521.5499,
1404.617,1553.6708,
1401.707,1557.4117,
1398.796,1549.4423,
1395.885,1554.4232,
1392.975,1548.9998,
1390.064,1530.3606,
1387.154,1496.0719,
1384.243,1455.4543,
1381.332,1396.8859,
1378.422,1462.4525,
1375.511,1543.9525,
1372.601,1656.76,
1369.690,1719.3978,
1366.780,1825.6703,
1363.869,1803.3025,
1360.958,1851.9318,
1358.048,1903.456,
1355.137,1955.7277,
1352.227,1971.2041,
1349.316,1997.9643,
1346.406,2081.1659,
1343.495,2105.4295,
1340.584,2166.0714,
1337.674,2169.4308,
1334.763,2207.0375,
1331.853,2280.2888,
1328.942,2316.1602,
1326.032,2314.5407,
1323.121,2348.8163,
1320.210,2394.546,
1317.300,2406.5281,
1314.389,2423.806,
1311.479,2438.4442,
1308.568,2455.5974,
1305.657,2511.0169,
1302.747,2558.7858,
1299.836,2615.2525,
1296.926,2669.7365,
1294.015,2766.2655,
1291.105,2763.2057,
1288.194,2911.6149,
1285.283,2962.1381,
1282.373,3042.5544,
1279.462,3113.7005,
1276.552,3150.6516,
1273.641,3160.0375,
1270.731,3157.3649,
1267.820,3164.7083,
1264.909,3108.6455,
1261.999,3104.4164,
1259.088,3108.977,
1256.178,3089.5515,
1253.267,3048.6574,
1250.356,2958.6886,
1247.446,2877.2455,
1244.535,2818.0045,
1241.625,2757.7612,
1238.714,2697.2387,
1235.804,2655.1093,
1232.893,2611.381,
1229.982,2580.9076,
1227.072,2482.2286,
1224.161,2471.0475,
1221.251,2417.3898,
1218.340,2359.0857,
1215.430,2320.1834,
1212.519,2279.0844,
1209.608,2244.8325,
1206.698,2242.5053,
1203.787,2253.3757,
1200.877,2308.25,
1197.966,2308.25,
1195.055,2404.6671,
1192.145,2466.3306,
1189.234,2528.6118,
1186.324,2565.7056,
1183.413,2606.6054,
1180.503,2643.552,
1177.592,2631.0478,
1174.681,2605.8562,
1171.771,2594.6428,
1168.860,2524.9818,
1165.950,2502.9305,
1163.039,2455.949,
1160.129,2411.8862,
1157.218,2385.5968,
1154.307,2352.8754,
1151.397,2320.2883,
1148.486,2338.9013,
1145.576,2329.3226,
1142.665,2284.927,
1139.754,2284.5045,
1136.844,2243.2318,
1133.933,2224.6635,
1131.023,2239.3571,
1128.112,2226.9685,
1125.202,2179.564,
1122.291,2199.1328,
1119.380,2219.5272,
1116.470,2247.7681,
1113.559,2250.4768,
1110.649,2219.4723,
1107.738,2223.0753,
1104.828,2235.6729,
1101.917,2236.9426,
1099.006,2259.4561,
1096.096,2277.2074,
1093.185,2243.8433,
1090.275,2273.6208,
1087.364,2234.5936,
1084.453,2232.9362,
1081.543,2246.0589,
1078.632,2251.0849,
1075.722,2275.7724,
1072.811,2305.2715,
1069.901,2263.355,
1066.990,2276.4166,
1064.079,2284.3331,
1061.169,2306.6851,
1058.258,2347.3887,
1055.348,2372.6071,
1052.437,2352.9381,
1049.527,2349.1703,
1046.616,2424.7584,
1043.705,2427.0839,
1040.795,2430.358,
1037.884,2421.1123,
1034.974,2430.8505,
1032.063,2453.4197,
1029.153,2413.0929,
1026.242,2445.0963,
1023.331,2480.4145,
1020.421,2444.7268,
1017.510,2435.7747,
1014.600,2476.6615,
1011.689,2525.3858,
1008.778,2541.3136,
1005.868,2588.9991,
1002.957,2672.4534,
1000.047,2792.266,
997.136,2883.3473,
994.226,2901.8503,
991.315,2878.4233,
988.404,2868.4133,
985.494,2836.6197,
982.583,2763.8124,
979.673,2716.6677,
976.762,2687.3982,
973.852,2696.1405,
970.941,2724.8066,
968.030,2730.5448,
965.120,2715.3073,
962.209,2728.948,
959.299,2707.8778,
956.388,2719.5286,
953.477,2732.1397,
950.567,2730.9556,
947.656,2743.5815,
944.746,2738.4842,
941.835,2740.6794,
938.925,2745.8564,
936.014,2746.2267,
933.103,2746.3686,
930.193,2742.06,
927.282,2709.5708,
924.372,2715.49,
921.461,2705.9404,
918.551,2663.3275,
915.640,2619.1021,
912.729,2585.7107,
909.819,2553.5828,
906.908,2548.5282,
903.998,2575.2924,
901.087,2598.1627,
898.176,2613.9307,
895.266,2629.8198,
892.355,2660.0295,
889.445,2722.9745,
886.534,2691.5249,
883.624,2696.0153,
880.713,2745.651,
877.802,2777.1335,
874.892,2742.8292,
871.981,2683.3289,
869.071,2686.6706,
866.160,2701.0492,
863.250,2733.4601,
860.339,2758.3239,
857.428,2737.8669,
854.518,2644.2369,
851.607,2678.3518,
848.697,2645.0444,
845.786,2625.1741,
842.875,2649.8157,
839.965,2695.1188,
837.054,2676.464,
834.144,2695.5253,
831.233,2665.9191,
828.323,2635.402,
825.412,2622.8598,
822.501,2625.5053,
819.591,2621.3733,
816.680,2580.3845,
813.770,2545.1899,
810.859,2509.4929,
807.949,2491.1403,
805.038,2510.2456,
802.127,2518.4769,
799.217,2502.106,
796.306,2496.8176,
793.396,2483.2346,
790.485,2466.7251,
787.574,2487.3434,
784.664,2489.8037,
781.753,2510.3795,
778.843,2519.7599,
775.932,2521.1018,
773.022,2527.9127,
770.111,2545.0819,
767.200,2537.1143,
764.290,2515.18,
761.379,2487.8585,
758.469,2466.2037,
755.558,2462.4445,
752.648,2468.9613,
749.737,2460.4582,
746.826,2410.0266,
743.916,2327.256,
741.005,2229.6426,
738.095,2073.7623,
735.184,1868.6194,
732.274,1846.3138,
729.363,1978.6525,
726.452,2181.6017,
723.542,2371.8092,
720.631,2379.1918,
717.721,2412.0479,
714.810,2446.0056,
711.899,2456.4876,
708.989,2440.3491,
706.078,2430.6344,
703.168,2436.7511,
700.257,2429.8728,
697.347,2405.0768,
694.436,2379.3373,
691.525,2382.5525,
688.615,2388.2813,
685.704,2387.7965,
682.794,2372.2501,
679.883,2338.8451,
676.973,2396.5438,
674.062,2370.6032,
671.151,2383.8781,
668.241,2422.0555,
665.330,2401.418,
662.420,2383.8459,
659.509,2392.9486,
656.598,2395.9225,
653.688,2401.5221,
650.777,2438.3319,
647.867,2411.2568,
644.956,2431.8735,
642.046,2449.4938,
639.135,2448.5251,
636.224,2438.2182,
633.314,2431.8667,
630.403,2437.3445,
627.493,2456.8448,
624.582,2489.6083,
621.672,2531.584,
618.761,2513.4916,
615.850,2494.0263,
612.940,2500.6683,
610.029,2533.5924,
607.119,2529.6442,
604.208,2464.6388,
601.297,2477.1344,
598.387,2521.696,
595.476,2530.199,
592.566,2476.6784,
589.655,2508.715,
586.745,2508.6836,
583.834,2465.1966,
580.923,2415.0889,
578.013,2388.4079,
575.102,2391.001,
572.192,2413.2559,
569.281,2450.2326,
566.371,2505.7989,
563.460,2503.4898,
560.549,2496.839,
557.639,2490.2958,
554.728,2485.7483,
551.818,2541.1507,
548.907,2559.9535,
545.996,2561.1397,
543.086,2563.1283,
540.175,2595.0527,
537.265,2590.0072,
534.354,2595.2771,
531.444,2615.7896,
528.533,2648.3052,
525.622,2649.0811,
522.712,2645.6095,
519.801,2666.9266,
516.891,2715.1098,
513.980,2763.8905,
511.070,2745.7109,
508.159,2764.4264,
505.248,2814.5279,
502.338,2872.5663,
499.427,2883.3719,
496.517,2912.8358,
493.606,2941.6623,
490.695,2958.8919,
487.785,2963.5107,
484.874,3010.7781,
481.964,3019.6389,
479.053,2979.7028,
476.143,2910.5861,
473.232,2918.4799,
470.321,2931.0352,
467.411,2939.25,
464.500,2939.153,
461.590,2935.3243,
458.679,2944.1553,
455.769,2931.7708,
452.858,2895.0444,
449.947,2969.9097,
447.037,2986.4635,
444.126,2978.3773,
441.216,2965.6312,
438.305,2979.346,
435.395,3013.3762,
432.484,2999.4103,
429.573,2961.5751,
426.663,2984.3793,
423.752,2972.999,
420.842,2949.4392,
417.931,2919.2003,
415.020,2887.3493,
412.110,2997.4552,
409.199,3054.3869,
406.289,3074.9397,
403.378,3086.2423,
400.468,3083.9743,
397.557,3044.6888,
394.646,2997.4762,
391.736,2968.1293,
388.825,2964.3581,
385.915,2942.4944,
383.004,2919.6813,
380.094,2914.2771,
377.183,3032.4159,
374.272,3115.7286,
371.362,3179.1472,
368.451,3229.0676,
365.541,3226.0655,
362.630,3283.1515,
359.719,3328.8823,
356.809,3322.8422,
353.898,3316.103,
350.988,3337.5769,
348.077,3334.8885,
345.167,3281.5366,
342.256,3306.9369,
339.345,3339.7588,
336.435,3373.3537,
333.524,3401.2165,
330.614,3368.4297,
327.703,3391.6213,
324.793,3421.7033,
321.882,3417.3329,
318.971,3451.5313,
316.061,3495.4787,
313.150,3523.0143,
310.240,3502.9772,
307.329,3527.2623,
304.418,3555.4881,
301.508,3563.6623,
298.597,3512.5735,
295.687,3499.4459,
292.776,3557.3337,
289.866,3678.0348,
286.955,3838.3383,
284.044,4016.2123,
281.134,4178.4561,
278.223,4323.7762,
275.313,4477.779,
272.402,4530.0007,
269.492,4610.1554,
266.581,4757.8204,
263.670,4835.7495,
260.760,4891.1601,
257.849,4956.6646,
254.939,5057.9404,
252.028,5151.9021,
249.117,5120.0964,
246.207,5048.7735,
243.296,5081.7151,
240.386,5068.9252,
237.475,5051.0295,
234.565,5021.9858,
231.654,4931.4182,
228.743,4861.0422,
225.833,4790.0163,
222.922,4711.2943,
220.012,4647.91,
217.101,4571.3084,
214.191,4527.675,
211.280,4575.6875,
208.369,4533.4987,
205.459,4436.5902,
202.548,4340.2946,
199.638,4433.1777,
196.727,4393.476,
193.816,4386.9748,
190.906,4470.9295,
187.995,4433.2802,
185.085,4413.1572,
182.174,4407.2088,
179.264,4414.4365,
176.353,4511.3668,
173.442,4552.923,
170.532,4523.1013,
167.621,4453.1667,
164.711,4395.358,
161.800,4298.5631,
158.890,4117.9115,
155.979,3887.4034,
153.068,3586.6755,
150.158,3219.3508,
147.247,2784.9897,
144.337,2293.999,
141.426,1807.5401,
138.516,1354.4649,
135.605,962.0055,
132.694,662.8148,
129.784,440.49811,
126.873,272.4426,
123.963,191.01718,
121.052,141.36883,
118.141,106.38763,
115.231,76.406045,
112.320,60.860913,
109.410,54.886447,
106.499,47.764895,
103.589,40.647455,
100.678,34.348648,
97.767,29.372085,
94.857,27.864022,
91.946,27.25,
89.036,27.024204,
86.125,25.605794,
83.215,23.657239,
80.304,22.010567,
77.393,21.302397,
74.483,20.594865,
71.572,19.887648,
68.662,18.903663,
65.751,15.371407,
62.840,20.512126,
59.930,24.627993,
57.019,14.756845,
54.109,7.8755524,
51.198,6.9644835,
48.288,13.306624,
45.377,20.340405,
42.466,22.013342,
39.556,19.44417,
36.645,14.528838,
33.735,17.403988,
30.824,19.482904,
27.914,13.873502,
25.003,18.2311,
22.092,19.312573,
19.182,16.165315,
16.271,44.14492,
13.361,178.31573,
10.450,425.8541,
7.539,882.55235,
4.629,1151.5006,
1.718,1141.9366,
-1.192,651.844,
-4.103,318.83708,
-7.013,101.07882,
-9.924,2.25,
