,PL0BCA~1,
Wavenumbers [1/cm],Intensity,
3014.167,1.75,
3011.256,-0.84991411,
3008.346,348.06989,
3005.435,417.86661,
3002.525,434.84508,
2999.614,459.03701,
2996.704,455.38711,
2993.793,469.85542,
2990.882,488.70418,
2987.972,490.93162,
2985.061,531.1835,
2982.151,533.22731,
2979.240,552.85077,
2976.329,559.26911,
2973.419,582.96515,
2970.508,607.54992,
2967.598,604.99257,
2964.687,625.92935,
2961.777,626.27996,
2958.866,660.08581,
2955.955,680.27431,
2953.045,690.96926,
2950.134,709.14358,
2947.224,725.94569,
2944.313,760.00855,
2941.403,766.52418,
2938.492,767.18632,
2935.581,771.45429,
2932.671,768.79294,
2929.760,794.97694,
2926.850,797.16805,
2923.939,802.91358,
2921.028,786.12642,
2918.118,823.63162,
2915.207,841.45892,
2912.297,832.80078,
2909.386,828.96168,
2906.476,825.68821,
2903.565,830.40999,
2900.654,846.24445,
2897.744,833.56142,
2894.833,834.83218,
2891.923,837.47749,
2889.012,826.62861,
2886.102,792.40002,
2883.191,751.77454,
2880.280,702.54421,
2877.370,529.26187,
2874.459,491.03317,
2871.549,617.59336,
2868.638,820.80763,
2865.727,810.77692,
2862.817,852.09489,
2859.906,844.94087,
2856.996,881.69566,
2854.085,879.66594,
2851.175,881.91568,
2848.264,894.73066,
2845.353,889.14612,
2842.443,874.12841,
2839.532,893.52611,
2836.622,904.05339,
2833.711,904.69819,
2830.801,904.64926,
2827.890,917.18882,
2824.979,923.108,
2822.069,919.90921,
2819.158,934.13005,
2816.248,940.72684,
2813.337,928.20366,
2810.427,935.57369,
2807.516,955.74265,
2804.605,940.40626,
2801.695,943.96051,
2798.784,973.94092,
2795.874,944.33049,
2792.963,931.89277,
2790.052,915.753,
2787.142,930.94742,
2784.231,923.2671,
2781.321,922.12716,
2778.410,926.0901,
2775.500,936.00379,
2772.589,929.94494,
2769.678,957.6818,
2766.768,951.86652,
2763.857,967.59393,
2760.947,971.68065,
2758.036,982.77561,
2755.126,968.50428,
2752.215,990.8773,
2749.304,992.75,
2746.394,985.11493,
2743.483,992.64996,
2740.573,990.10394,
2737.662,995.64349,
2734.751,1006.5654,
2731.841,1007.3983,
2728.930,980.16084,
2726.020,1000.7448,
2723.109,1001.1829,
2720.199,1017.3969,
2717.288,1038.2391,
2714.377,1022.4005,
2711.467,1043.2093,
2708.556,1046.9942,
2705.646,1070.5106,
2702.735,1058.7397,
2699.825,1058.0428,
2696.914,1065.3214,
2694.003,1038.2183,
2691.093,1060.8571,
2688.182,1065.8596,
2685.272,1072.9093,
2682.361,1077.1146,
2679.450,1070.8406,
2676.540,1079.9329,
2673.629,1089.4137,
2670.719,1097.1733,
2667.808,1108.3609,
2664.898,1087.2305,
2661.987,1095.3835,
2659.076,1103.6228,
2656.166,1106.3474,
2653.255,1123.8571,
2650.345,1123.7736,
2647.434,1141.1498,
2644.524,1138.2248,
2641.613,1143.0643,
2638.702,1166.3713,
2635.792,1146.1239,
2632.881,1159.9463,
2629.971,1140.1928,
2627.060,1131.5797,
2624.149,1165.8031,
2621.239,1156.7204,
2618.328,1140.1739,
2615.418,1151.7409,
2612.507,1170.6432,
2609.597,1207.9037,
2606.686,1175.5934,
2603.775,1199.2698,
2600.865,1193.3984,
2597.954,1203.4208,
2595.044,1221.3753,
2592.133,1236.2532,
2589.223,1235.2921,
2586.312,1253.6244,
2583.401,1235.4836,
2580.491,1235.0385,
2577.580,1256.7583,
2574.670,1258.9826,
2571.759,1248.9974,
2568.848,1259.0981,
2565.938,1267.7975,
2563.027,1262.3819,
2560.117,1247.1893,
2557.206,1256.4622,
2554.296,1289.5784,
2551.385,1289.626,
2548.474,1299.8983,
2545.564,1291.1615,
2542.653,1304.5285,
2539.743,1313.75,
2536.832,1307.7089,
2533.922,1331.955,
2531.011,1344.2,
2528.100,1332.621,
2525.190,1305.5668,
2522.279,1311.1872,
2519.369,1306.0892,
2516.458,1330.7571,
2513.548,1333.0864,
2510.637,1353.7826,
2507.726,1329.6831,
2504.816,1328.6857,
2501.905,1325.8659,
2498.995,1351.1973,
2496.084,1333.8023,
2493.173,1362.4609,
2490.263,1383.9184,
2487.352,1406.4579,
2484.442,1400.6044,
2481.531,1413.8084,
2478.621,1414.5367,
2475.710,1435.589,
2472.799,1413.0236,
2469.889,1406.7805,
2466.978,1420.9045,
2464.068,1397.0621,
2461.157,1422.7924,
2458.247,1435.0588,
2455.336,1436.0044,
2452.425,1432.6179,
2449.515,1451.1845,
2446.604,1469.0519,
2443.694,1460.8199,
2440.783,1471.8468,
2437.872,1475.5158,
2434.962,1501.0034,
2432.051,1514.7747,
2429.141,1497.3796,
2426.230,1501.0329,
2423.320,1512.2786,
2420.409,1518.0704,
2417.498,1529.9551,
2414.588,1538.5598,
2411.677,1521.2879,
2408.767,1538.5325,
2405.856,1536.9001,
2402.946,1562.0306,
2400.035,1550.8791,
2397.124,1557.3115,
2394.214,1567.9136,
2391.303,1570.5678,
2388.393,1540.1011,
2385.482,1514.5872,
2382.571,1540.7756,
2379.661,1542.2847,
2376.750,1591.8483,
2373.840,1625.5156,
2370.929,1645.5659,
2368.019,1626.3866,
2365.108,1636.7081,
2362.197,1634.9475,
2359.287,1662.355,
2356.376,1654.7623,
2353.466,1646.9932,
2350.555,1637.3301,
2347.645,1646.8546,
2344.734,1691.151,
2341.823,1671.2641,
2338.913,1701.0127,
2336.002,1721.8624,
2333.092,1719.8075,
2330.181,1726.5582,
2327.270,1728.805,
2324.360,1737.3632,
2321.449,1755.5051,
2318.539,1755.9182,
2315.628,1763.0682,
2312.718,1755.0848,
2309.807,1747.2529,
2306.896,1760.9472,
2303.986,1761.6333,
2301.075,1783.1968,
2298.165,1776.5576,
2295.254,1758.1378,
2292.344,1789.0198,
2289.433,1768.7886,
2286.522,1783.8839,
2283.612,1804.6212,
2280.701,1810.0191,
2277.791,1818.5515,
2274.880,1843.0999,
2271.969,1872.034,
2269.059,1859.938,
2266.148,1865.0138,
2263.238,1875.6496,
2260.327,1879.2674,
2257.417,1899.0383,
2254.506,1900.7956,
2251.595,1919.3099,
2248.685,1945.6903,
2245.774,1908.498,
2242.864,1895.4358,
2239.953,1915.6535,
2237.043,1925.5182,
2234.132,1959.9968,
2231.221,1952.7758,
2228.311,1956.8389,
2225.400,1972.0447,
2222.490,2012.4795,
2219.579,2004.349,
2216.669,2043.6594,
2213.758,2082.3187,
2210.847,2044.3873,
2207.937,2052.8949,
2205.026,2075.4162,
2202.116,2090.061,
2199.205,2113.1361,
2196.294,2153.114,
2193.384,2168.434,
2190.473,2184.4777,
2187.563,2235.982,
2184.652,2287.6659,
2181.742,2328.0705,
2178.831,2387.1392,
2175.920,2455.7118,
2173.010,2561.8056,
2170.099,2706.6032,
2167.189,2866.7187,
2164.278,3023.7872,
2161.368,3211.1721,
2158.457,3373.9803,
2155.546,3541.0012,
2152.636,3764.0848,
2149.725,3948.4076,
2146.815,4088.8125,
2143.904,4291.3931,
2140.993,4405.5277,
2138.083,4465.4702,
2135.172,4539.5317,
2132.262,4570.757,
2129.351,4502.0082,
2126.441,4397.4682,
2123.530,4219.3133,
2120.619,4066.6043,
2117.709,3845.0024,
2114.798,3595.9567,
2111.888,3359.3543,
2108.977,3152.5844,
2106.067,2969.4431,
2103.156,2811.2126,
2100.245,2710.703,
2097.335,2617.928,
2094.424,2475.5432,
2091.514,2414.2256,
2088.603,2355.2386,
2085.692,2332.9768,
2082.782,2321.8545,
2079.871,2289.82,
2076.961,2314.6189,
2074.050,2281.5379,
2071.140,2260.9681,
2068.229,2265.5039,
2065.318,2237.7258,
2062.408,2248.2122,
2059.497,2233.3154,
2056.587,2235.9358,
2053.676,2196.0195,
2050.766,2172.8277,
2047.855,2146.3196,
2044.944,2166.016,
2042.034,2178.4149,
2039.123,2214.4503,
2036.213,2195.1966,
2033.302,2172.7282,
2030.391,2172.5976,
2027.481,2152.6404,
2024.570,2178.7777,
2021.660,2219.5622,
2018.749,2208.2941,
2015.839,2197.2881,
2012.928,2200.9799,
2010.017,2204.6718,
2007.107,2217.8678,
2004.196,2221.6071,
2001.286,2221.7924,
1998.375,2189.5649,
1995.465,2186.3357,
1992.554,2180.1089,
1989.643,2197.0933,
1986.733,2234.5561,
1983.822,2191.8002,
1980.912,2161.1455,
1978.001,2126.5218,
1975.090,2123.6584,
1972.180,2162.6463,
1969.269,2173.6753,
1966.359,2171.3175,
1963.448,2150.6787,
1960.538,2172.3413,
1957.627,2153.784,
1954.716,2150.75,
1951.806,2159.9745,
1948.895,2094.8916,
1945.985,2137.214,
1943.074,2115.3957,
1940.164,2117.6345,
1937.253,2093.1285,
1934.342,2092.3741,
1931.432,2103.2863,
1928.521,2137.1162,
1925.611,2103.4129,
1922.700,2051.0925,
1919.790,2054.8077,
1916.879,2106.9835,
1913.968,2060.8115,
1911.058,2122.3326,
1908.147,2058.5034,
1905.237,2127.0587,
1902.326,2061.9485,
1899.415,2034.9244,
1896.505,2026.0634,
1893.594,2054.9269,
1890.684,2070.946,
1887.773,2088.879,
1884.863,2083.0803,
1881.952,2102.6497,
1879.041,2107.1851,
1876.131,2095.7918,
1873.220,2044.9356,
1870.310,2065.5975,
1867.399,2104.1582,
1864.489,2132.1269,
1861.578,2113.2008,
1858.667,2089.7529,
1855.757,2143.5865,
1852.846,2117.073,
1849.936,2143.728,
1847.025,2126.5067,
1844.114,2159.1288,
1841.204,2163.6731,
1838.293,2177.7467,
1835.383,2181.936,
1832.472,2151.7257,
1829.562,2162.3289,
1826.651,2178.6987,
1823.740,2204.6849,
1820.830,2203.9468,
1817.919,2197.4925,
1815.009,2226.7182,
1812.098,2247.9075,
1809.188,2266.6337,
1806.277,2237.4361,
1803.366,2249.2158,
1800.456,2276.5851,
1797.545,2271.5373,
1794.635,2254.7811,
1791.724,2289.9053,
1788.813,2287.5395,
1785.903,2248.1842,
1782.992,2213.8737,
1780.082,2148.0212,
1777.171,2064.4101,
1774.261,2077.3458,
1771.350,2180.742,
1768.439,2282.5859,
1765.529,2324.474,
1762.618,2326.94,
1759.708,2344.0869,
1756.797,2366.8712,
1753.887,2385.4162,
1750.976,2353.805,
1748.065,2394.1217,
1745.155,2419.2533,
1742.244,2384.2781,
1739.334,2421.1029,
1736.423,2465.2397,
1733.512,2479.5712,
1730.602,2481.002,
1727.691,2524.5067,
1724.781,2546.4023,
1721.870,2543.9214,
1718.960,2537.8166,
1716.049,2538.4279,
1713.138,2627.6696,
1710.228,2591.4025,
1707.317,2610.2871,
1704.407,2629.9211,
1701.496,2639.9539,
1698.586,2693.4171,
1695.675,2724.8855,
1692.764,2758.9385,
1689.854,2706.2185,
1686.943,2708.5814,
1684.033,2827.72,
1681.122,2816.0049,
1678.211,2868.2456,
1675.301,2865.7593,
1672.390,3000.8008,
1669.480,3017.7901,
1666.569,3024.0323,
1663.659,3124.485,
1660.748,3170.3504,
1657.837,3252.253,
1654.927,3276.4135,
1652.016,3346.6977,
1649.106,3386.4147,
1646.195,3456.1307,
1643.285,3595.5046,
1640.374,3672.4016,
1637.463,3753.8033,
1634.553,3976.6563,
1631.642,4106.0193,
1628.732,4313.704,
1625.821,4473.9594,
1622.911,4791.9468,
1620.000,5133.416,
1617.089,5473.9241,
1614.179,5784.9231,
1611.268,6149.0314,
1608.358,6533.5358,
1605.447,6707.3227,
1602.536,6846.2823,
1599.626,6897.147,
1596.715,6892.5816,
1593.805,6818.4148,
1590.894,6780.6879,
1587.984,6746.4368,
1585.073,6586.0505,
1582.162,6510.3266,
1579.252,6437.7408,
1576.341,6394.9117,
1573.431,6370.5202,
1570.520,6368.8075,
1567.610,6300.4548,
1564.699,6243.3986,
1561.788,6110.3286,
1558.878,6032.4395,
1555.967,5943.7736,
1553.057,5826.2853,
1550.146,5676.663,
1547.235,5557.6206,
1544.325,5458.5415,
1541.414,5370.7858,
1538.504,5287.425,
1535.593,5195.9539,
1532.683,5094.5415,
1529.772,5005.3066,
1526.861,4979.3942,
1523.951,4975.0957,
1521.040,4927.168,
1518.130,4891.6702,
1515.219,4882.9116,
1512.309,4807.9211,
1509.398,4732.0602,
1506.487,4653.7899,
1503.577,4607.4274,
1500.666,4593.0345,
1497.756,4538.6058,
1494.845,4517.2659,
1491.934,4337.8067,
1489.024,4355.1316,
1486.113,4329.788,
1483.203,4228.2752,
1480.292,4158.0512,
1477.382,4112.1871,
1474.471,4003.9907,
1471.560,3941.095,
1468.650,3878.1877,
1465.739,3897.0223,
1462.829,3868.8269,
1459.918,3798.3906,
1457.008,3790.058,
1454.097,3807.4392,
1451.186,3824.2955,
1448.276,3848.7982,
1445.365,3851.1442,
1442.455,3847.6176,
1439.544,3810.4349,
1436.633,3861.0708,
1433.723,3869.3973,
1430.812,3813.317,
1427.902,3758.2461,
1424.991,3779.0969,
1422.081,3884.3424,
1419.170,3869.5563,
1416.259,3882.7613,
1413.349,3883.729,
1410.438,3919.1385,
1407.528,3910.9316,
1404.617,3814.9649,
1401.707,3788.5464,
1398.796,3814.3899,
1395.885,3815.4705,
1392.975,3809.4162,
1390.064,3783.4524,
1387.154,3759.5343,
1384.243,3732.2345,
1381.332,3782.0659,
1378.422,3823.0297,
1375.511,3944.8112,
1372.601,4031.5345,
1369.690,4128.7584,
1366.780,4224.5376,
1363.869,4296.6034,
1360.958,4420.0642,
1358.048,4482.0564,
1355.137,4559.243,
1352.227,4672.7045,
1349.316,4787.519,
1346.406,4885.3714,
1343.495,4929.1612,
1340.584,5016.6421,
1337.674,5073.5037,
1334.763,5134.0195,
1331.853,5246.2145,
1328.942,5280.1023,
1326.032,5398.7525,
1323.121,5498.1055,
1320.210,5603.6605,
1317.300,5713.3974,
1314.389,5833.6959,
1311.479,5953.7399,
1308.568,6085.7636,
1305.657,6240.2412,
1302.747,6371.9092,
1299.836,6528.5488,
1296.926,6722.5777,
1294.015,6934.0221,
1291.105,7089.8005,
1288.194,7318.2219,
1285.283,7576.2429,
1282.373,7685.5936,
1279.462,7824.179,
1276.552,7981.892,
1273.641,8106.589,
1270.731,8202.456,
1267.820,8188.8702,
1264.909,8140.1127,
1261.999,8142.4837,
1259.088,8135.1867,
1256.178,7962.6023,
1253.267,7773.4061,
1250.356,7542.5687,
1247.446,7283.8389,
1244.535,7005.6656,
1241.625,6727.0614,
1238.714,6459.2755,
1235.804,6218.7066,
1232.893,6072.277,
1229.982,5945.4877,
1227.072,5819.6493,
1224.161,5694.7605,
1221.251,5605.7442,
1218.340,5488.8173,
1215.430,5411.8748,
1212.519,5368.5648,
1209.608,5303.1231,
1206.698,5243.9843,
1203.787,5280.0214,
1200.877,5300.3132,
1197.966,5341.6745,
1195.055,5430.7814,
1192.145,5613.2996,
1189.234,5797.2109,
1186.324,5921.3007,
1183.413,5982.2069,
1180.503,5996.6912,
1177.592,5967.2344,
1174.681,5900.976,
1171.771,5888.1318,
1168.860,5861.3392,
1165.950,5866.0066,
1163.039,5823.0522,
1160.129,5813.7775,
1157.218,5779.8874,
1154.307,5720.538,
1151.397,5673.3743,
1148.486,5615.2976,
1145.576,5629.5573,
1142.665,5625.1177,
1139.754,5510.0283,
1136.844,5478.1476,
1133.933,5443.4922,
1131.023,5388.6475,
1128.112,5352.75,
1125.202,5358.064,
1122.291,5363.4696,
1119.380,5285.2697,
1116.470,5338.2214,
1113.559,5306.0875,
1110.649,5288.8564,
1107.738,5251.9935,
1104.828,5206.5221,
1101.917,5186.4128,
1099.006,5188.8944,
1096.096,5171.6101,
1093.185,5185.6581,
1090.275,5245.0175,
1087.364,5288.2533,
1084.453,5373.7454,
1081.543,5455.1668,
1078.632,5489.0036,
1075.722,5498.7082,
1072.811,5526.8264,
1069.901,5499.7553,
1066.990,5446.8251,
1064.079,5383.7115,
1061.169,5366.9299,
1058.258,5370.6326,
1055.348,5394.5002,
1052.437,5454.3223,
1049.527,5432.2535,
1046.616,5445.2859,
1043.705,5506.0989,
1040.795,5511.6184,
1037.884,5513.8533,
1034.974,5536.9021,
1032.063,5543.5814,
1029.153,5501.7328,
1026.242,5609.8523,
1023.331,5612.0834,
1020.421,5655.6674,
1017.510,5711.7282,
1014.600,5766.1258,
1011.689,5813.5782,
1008.778,5863.0501,
1005.868,5965.0859,
1002.957,6113.9272,
1000.047,6341.3181,
997.136,6584.5505,
994.226,6696.3962,
991.315,6693.4035,
988.404,6697.8589,
985.494,6676.7143,
982.583,6630.4602,
979.673,6671.307,
976.762,6705.776,
973.852,6720.8441,
970.941,6733.9378,
968.030,6761.7617,
965.120,6795.5459,
962.209,6746.951,
959.299,6742.9995,
956.388,6713.392,
953.477,6715.8778,
950.567,6756.3185,
947.656,6766.6548,
944.746,6811.6812,
941.835,6799.1734,
938.925,6777.9826,
936.014,6784.9364,
933.103,6763.322,
930.193,6684.7622,
927.282,6640.1671,
924.372,6555.6065,
921.461,6481.4196,
918.551,6348.3727,
915.640,6264.9255,
912.729,6192.9293,
909.819,6011.306,
906.908,6015.5181,
903.998,6071.4255,
901.087,6088.9325,
898.176,6116.9957,
895.266,6160.6678,
892.355,6209.0842,
889.445,6296.368,
886.534,6354.3562,
883.624,6382.5708,
880.713,6477.5105,
877.802,6521.1474,
874.892,6393.8022,
871.981,6154.9228,
869.071,5992.8527,
866.160,6073.0737,
863.250,6219.7759,
860.339,6322.711,
857.428,6337.8019,
854.518,6291.8985,
851.607,6158.7674,
848.697,6010.5673,
845.786,5952.7121,
842.875,6012.5714,
839.965,6152.1537,
837.054,6272.7314,
834.144,6271.0739,
831.233,6192.7556,
828.323,6138.9128,
825.412,6114.735,
822.501,6074.4516,
819.591,5956.2765,
816.680,5823.7434,
813.770,5749.1478,
810.859,5695.7731,
807.949,5669.7427,
805.038,5683.2832,
802.127,5621.5486,
799.217,5581.462,
796.306,5527.1821,
793.396,5499.8111,
790.485,5522.7012,
787.574,5579.9955,
784.664,5612.8,
781.753,5648.9443,
778.843,5705.407,
775.932,5762.9473,
773.022,5795.0036,
770.111,5796.6388,
767.200,5708.4378,
764.290,5664.5694,
761.379,5651.5684,
758.469,5640.9608,
755.558,5605.3673,
752.648,5525.5362,
749.737,5516.2779,
746.826,5484.3172,
743.916,5426.9965,
741.005,5361.2823,
738.095,5162.3725,
735.184,5086.5506,
732.274,5046.2918,
729.363,5108.7728,
726.452,5288.969,
723.542,5411.9968,
720.631,5491.3812,
717.721,5554.9949,
714.810,5581.5625,
711.899,5587.5421,
708.989,5642.413,
706.078,5579.4471,
703.168,5567.3933,
700.257,5538.8071,
697.347,5499.9668,
694.436,5518.0953,
691.525,5493.9812,
688.615,5512.0197,
685.704,5534.3839,
682.794,5556.5158,
679.883,5589.9478,
676.973,5549.8793,
674.062,5571.7399,
671.151,5564.6418,
668.241,5541.1357,
665.330,5561.9894,
662.420,5503.682,
659.509,5466.3528,
656.598,5512.7677,
653.688,5607.7028,
650.777,5658.4521,
647.867,5679.1566,
644.956,5611.9286,
642.046,5539.5573,
639.135,5489.4792,
636.224,5451.1598,
633.314,5532.9355,
630.403,5516.5037,
627.493,5509.1856,
624.582,5516.1489,
621.672,5414.7736,
618.761,5401.6307,
615.850,5473.6843,
612.940,5534.0669,
610.029,5523.6749,
607.119,5469.1904,
604.208,5505.6408,
601.297,5518.7619,
598.387,5509.5906,
595.476,5496.0815,
592.566,5488.9979,
589.655,5444.9893,
586.745,5405.6932,
583.834,5379.48,
580.923,5360.8495,
578.013,5377.3289,
575.102,5409.8558,
572.192,5443.255,
569.281,5463.3598,
566.371,5450.0552,
563.460,5436.0516,
560.549,5472.1687,
557.639,5523.0012,
554.728,5545.7556,
551.818,5593.3548,
548.907,5648.2372,
545.996,5669.363,
543.086,5661.6085,
540.175,5679.5174,
537.265,5656.8488,
534.354,5696.414,
531.444,5738.3409,
528.533,5721.6948,
525.622,5720.9189,
522.712,5806.3022,
519.801,5901.8474,
516.891,5979.1139,
513.980,6040.2833,
511.070,6064.7674,
508.159,6156.3241,
505.248,6269.0308,
502.338,6337.2232,
499.427,6490.0459,
496.517,6556.7702,
493.606,6627.2238,
490.695,6733.1691,
487.785,6779.3565,
484.874,6774.4717,
481.964,6758.1986,
479.053,6744.5661,
476.143,6743.7982,
473.232,6702.744,
470.321,6710.5922,
467.411,6737.7761,
464.500,6745.7475,
461.590,6824.6188,
458.679,6869.8624,
455.769,6923.092,
452.858,6999.6588,
449.947,7017.9932,
447.037,7123.6858,
444.126,7244.4651,
441.216,7340.7926,
438.305,7358.3171,
435.395,7305.6765,
432.484,7351.7654,
429.573,7443.2598,
426.663,7385.4892,
423.752,7187.5649,
420.842,6927.9259,
417.931,6741.8052,
415.020,6822.9495,
412.110,7347.3902,
409.199,7672.7352,
406.289,7784.4624,
403.378,7697.4324,
400.468,7603.6891,
397.557,7701.2591,
394.646,7843.567,
391.736,7904.4401,
388.825,7957.2363,
385.915,7963.7027,
383.004,7960.3187,
380.094,7977.4316,
377.183,8088.7981,
374.272,8172.9425,
371.362,8234.2323,
368.451,8273.9324,
365.541,8276.9345,
362.630,8298.5071,
359.719,8311.9024,
356.809,8305.6045,
353.898,8352.7788,
350.988,8366.2925,
348.077,8363.5555,
345.167,8354.1607,
342.256,8322.7838,
339.345,8339.2588,
336.435,8378.9607,
333.524,8424.6191,
330.614,8452.1898,
327.703,8494.1213,
324.793,8526.7812,
321.882,8529.9339,
318.971,8605.765,
316.061,8638.5864,
313.150,8696.7904,
310.240,8860.798,
307.329,8988.9529,
304.418,9025.8952,
301.508,8991.6638,
298.597,8916.1413,
295.687,8911.1045,
292.776,8960.0836,
289.866,9046.2772,
286.955,9134.1855,
284.044,9216.9574,
281.134,9303.2954,
278.223,9387.5402,
275.313,9433.9621,
272.402,9507.6494,
269.492,9540.1253,
266.581,9513.325,
263.670,9549.3488,
260.760,9637.0627,
257.849,9772.1634,
254.939,9956.368,
252.028,9969.6077,
249.117,9965.9839,
246.207,9968.1146,
243.296,10012.037,
240.386,10067.03,
237.475,10087.219,
234.565,10075.715,
231.654,10069.141,
228.743,10038.406,
225.833,10027.726,
222.922,10051.867,
220.012,10032.924,
217.101,10071.896,
214.191,10115.034,
211.280,10102.668,
208.369,10101.077,
205.459,10127.5,
202.548,10165.619,
199.638,10153.283,
196.727,10124.244,
193.816,10094.816,
190.906,10075.077,
187.995,10169.924,
185.085,10217.881,
182.174,10252.38,
179.264,10317.428,
176.353,10327.313,
173.442,10368.269,
170.532,10430.273,
167.621,10366.107,
164.711,10253.097,
161.800,10023.223,
158.890,9602.9026,
155.979,9107.56,
153.068,8479.0892,
150.158,7701.1557,
147.247,6686.6891,
144.337,5552.9132,
141.426,4406.4462,
138.516,3294.5478,
135.605,2352.2216,
132.694,1609.7785,
129.784,1054.7132,
126.873,710.7357,
123.963,479.13408,
121.052,318.22267,
118.141,221.13199,
115.231,186.64262,
112.320,156.2282,
109.410,127.88672,
106.499,97.264049,
103.589,92.430763,
100.678,91.033783,
97.767,83.924407,
94.857,76.82011,
91.946,71.331335,
89.036,66.395225,
86.125,57.884762,
83.215,48.317115,
80.304,43.426029,
77.393,48.383218,
74.483,46.12946,
71.572,43.300592,
68.662,40.542198,
65.751,38.422844,
62.840,33.896384,
59.930,32.372007,
57.019,42.243155,
54.109,30.0153,
51.198,23.162874,
48.288,28.733013,
45.377,26.622878,
42.466,25.337781,
39.556,24.174407,
36.645,20.663456,
33.735,21.826994,
30.824,22.424678,
27.914,18.217627,
25.003,25.844287,
22.092,26.875145,
19.182,18.681351,
16.271,16.582881,
13.361,30.079571,
10.450,48.307723,
7.539,39.927939,
4.629,0.5746018,
1.718,-20.779525,
-1.192,23.140581,
-4.103,-17.432881,
-7.013,-33.568993,
-9.924,-2.25,
