,PLFA52~1,
Raman shift [1/cm],Intensity,
3014.167,-0.375,
3011.256,0.27503221,
3008.346,268.33484,
3005.435,335.89355,
3002.525,347.68261,
2999.614,366.81332,
2996.704,380.1652,
2993.793,373.71198,
2990.882,397.54106,
2987.972,402.68049,
2985.061,415.3984,
2982.151,430.8351,
2979.240,443.79039,
2976.329,452.8791,
2973.419,502.82552,
2970.508,484.70832,
2967.598,494.05512,
2964.687,507.40081,
2961.777,527.12087,
2958.866,528.93854,
2955.955,564.73118,
2953.045,568.56014,
2950.134,587.08274,
2947.224,605.65347,
2944.313,612.01816,
2941.403,647.30429,
2938.492,628.4651,
2935.581,655.13536,
2932.671,652.66794,
2929.760,666.55577,
2926.850,667.52049,
2923.939,679.02218,
2921.028,685.54262,
2918.118,697.64389,
2915.207,688.03639,
2912.297,720.48537,
2909.386,734.23084,
2906.476,718.88907,
2903.565,717.52871,
2900.654,715.13055,
2897.744,718.3987,
2894.833,715.05772,
2891.923,715.35249,
2889.012,703.71748,
2886.102,679.66553,
2883.191,697.61178,
2880.280,688.13217,
2877.370,649.01463,
2874.459,639.31701,
2871.549,686.4673,
2868.638,728.21879,
2865.727,729.07498,
2862.817,715.76673,
2859.906,734.24607,
2856.996,745.66576,
2854.085,727.82246,
2851.175,752.66726,
2848.264,744.53216,
2845.353,715.8838,
2842.443,727.2257,
2839.532,715.75939,
2836.622,720.65885,
2833.711,720.27019,
2830.801,728.90515,
2827.890,726.9799,
2824.979,745.3909,
2822.069,715.80695,
2819.158,728.20451,
2816.248,729.34895,
2813.337,734.30548,
2810.427,741.05888,
2807.516,740.09984,
2804.605,733.48558,
2801.695,746.32237,
2798.784,727.25131,
2795.874,730.18435,
2792.963,725.55319,
2790.052,733.62135,
2787.142,733.04608,
2784.231,720.01322,
2781.321,700.44218,
2778.410,720.92448,
2775.500,732.625,
2772.589,737.625,
2769.678,743.19494,
2766.768,752.05995,
2763.857,737.62693,
2760.947,758.15337,
2758.036,747.3765,
2755.126,770.33654,
2752.215,766.45668,
2749.304,775.81563,
2746.394,798.16529,
2743.483,793.32506,
2740.573,797.5941,
2737.662,784.50814,
2734.751,782.29973,
2731.841,783.625,
2728.930,774.42157,
2726.020,793.41609,
2723.109,792.09942,
2720.199,804.17169,
2717.288,822.38047,
2714.377,814.625,
2711.467,812.44478,
2708.556,814.40142,
2705.646,822.31515,
2702.735,833.27447,
2699.825,817.60319,
2696.914,814.57727,
2694.003,824.39573,
2691.093,823.37471,
2688.182,838.53611,
2685.272,847.91661,
2682.361,820.96015,
2679.450,833.99535,
2676.540,831.66565,
2673.629,836.94337,
2670.719,829.49375,
2667.808,848.2632,
2664.898,835.96255,
2661.987,855.65859,
2659.076,845.54958,
2656.166,871.47791,
2653.255,856.28827,
2650.345,889.9299,
2647.434,870.71074,
2644.524,879.34686,
2641.613,886.82487,
2638.702,900.3725,
2635.792,865.71773,
2632.881,860.92283,
2629.971,873.43721,
2627.060,904.62313,
2624.149,919.625,
2621.239,906.8498,
2618.328,913.52293,
2615.418,897.91592,
2612.507,919.1072,
2609.597,897.01222,
2606.686,921.84588,
2603.775,927.26786,
2600.865,928.21542,
2597.954,947.72702,
2595.044,960.04395,
2592.133,949.1856,
2589.223,967.10712,
2586.312,971.50438,
2583.401,975.68703,
2580.491,981.96631,
2577.580,962.59694,
2574.670,947.56216,
2571.759,965.83732,
2568.848,963.45366,
2565.938,950.33917,
2563.027,980.89536,
2560.117,980.20438,
2557.206,999.97924,
2554.296,975.65475,
2551.385,983.69103,
2548.474,980.58782,
2545.564,1004.7386,
2542.653,1002.7727,
2539.743,1004.0326,
2536.832,1011.625,
2533.922,1006.2558,
2531.011,1043.4252,
2528.100,1031.2278,
2525.190,1056.4574,
2522.279,1044.2498,
2519.369,1036.3231,
2516.458,1032.8453,
2513.548,1052.4701,
2510.637,1040.3791,
2507.726,1039.4354,
2504.816,1046.7501,
2501.905,1047.625,
2498.995,1051.6695,
2496.084,1049.1965,
2493.173,1080.9409,
2490.263,1063.6815,
2487.352,1066.4581,
2484.442,1066.6121,
2481.531,1082.9441,
2478.621,1073.2695,
2475.710,1091.7477,
2472.799,1107.8716,
2469.889,1111.0488,
2466.978,1082.5944,
2464.068,1107.9743,
2461.157,1110.2824,
2458.247,1143.1105,
2455.336,1130.3529,
2452.425,1131.2382,
2449.515,1132.6063,
2446.604,1145.2655,
2443.694,1131.2055,
2440.783,1145.2027,
2437.872,1171.7863,
2434.962,1151.9891,
2432.051,1150.3347,
2429.141,1160.1306,
2426.230,1144.2548,
2423.320,1176.3254,
2420.409,1165.0544,
2417.498,1186.993,
2414.588,1188.0851,
2411.677,1175.2704,
2408.767,1196.1663,
2405.856,1212.2535,
2402.946,1210.4105,
2400.035,1209.3222,
2397.124,1197.3202,
2394.214,1218.3006,
2391.303,1232.6304,
2388.393,1243.3855,
2385.482,1220.6384,
2382.571,1208.0545,
2379.661,1237.4854,
2376.750,1249.3072,
2373.840,1243.0751,
2370.929,1259.4084,
2368.019,1274.0831,
2365.108,1273.159,
2362.197,1297.1538,
2359.287,1258.1286,
2356.376,1289.5475,
2353.466,1299.0805,
2350.555,1285.415,
2347.645,1288.4012,
2344.734,1317.9937,
2341.823,1312.8406,
2338.913,1328.3355,
2336.002,1323.838,
2333.092,1319.0731,
2330.181,1322.6071,
2327.270,1349.0298,
2324.360,1358.684,
2321.449,1353.5944,
2318.539,1344.9002,
2315.628,1349.9687,
2312.718,1349.5589,
2309.807,1368.4201,
2306.896,1367.6407,
2303.986,1377.1056,
2301.075,1376.0718,
2298.165,1363.0479,
2295.254,1353.7758,
2292.344,1389.2017,
2289.433,1393.93,
2286.522,1394.3258,
2283.612,1395.4145,
2280.701,1409.9344,
2277.791,1438.8254,
2274.880,1446.8349,
2271.969,1459.7855,
2269.059,1456.0392,
2266.148,1458.1909,
2263.238,1466.9223,
2260.327,1456.6599,
2257.417,1489.7967,
2254.506,1473.5253,
2251.595,1488.3377,
2248.685,1489.625,
2245.774,1519.3608,
2242.864,1485.9492,
2239.953,1497.4525,
2237.043,1507.3772,
2234.132,1512.5054,
2231.221,1529.3614,
2228.311,1523.2758,
2225.400,1536.3419,
2222.490,1595.8107,
2219.579,1589.7869,
2216.669,1585.5821,
2213.758,1610.2799,
2210.847,1671.0179,
2207.937,1652.928,
2205.026,1679.6259,
2202.116,1664.0156,
2199.205,1704.5363,
2196.294,1739.303,
2193.384,1756.8615,
2190.473,1776.0687,
2187.563,1800.0697,
2184.652,1897.047,
2181.742,1938.5582,
2178.831,2008.1544,
2175.920,2113.1697,
2173.010,2224.0309,
2170.099,2339.2818,
2167.189,2491.5363,
2164.278,2641.9828,
2161.368,2826.477,
2158.457,2984.0366,
2155.546,3139.5146,
2152.636,3305.1779,
2149.725,3448.3229,
2146.815,3540.1557,
2143.904,3595.2643,
2140.993,3703.4291,
2138.083,3724.8348,
2135.172,3680.1964,
2132.262,3622.1805,
2129.351,3594.8905,
2126.441,3505.5082,
2123.530,3302.323,
2120.619,3167.5341,
2117.709,2995.216,
2114.798,2797.255,
2111.888,2607.1161,
2108.977,2447.8832,
2106.067,2311.378,
2103.156,2203.4398,
2100.245,2136.5566,
2097.335,2022.0857,
2094.424,1966.546,
2091.514,1926.1331,
2088.603,1924.4361,
2085.692,1900.5321,
2082.782,1897.7455,
2079.871,1844.408,
2076.961,1853.2043,
2074.050,1836.7341,
2071.140,1799.4641,
2068.229,1806.5169,
2065.318,1815.7597,
2062.408,1791.2082,
2059.497,1776.6071,
2056.587,1786.9387,
2053.676,1759.3271,
2050.766,1754.3941,
2047.855,1755.3972,
2044.944,1752.6795,
2042.034,1772.3531,
2039.123,1730.9853,
2036.213,1737.605,
2033.302,1738.2772,
2030.391,1748.7941,
2027.481,1758.1128,
2024.570,1755.2537,
2021.660,1744.2754,
2018.749,1762.5368,
2015.839,1778.7648,
2012.928,1734.625,
2010.017,1742.0919,
2007.107,1763.9054,
2004.196,1772.625,
2001.286,1759.3317,
1998.375,1763.8465,
1995.465,1746.0268,
1992.554,1729.9839,
1989.643,1700.6273,
1986.733,1709.9294,
1983.822,1704.255,
1980.912,1744.1695,
1978.001,1739.8031,
1975.090,1733.2265,
1972.180,1717.6609,
1969.269,1713.513,
1966.359,1703.1653,
1963.448,1715.271,
1960.538,1718.7559,
1957.627,1711.3835,
1954.716,1718.3952,
1951.806,1688.165,
1948.895,1713.5441,
1945.985,1686.0335,
1943.074,1687.3446,
1940.164,1684.4903,
1937.253,1680.625,
1934.342,1668.5223,
1931.432,1674.5209,
1928.521,1656.454,
1925.611,1610.7941,
1922.700,1641.5711,
1919.790,1638.8448,
1916.879,1647.788,
1913.968,1654.6176,
1911.058,1661.2947,
1908.147,1659.1491,
1905.237,1678.8015,
1902.326,1670.0013,
1899.415,1627.0116,
1896.505,1654.402,
1893.594,1644.3506,
1890.684,1650.2067,
1887.773,1683.8139,
1884.863,1677.2856,
1881.952,1655.0451,
1879.041,1670.7808,
1876.131,1667.6668,
1873.220,1679.572,
1870.310,1640.782,
1867.399,1656.3211,
1864.489,1647.1577,
1861.578,1634.1306,
1858.667,1631.9483,
1855.757,1702.23,
1852.846,1686.3225,
1849.936,1667.4148,
1847.025,1712.9705,
1844.114,1725.3002,
1841.204,1704.9012,
1838.293,1708.6416,
1835.383,1709.0085,
1832.472,1722.3693,
1829.562,1724.9862,
1826.651,1736.933,
1823.740,1743.353,
1820.830,1738.995,
1817.919,1766.1282,
1815.009,1769.2001,
1812.098,1739.003,
1809.188,1817.2295,
1806.277,1746.3513,
1803.366,1797.0427,
1800.456,1763.9989,
1797.545,1787.0718,
1794.635,1786.5271,
1791.724,1822.1007,
1788.813,1829.0178,
1785.903,1817.8807,
1782.992,1854.3567,
1780.082,1845.4909,
1777.171,1820.6218,
1774.261,1827.2404,
1771.350,1872.289,
1768.439,1882.6876,
1765.529,1896.0843,
1762.618,1913.0975,
1759.708,1891.4728,
1756.797,1885.1629,
1753.887,1898.6002,
1750.976,1910.9836,
1748.065,1923.6849,
1745.155,1959.3667,
1742.244,1952.4502,
1739.334,1966.6438,
1736.423,1987.81,
1733.512,1961.7916,
1730.602,1982.7897,
1727.691,2014.3518,
1724.781,2004.1069,
1721.870,2027.7918,
1718.960,2087.2479,
1716.049,2086.0404,
1713.138,2053.7001,
1710.228,2080.826,
1707.317,2147.545,
1704.407,2096.3308,
1701.496,2128.8216,
1698.586,2144.6368,
1695.675,2213.9317,
1692.764,2164.6619,
1689.854,2181.7156,
1686.943,2250.2642,
1684.033,2300.408,
1681.122,2227.8994,
1678.211,2302.8922,
1675.301,2394.3444,
1672.390,2448.5622,
1669.480,2427.9539,
1666.569,2469.9708,
1663.659,2574.8537,
1660.748,2589.9554,
1657.837,2660.1181,
1654.927,2770.2661,
1652.016,2717.7315,
1649.106,2883.6532,
1646.195,2925.2963,
1643.285,2953.7188,
1640.374,3002.7574,
1637.463,3104.5165,
1634.553,3208.6742,
1631.642,3280.3948,
1628.732,3442.2472,
1625.821,3546.7487,
1622.911,3734.56,
1620.000,3925.206,
1617.089,4149.1275,
1614.179,4386.8568,
1611.268,4572.7099,
1608.358,4825.5446,
1605.447,4924.3686,
1602.536,5062.8849,
1599.626,5079.9845,
1596.715,5057.0274,
1593.805,5047.4703,
1590.894,5054.551,
1587.984,5032.2405,
1585.073,4995.4431,
1582.162,4947.8807,
1579.252,4878.2524,
1576.341,4830.1793,
1573.431,4883.4958,
1570.520,4856.2911,
1567.610,4812.8206,
1564.699,4752.5979,
1561.788,4714.6111,
1558.878,4644.4936,
1555.967,4564.0932,
1553.057,4457.8844,
1550.146,4370.2215,
1547.235,4289.315,
1544.325,4194.5063,
1541.414,4119.3017,
1538.504,4083.3766,
1535.593,4051.74,
1532.683,3984.4419,
1529.772,3904.7317,
1526.861,3855.7621,
1523.951,3813.9073,
1521.040,3744.9322,
1518.130,3678.7993,
1515.219,3617.5468,
1512.309,3555.8727,
1509.398,3553.1878,
1506.487,3538.8141,
1503.577,3523.4243,
1500.666,3486.2139,
1497.756,3517.2091,
1494.845,3447.3427,
1491.934,3344.5715,
1489.024,3328.2091,
1486.113,3322.0617,
1483.203,3323.4013,
1480.292,3323.625,
1477.382,3258.1569,
1474.471,3186.6063,
1471.560,3142.0497,
1468.650,3109.077,
1465.739,3112.0753,
1462.829,3128.5773,
1459.918,3099.8181,
1457.008,3077.7174,
1454.097,3085.0115,
1451.186,3067.9113,
1448.276,3075.9391,
1445.365,3129.4812,
1442.455,3112.8853,
1439.544,3085.0618,
1436.633,3049.1404,
1433.723,3077.023,
1430.812,3016.0151,
1427.902,2921.2789,
1424.991,2948.7641,
1422.081,2893.6589,
1419.170,2834.1892,
1416.259,2850.737,
1413.349,2833.2125,
1410.438,2850.8171,
1407.528,2844.244,
1404.617,2837.5606,
1401.707,2855.5232,
1398.796,2878.1215,
1395.885,2895.8928,
1392.975,2891.6868,
1390.064,2882.638,
1387.154,2927.1201,
1384.243,2911.1414,
1381.332,2902.4622,
1378.422,3010.8902,
1375.511,3112.9994,
1372.601,3153.331,
1369.690,3260.3489,
1366.780,3329.8993,
1363.869,3402.4696,
1360.958,3476.7821,
1358.048,3560.5829,
1355.137,3667.4382,
1352.227,3716.272,
1349.316,3742.452,
1346.406,3852.6059,
1343.495,3951.6215,
1340.584,3967.1241,
1337.674,4039.0971,
1334.763,4161.9538,
1331.853,4223.1511,
1328.942,4200.72,
1326.032,4307.7338,
1323.121,4374.86,
1320.210,4418.9255,
1317.300,4476.7119,
1314.389,4574.9736,
1311.479,4688.1198,
1308.568,4769.6621,
1305.657,4827.5064,
1302.747,4898.5323,
1299.836,4958.3869,
1296.926,5112.6071,
1294.015,5241.3124,
1291.105,5432.4193,
1288.194,5602.1975,
1285.283,5689.4612,
1282.373,5800.1169,
1279.462,5911.369,
1276.552,5995.3968,
1273.641,6043.0783,
1270.731,6070.0907,
1267.820,6107.3399,
1264.909,6091.3715,
1261.999,6037.0605,
1259.088,5994.1908,
1256.178,5896.5583,
1253.267,5833.8261,
1250.356,5671.9837,
1247.446,5447.9025,
1244.535,5286.6028,
1241.625,5141.3882,
1238.714,4992.3024,
1235.804,4919.5573,
1232.893,4765.0118,
1229.982,4707.4854,
1227.072,4585.2682,
1224.161,4559.8149,
1221.251,4465.7949,
1218.340,4376.3219,
1215.430,4290.6725,
1212.519,4221.7232,
1209.608,4225.6451,
1206.698,4269.4969,
1203.787,4218.3386,
1200.877,4230.5225,
1197.966,4277.2788,
1195.055,4389.6941,
1192.145,4477.7486,
1189.234,4601.1878,
1186.324,4695.9925,
1183.413,4761.422,
1180.503,4790.8328,
1177.592,4763.1198,
1174.681,4727.6867,
1171.771,4629.6881,
1168.860,4545.7377,
1165.950,4482.7973,
1163.039,4432.6097,
1160.129,4390.6714,
1157.218,4360.1259,
1154.307,4316.2009,
1151.397,4261.2362,
1148.486,4247.1293,
1145.576,4221.7021,
1142.665,4223.4779,
1139.754,4153.6529,
1136.844,4082.3011,
1133.933,4039.2703,
1131.023,4032.7064,
1128.112,4024.1988,
1125.202,4001.3883,
1122.291,4024.129,
1119.380,4034.6683,
1116.470,4039.0809,
1113.559,4059.7295,
1110.649,4058.4217,
1107.738,4059.4474,
1104.828,4060.7123,
1101.917,4062.5424,
1099.006,4074.3467,
1096.096,4061.2061,
1093.185,4021.696,
1090.275,4024.2899,
1087.364,4040.7197,
1084.453,4025.1264,
1081.543,4013.7601,
1078.632,4023.8188,
1075.722,4029.9414,
1072.811,4034.5081,
1069.901,4018.7894,
1066.990,4059.6582,
1064.079,4094.804,
1061.169,4125.4032,
1058.258,4179.1622,
1055.348,4244.2652,
1052.437,4280.5286,
1049.527,4310.5579,
1046.616,4308.8202,
1043.705,4326.3526,
1040.795,4368.0198,
1037.884,4374.9701,
1034.974,4375.4046,
1032.063,4412.2168,
1029.153,4458.9486,
1026.242,4486.6272,
1023.331,4469.2928,
1020.421,4472.596,
1017.510,4500.2771,
1014.600,4536.1193,
1011.689,4568.6025,
1008.778,4609.0192,
1005.868,4700.4011,
1002.957,4898.2826,
1000.047,5129.5531,
997.136,5270.4055,
994.226,5346.0707,
991.315,5343.9592,
988.404,5248.8155,
985.494,5211.6878,
982.583,5125.1756,
979.673,5098.7237,
976.762,5082.4701,
973.852,5072.4149,
970.941,5077.9237,
968.030,5103.3361,
965.120,5135.4925,
962.209,5103.9485,
959.299,5107.8322,
956.388,5081.3869,
953.477,5078.5874,
950.567,5111.7621,
947.656,5123.1874,
944.746,5142.7272,
941.835,5156.582,
938.925,5168.1797,
936.014,5167.0609,
933.103,5153.8569,
930.193,5122.0464,
927.282,5051.3959,
924.372,5047.1678,
921.461,4974.4578,
918.551,4864.9706,
915.640,4794.4264,
912.729,4776.3313,
909.819,4763.1793,
906.908,4752.2278,
903.998,4742.876,
901.087,4769.9043,
898.176,4831.9585,
895.266,4886.0686,
892.355,4901.7503,
889.445,4934.4818,
886.534,5013.103,
883.624,5066.3036,
880.713,5106.5703,
877.802,5127.2776,
874.892,5122.2127,
871.981,5101.4216,
869.071,5050.4614,
866.160,5045.0748,
863.250,5055.5364,
860.339,5057.8974,
857.428,5044.1814,
854.518,5026.8327,
851.607,4930.3126,
848.697,4965.2113,
845.786,4935.6905,
842.875,4905.5006,
839.965,4944.7562,
837.054,4963.9134,
834.144,4989.6047,
831.233,4943.2954,
828.323,4928.011,
825.412,4909.0044,
822.501,4848.8591,
819.591,4861.2551,
816.680,4721.4004,
813.770,4672.2154,
810.859,4649.1853,
807.949,4617.0176,
805.038,4580.1184,
802.127,4592.4653,
799.217,4514.6136,
796.306,4495.571,
793.396,4551.0683,
790.485,4610.3045,
787.574,4539.9436,
784.664,4495.6575,
781.753,4555.3944,
778.843,4586.6647,
775.932,4592.9582,
773.022,4614.9217,
770.111,4636.1788,
767.200,4602.6046,
764.290,4602.0268,
761.379,4568.6628,
758.469,4515.042,
755.558,4550.6979,
752.648,4553.1417,
749.737,4522.9439,
746.826,4496.8344,
743.916,4457.9817,
741.005,4372.6858,
738.095,4249.2806,
735.184,4126.651,
732.274,4098.876,
729.363,4180.5436,
726.452,4330.4122,
723.542,4417.8267,
720.631,4470.0264,
717.721,4479.4694,
714.810,4479.4318,
711.899,4490.328,
708.989,4510.5011,
706.078,4452.1299,
703.168,4424.2661,
700.257,4400.3598,
697.347,4375.5818,
694.436,4363.2066,
691.525,4310.9592,
688.615,4337.3597,
685.704,4337.1769,
682.794,4323.5397,
679.883,4374.3635,
676.973,4346.3155,
674.062,4387.8431,
671.151,4388.3252,
668.241,4364.8697,
665.330,4395.4317,
662.420,4349.1052,
659.509,4373.9113,
656.598,4381.0753,
653.688,4378.4276,
650.777,4424.625,
647.867,4424.625,
644.956,4389.9526,
642.046,4358.26,
639.135,4364.5859,
636.224,4443.5176,
633.314,4422.0812,
630.403,4440.8646,
627.493,4454.5524,
624.582,4460.5724,
621.672,4509.6761,
618.761,4566.3406,
615.850,4579.7681,
612.940,4592.3356,
610.029,4626.8337,
607.119,4652.1019,
604.208,4651.7849,
601.297,4639.6576,
598.387,4646.6828,
595.476,4687.0197,
592.566,4638.2215,
589.655,4603.7094,
586.745,4584.8513,
583.834,4566.987,
580.923,4525.7624,
578.013,4548.5197,
575.102,4583.878,
572.192,4609.1978,
569.281,4615.9062,
566.371,4617.4714,
563.460,4636.6726,
560.549,4666.5525,
557.639,4705.2017,
554.728,4746.2947,
551.818,4725.2261,
548.907,4716.9685,
545.996,4745.3394,
543.086,4795.1349,
540.175,4802.1427,
537.265,4805.5221,
534.354,4850.2721,
531.444,4895.2969,
528.533,4908.2886,
525.622,5030.1123,
522.712,5080.2884,
519.801,5114.719,
516.891,5159.7104,
513.980,5229.3971,
511.070,5287.7467,
508.159,5364.0676,
505.248,5453.1678,
502.338,5544.449,
499.427,5640.928,
496.517,5694.3421,
493.606,5756.677,
490.695,5842.1183,
487.785,5874.4496,
484.874,5816.9413,
481.964,5830.382,
479.053,5883.4679,
476.143,5824.3348,
473.232,5771.7055,
470.321,5752.625,
467.411,5750.8522,
464.500,5745.4892,
461.590,5740.1291,
458.679,5751.8321,
455.769,5767.9811,
452.858,5782.4883,
449.947,5809.9898,
447.037,5877.5146,
444.126,5920.5826,
441.216,5913.0576,
438.305,5840.6741,
435.395,5907.9901,
432.484,5917.3686,
429.573,5875.9325,
426.663,5885.8144,
423.752,5943.8134,
420.842,5893.7285,
417.931,5833.9288,
415.020,5937.0655,
412.110,6019.6392,
409.199,6070.6299,
406.289,6098.0526,
403.378,6111.6762,
400.468,6126.7961,
397.557,6114.6581,
394.646,6111.0149,
391.736,6144.6009,
388.825,6143.8466,
385.915,6111.6934,
383.004,6104.1841,
380.094,6158.6193,
377.183,6217.3125,
374.272,6309.6143,
371.362,6368.9158,
368.451,6365.2387,
365.541,6490.5782,
362.630,6538.8273,
359.719,6533.7548,
356.809,6501.4182,
353.898,6630.2114,
350.988,6627.1084,
348.077,6592.8825,
345.167,6590.5549,
342.256,6628.6554,
339.345,6663.5395,
336.435,6672.6885,
333.524,6643.8798,
330.614,6715.4148,
327.703,6749.4333,
324.793,6757.7893,
321.882,6749.8035,
318.971,6823.4043,
316.061,6881.8304,
313.150,6924.7083,
310.240,6950.6824,
307.329,7039.5253,
304.418,7127.0596,
301.508,7173.0834,
298.597,7110.8884,
295.687,7120.5243,
292.776,7231.3756,
289.866,7413.6793,
286.955,7589.496,
284.044,7808.1698,
281.134,7993.5717,
278.223,8138.8578,
275.313,8284.0183,
272.402,8436.6147,
269.492,8575.0046,
266.581,8697.1831,
263.670,8886.8596,
260.760,9067.5194,
257.849,9229.0745,
254.939,9361.9073,
252.028,9427.3233,
249.117,9486.8007,
246.207,9529.9509,
243.296,9535.0751,
240.386,9541.5019,
237.475,9520.4212,
234.565,9466.3255,
231.654,9369.1844,
228.743,9304.897,
225.833,9225.671,
222.922,9117.2321,
220.012,9087.3613,
217.101,9042.7842,
214.191,8987.8288,
211.280,8925.267,
208.369,8953.5928,
205.459,8962.0392,
202.548,8944.859,
199.638,8911.4791,
196.727,8933.4358,
193.816,8965.7628,
190.906,8994.5708,
187.995,9078.5577,
185.085,9124.175,
182.174,9150.2645,
179.264,9178.4523,
176.353,9241.8582,
173.442,9281.7885,
170.532,9277.9238,
167.621,9151.753,
164.711,9008.3069,
161.800,8793.1326,
158.890,8451.9817,
155.979,7992.6164,
153.068,7397.9337,
150.158,6662.3219,
147.247,5731.8558,
144.337,4695.4154,
141.426,3673.4389,
138.516,2723.558,
135.605,1932.4725,
132.694,1319.0401,
129.784,866.45899,
126.873,578.26167,
123.963,397.27492,
121.052,277.71252,
118.141,209.89183,
115.231,169.12249,
112.320,136.95047,
109.410,112.21612,
106.499,94.412238,
103.589,86.142964,
100.678,77.735809,
97.767,64.938933,
94.857,62.546033,
91.946,57.19078,
89.036,50.625,
86.125,50.625,
83.215,51.15592,
80.304,47.794077,
77.393,36.463358,
74.483,33.659595,
71.572,33.349704,
68.662,33.932325,
65.751,26.867814,
62.840,28.478616,
59.930,30.564852,
57.019,22.80895,
54.109,20.430678,
51.198,21.736265,
48.288,26.568376,
45.377,19.534595,
42.466,21.159413,
39.556,26.704051,
36.645,21.08653,
33.735,19.105752,
30.824,20.171209,
27.914,25.079436,
25.003,22.511813,
22.092,19.979191,
19.182,19.174189,
16.271,35.961952,
13.361,117.22306,
10.450,244.50428,
7.539,389.05556,
4.629,325.4253,
1.718,97.203153,
-1.192,-337.81504,
-4.103,-309.51661,
-7.013,-177.8493,
-9.924,-0.375,
