,PL02EB~1,
Raman shift [1/cm],Intensity,
3014.167,4.375,
3011.256,-1.0749893,
3008.346,255.49838,
3005.435,308.45274,
3002.525,313.16751,
2999.614,316.54519,
2996.704,349.64923,
2993.793,346.87039,
2990.882,370.14589,
2987.972,361.45572,
2985.061,381.36515,
2982.151,381.97163,
2979.240,418.70578,
2976.329,430.87227,
2973.419,448.83713,
2970.508,450.89152,
2967.598,466.23163,
2964.687,464.33016,
2961.777,471.71694,
2958.866,480.70041,
2955.955,501.24003,
2953.045,524.25642,
2950.134,530.3867,
2947.224,544.74509,
2944.313,551.98184,
2941.403,570.57801,
2938.492,581.51321,
2935.581,578.67071,
2932.671,604.33206,
2929.760,596.32501,
2926.850,604.27049,
2923.939,616.24879,
2921.028,626.58666,
2918.118,630.99591,
2915.207,643.67253,
2912.297,657.33269,
2909.386,665.3677,
2906.476,647.0576,
2903.565,670.23056,
2900.654,657.76327,
2897.744,662.31214,
2894.833,656.96264,
2891.923,657.9968,
2889.012,659.74494,
2886.102,648.58854,
2883.191,660.34668,
2880.280,608.45155,
2877.370,607.08429,
2874.459,603.78384,
2871.549,637.53323,
2868.638,697.51517,
2865.727,689.14037,
2862.817,692.00335,
2859.906,708.17272,
2856.996,708.89991,
2854.085,688.41069,
2851.175,707.80272,
2848.264,700.16417,
2845.353,696.375,
2842.443,682.39937,
2839.532,680.77787,
2836.622,682.67839,
2833.711,681.74548,
2830.801,678.47574,
2827.890,649.62676,
2824.979,668.64693,
2822.069,690.98835,
2819.158,664.59603,
2816.248,679.36342,
2813.337,687.35427,
2810.427,677.94112,
2807.516,683.10875,
2804.605,686.74038,
2801.695,678.11184,
2798.784,706.00946,
2795.874,704.09532,
2792.963,696.44638,
2790.052,693.37543,
2787.142,676.7565,
2784.231,679.0194,
2781.321,687.93498,
2778.410,688.01458,
2775.500,672.10156,
2772.589,696.9507,
2769.678,699.72643,
2766.768,702.46041,
2763.857,727.32105,
2760.947,710.33717,
2758.036,728.94203,
2755.126,713.84722,
2752.215,722.2477,
2749.304,734.33182,
2746.394,728.25809,
2743.483,727.52497,
2740.573,723.61611,
2737.662,724.42676,
2734.751,748.21012,
2731.841,739.375,
2728.930,739.15043,
2726.020,745.04861,
2723.109,738.84942,
2720.199,758.57195,
2717.288,748.9188,
2714.377,776.37042,
2711.467,762.93215,
2708.556,777.02384,
2705.646,770.23413,
2702.735,769.90853,
2699.825,792.10405,
2696.914,770.04135,
2694.003,786.962,
2691.093,781.83949,
2688.182,789.66611,
2685.272,793.70217,
2682.361,784.62173,
2679.450,802.49845,
2676.540,802.00917,
2673.629,795.32561,
2670.719,807.09773,
2667.808,807.08319,
2664.898,799.27091,
2661.987,807.54161,
2659.076,829.81464,
2656.166,834.35774,
2653.255,828.55698,
2650.345,834.23888,
2647.434,852.31727,
2644.524,832.30546,
2641.613,849.08965,
2638.702,850.45391,
2635.792,855.18955,
2632.881,856.69614,
2629.971,853.67021,
2627.060,865.37313,
2624.149,870.26876,
2621.239,844.09684,
2618.328,869.56964,
2615.418,846.72954,
2612.507,869.64365,
2609.597,863.94586,
2606.686,871.88104,
2603.775,881.09325,
2600.865,876.13951,
2597.954,889.375,
2595.044,894.99148,
2592.133,908.82088,
2589.223,926.42344,
2586.312,912.3046,
2583.401,926.88593,
2580.491,918.47116,
2577.580,905.42451,
2574.670,932.60763,
2571.759,929.77911,
2568.848,935.84463,
2565.938,930.42255,
2563.027,939.27728,
2560.117,957.71149,
2557.206,972.08718,
2554.296,935.32237,
2551.385,950.87096,
2548.474,963.26422,
2545.564,979.0901,
2542.653,940.53272,
2539.743,958.69632,
2536.832,980.17126,
2533.922,989.39077,
2531.011,990.375,
2528.100,1005.3019,
2525.190,1012.0504,
2522.279,983.78194,
2519.369,1013.5825,
2516.458,1005.256,
2513.548,991.52052,
2510.637,1011.1291,
2507.726,999.88056,
2504.816,996.31413,
2501.905,1002.3171,
2498.995,996.83753,
2496.084,991.1346,
2493.173,1007.8753,
2490.263,1028.3411,
2487.352,1023.6703,
2484.442,1064.1288,
2481.531,1056.545,
2478.621,1056.6451,
2475.710,1073.3903,
2472.799,1073.1553,
2469.889,1065.8902,
2466.978,1050.2205,
2464.068,1067.3592,
2461.157,1060.9998,
2458.247,1081.3307,
2455.336,1069.5433,
2452.425,1069.3514,
2449.515,1094.2523,
2446.604,1085.6193,
2443.694,1087.0732,
2440.783,1097.5653,
2437.872,1099.6303,
2434.962,1112.6791,
2432.051,1130.8627,
2429.141,1125.681,
2426.230,1108.4181,
2423.320,1156.861,
2420.409,1141.1058,
2417.498,1135.5801,
2414.588,1160.5346,
2411.677,1167.371,
2408.767,1149.2283,
2405.856,1170.2155,
2402.946,1145.8924,
2400.035,1170.6403,
2397.124,1190.0488,
2394.214,1193.753,
2391.303,1188.2314,
2388.393,1192.3471,
2385.482,1185.7716,
2382.571,1207.5652,
2379.661,1212.8864,
2376.750,1209.0131,
2373.840,1199.3562,
2370.929,1211.2775,
2368.019,1252.3165,
2365.108,1225.4431,
2362.197,1242.375,
2359.287,1243.1733,
2356.376,1228.4014,
2353.466,1238.6763,
2350.555,1253.3146,
2347.645,1263.0173,
2344.734,1275.0708,
2341.823,1272.3916,
2338.913,1270.2899,
2336.002,1271.7696,
2333.092,1295.1108,
2330.181,1302.2189,
2327.270,1268.6302,
2324.360,1292.375,
2321.449,1304.3308,
2318.539,1325.2894,
2315.628,1344.3906,
2312.718,1327.8772,
2309.807,1354.6483,
2306.896,1350.0604,
2303.986,1326.6802,
2301.075,1334.5452,
2298.165,1320.0189,
2295.254,1365.2763,
2292.344,1337.7401,
2289.433,1352.3905,
2286.522,1345.0804,
2283.612,1368.1875,
2280.701,1380.7786,
2277.791,1381.6956,
2274.880,1391.515,
2271.969,1404.017,
2269.059,1412.4922,
2266.148,1427.966,
2263.238,1462.1626,
2260.327,1444.6509,
2257.417,1452.1706,
2254.506,1472.8708,
2251.595,1489.9422,
2248.685,1452.8655,
2245.774,1471.7151,
2242.864,1490.6618,
2239.953,1485.3818,
2237.043,1499.6475,
2234.132,1493.7231,
2231.221,1495.2174,
2228.311,1518.991,
2225.400,1532.178,
2222.490,1526.1177,
2219.579,1535.5293,
2216.669,1558.3225,
2213.758,1580.4639,
2210.847,1616.1986,
2207.937,1606.1079,
2205.026,1656.0412,
2202.116,1678.0278,
2199.205,1698.6628,
2196.294,1718.1029,
2193.384,1757.9795,
2190.473,1768.9489,
2187.563,1770.8294,
2184.652,1872.9599,
2181.742,1934.6721,
2178.831,1998.4724,
2175.920,2111.069,
2173.010,2212.4039,
2170.099,2331.0303,
2167.189,2441.1643,
2164.278,2568.1298,
2161.368,2715.941,
2158.457,2875.6685,
2155.546,3004.1597,
2152.636,3132.811,
2149.725,3224.7978,
2146.815,3338.8379,
2143.904,3393.5869,
2140.993,3417.2534,
2138.083,3408.764,
2135.172,3387.1815,
2132.262,3314.0739,
2129.351,3281.0473,
2126.441,3176.6562,
2123.530,3079.7812,
2120.619,2922.9995,
2117.709,2775.8118,
2114.798,2607.0899,
2111.888,2465.1157,
2108.977,2323.8981,
2106.067,2180.7524,
2103.156,2148.375,
2100.245,2085.3323,
2097.335,2011.2336,
2094.424,1957.2797,
2091.514,1919.0792,
2088.603,1905.2229,
2085.692,1885.3231,
2082.782,1833.327,
2079.871,1804.41,
2076.961,1852.8232,
2074.050,1852.4174,
2071.140,1800.8113,
2068.229,1823.7617,
2065.318,1802.2645,
2062.408,1787.2759,
2059.497,1766.9881,
2056.587,1791.2351,
2053.676,1775.6931,
2050.766,1724.224,
2047.855,1761.2358,
2044.944,1729.9567,
2042.034,1776.531,
2039.123,1769.7555,
2036.213,1769.9528,
2033.302,1764.375,
2030.391,1751.494,
2027.481,1759.9968,
2024.570,1774.6462,
2021.660,1796.1333,
2018.749,1792.0208,
2015.839,1802.9944,
2012.928,1763.3179,
2010.017,1758.0623,
2007.107,1776.5133,
2004.196,1761.2083,
2001.286,1777.9403,
1998.375,1788.5039,
1995.465,1780.0821,
1992.554,1760.8457,
1989.643,1759.3404,
1986.733,1758.9101,
1983.822,1766.259,
1980.912,1754.286,
1978.001,1757.6885,
1975.090,1759.9689,
1972.180,1759.4787,
1969.269,1772.2256,
1966.359,1787.6183,
1963.448,1778.4173,
1960.538,1785.7361,
1957.627,1783.0252,
1954.716,1759.0644,
1951.806,1776.0769,
1948.895,1768.0795,
1945.985,1753.8047,
1943.074,1756.2902,
1940.164,1758.6925,
1937.253,1759.7275,
1934.342,1757.0504,
1931.432,1749.0879,
1928.521,1745.9087,
1925.611,1748.8881,
1922.700,1740.0435,
1919.790,1764.2129,
1916.879,1747.9095,
1913.968,1737.3861,
1911.058,1748.2909,
1908.147,1769.6625,
1905.237,1737.5368,
1902.326,1765.2313,
1899.415,1767.9725,
1896.505,1735.9413,
1893.594,1740.6463,
1890.684,1749.0547,
1887.773,1750.332,
1884.863,1762.6825,
1881.952,1770.6775,
1879.041,1746.1673,
1876.131,1749.7763,
1873.220,1749.7599,
1870.310,1757.7292,
1867.399,1791.8312,
1864.489,1785.5447,
1861.578,1742.243,
1858.667,1760.6684,
1855.757,1769.7485,
1852.846,1792.0878,
1849.936,1780.351,
1847.025,1810.431,
1844.114,1818.9491,
1841.204,1818.2386,
1838.293,1841.3484,
1835.383,1848.0845,
1832.472,1855.2011,
1829.562,1885.1779,
1826.651,1836.2026,
1823.740,1849.1414,
1820.830,1872.8633,
1817.919,1880.2613,
1815.009,1894.2185,
1812.098,1897.2726,
1809.188,1866.4216,
1806.277,1860.4635,
1803.366,1952.3768,
1800.456,1892.056,
1797.545,1873.5237,
1794.635,1910.8919,
1791.724,1898.4331,
1788.813,1946.7652,
1785.903,1937.0105,
1782.992,1977.5493,
1780.082,1926.3672,
1777.171,1977.7085,
1774.261,1968.1548,
1771.350,1965.0178,
1768.439,1983.1191,
1765.529,1975.1018,
1762.618,2010.0588,
1759.708,2040.6684,
1756.797,2022.7689,
1753.887,2017.0674,
1750.976,2010.7094,
1748.065,2029.3381,
1745.155,2029.0461,
1742.244,1995.2138,
1739.334,2028.2503,
1736.423,2117.9095,
1733.512,2105.6269,
1730.602,2119.5477,
1727.691,2093.295,
1724.781,2116.1978,
1721.870,2095.5986,
1718.960,2127.0199,
1716.049,2118.5955,
1713.138,2173.5147,
1710.228,2207.7433,
1707.317,2177.7613,
1704.407,2220.0917,
1701.496,2208.9671,
1698.586,2245.2584,
1695.675,2263.3463,
1692.764,2281.416,
1689.854,2286.2018,
1686.943,2345.3177,
1684.033,2322.9959,
1681.122,2317.46,
1678.211,2358.9753,
1675.301,2438.1314,
1672.390,2433.6322,
1669.480,2519.4953,
1666.569,2535.1114,
1663.659,2594.3186,
1660.748,2711.1629,
1657.837,2700.7905,
1654.927,2720.8745,
1652.016,2785.3189,
1649.106,2864.3298,
1646.195,2904.437,
1643.285,2987.737,
1640.374,2961.7757,
1637.463,3029.1584,
1634.553,3127.4833,
1631.642,3203.0797,
1628.732,3358.9912,
1625.821,3462.4784,
1622.911,3619.4846,
1620.000,3800.082,
1617.089,4021.9173,
1614.179,4232.3964,
1611.268,4453.0843,
1608.358,4664.4017,
1605.447,4776.2044,
1602.536,4808.4678,
1599.626,4960.3241,
1596.715,4977.0054,
1593.805,4921.0321,
1590.894,4829.8307,
1587.984,4890.2606,
1585.073,4840.1162,
1582.162,4816.0168,
1579.252,4751.1841,
1576.341,4652.4623,
1573.431,4682.2813,
1570.520,4680.3231,
1567.610,4636.6293,
1564.699,4544.3468,
1561.788,4553.8112,
1558.878,4500.7332,
1555.967,4416.1825,
1553.057,4333.2376,
1550.146,4256.5133,
1547.235,4209.4846,
1544.325,4158.4844,
1541.414,4116.9537,
1538.504,4087.8781,
1535.593,4055.2807,
1532.683,4004.0016,
1529.772,3927.4443,
1526.861,3861.2586,
1523.951,3823.1751,
1521.040,3807.6621,
1518.130,3781.006,
1515.219,3732.1748,
1512.309,3726.4921,
1509.398,3684.1526,
1506.487,3677.9889,
1503.577,3699.9951,
1500.666,3669.0706,
1497.756,3581.6634,
1494.845,3605.1327,
1491.934,3503.353,
1489.024,3496.6155,
1486.113,3453.7231,
1483.203,3441.4933,
1480.292,3433.5869,
1477.382,3367.7151,
1474.471,3323.2146,
1471.560,3315.1007,
1468.650,3277.1117,
1465.739,3252.9701,
1462.829,3232.0673,
1459.918,3197.1704,
1457.008,3219.4986,
1454.097,3259.375,
1451.186,3256.8798,
1448.276,3241.199,
1445.365,3222.3039,
1442.455,3233.208,
1439.544,3242.4013,
1436.633,3215.3949,
1433.723,3233.2534,
1430.812,3219.3905,
1427.902,3143.9691,
1424.991,3126.9094,
1422.081,3106.1905,
1419.170,3170.9076,
1416.259,3100.3687,
1413.349,3061.7387,
1410.438,3056.7746,
1407.528,3091.4933,
1404.617,3114.4849,
1401.707,3103.0666,
1398.796,3087.0708,
1395.885,3106.9382,
1392.975,3131.5205,
1390.064,3093.5961,
1387.154,3020.8129,
1384.243,2956.1341,
1381.332,2976.7896,
1378.422,3042.1716,
1375.511,3154.5853,
1372.601,3335.1596,
1369.690,3408.6661,
1366.780,3492.0343,
1363.869,3538.9811,
1360.958,3595.5901,
1358.048,3613.4419,
1355.137,3697.6899,
1352.227,3777.8325,
1349.316,3844.4759,
1346.406,3970.4075,
1343.495,4033.5684,
1340.584,4097.5525,
1337.674,4171.127,
1334.763,4203.3277,
1331.853,4228.3629,
1328.942,4285.4112,
1326.032,4376.3839,
1323.121,4442.0558,
1320.210,4445.7225,
1317.300,4443.5066,
1314.389,4536.8212,
1311.479,4581.7442,
1308.568,4582.1761,
1305.657,4700.2564,
1302.747,4756.9268,
1299.836,4762.1025,
1296.926,4928.7334,
1294.015,5022.5044,
1291.105,5161.0979,
1288.194,5280.0166,
1285.283,5382.7033,
1282.373,5444.3827,
1279.462,5505.1977,
1276.552,5558.9578,
1273.641,5588.7263,
1270.731,5592.0839,
1267.820,5581.2935,
1264.909,5613.5817,
1261.999,5464.3057,
1259.088,5517.2087,
1256.178,5446.7197,
1253.267,5382.2057,
1250.356,5318.29,
1247.446,5214.9934,
1244.535,5136.076,
1241.625,5072.1973,
1238.714,4988.0229,
1235.804,4897.2733,
1232.893,4757.4998,
1229.982,4756.1059,
1227.072,4689.1128,
1224.161,4599.4841,
1221.251,4493.2894,
1218.340,4435.1669,
1215.430,4371.9279,
1212.519,4308.8315,
1209.608,4286.045,
1206.698,4287.4386,
1203.787,4264.3348,
1200.877,4283.161,
1197.966,4328.119,
1195.055,4461.7753,
1192.145,4621.8708,
1189.234,4697.8682,
1186.324,4738.9228,
1183.413,4809.7202,
1180.503,4843.022,
1177.592,4778.0315,
1174.681,4753.0257,
1171.771,4700.5411,
1168.860,4621.0562,
1165.950,4556.1284,
1163.039,4559.1367,
1160.129,4459.6112,
1157.218,4387.7787,
1154.307,4362.1771,
1151.397,4306.294,
1148.486,4285.3231,
1145.576,4295.7582,
1142.665,4281.5516,
1139.754,4246.2026,
1136.844,4156.4396,
1133.933,4125.4805,
1131.023,4120.3494,
1128.112,4126.3728,
1125.202,4143.7132,
1122.291,4110.1162,
1119.380,4088.2758,
1116.470,4180.0587,
1113.559,4209.933,
1110.649,4179.3585,
1107.738,4176.9854,
1104.828,4180.5564,
1101.917,4180.7603,
1099.006,4217.7255,
1096.096,4218.4612,
1093.185,4203.5351,
1090.275,4213.7048,
1087.364,4225.2946,
1084.453,4223.7504,
1081.543,4228.5776,
1078.632,4229.4062,
1075.722,4213.8377,
1072.811,4246.4657,
1069.901,4191.4503,
1066.990,4297.3081,
1064.079,4307.0427,
1061.169,4338.0361,
1058.258,4379.5387,
1055.348,4398.0783,
1052.437,4407.8991,
1049.527,4402.0198,
1046.616,4444.5924,
1043.705,4521.0561,
1040.795,4504.0647,
1037.884,4468.2143,
1034.974,4489.7551,
1032.063,4542.4599,
1029.153,4521.4136,
1026.242,4530.0632,
1023.331,4530.375,
1020.421,4528.9808,
1017.510,4564.7929,
1014.600,4633.9763,
1011.689,4702.4882,
1008.778,4750.6226,
1005.868,4840.5565,
1002.957,4972.1907,
1000.047,5187.4791,
997.136,5338.4893,
994.226,5377.7599,
991.315,5340.1077,
988.404,5273.8933,
985.494,5146.4927,
982.583,5107.0911,
979.673,5010.6508,
976.762,4977.9621,
973.852,4992.0773,
970.941,5000.1872,
968.030,4975.5195,
965.120,4959.5003,
962.209,4989.3393,
959.299,5012.0812,
956.388,4996.9764,
953.477,4989.6507,
950.567,5009.0806,
947.656,5021.8179,
944.746,5017.5702,
941.835,5054.6264,
938.925,5031.1305,
936.014,5042.1954,
933.103,5070.0812,
930.193,5055.9937,
927.282,4995.2916,
924.372,5012.2037,
921.461,4985.6554,
918.551,4901.5965,
915.640,4820.7537,
912.729,4781.2281,
909.819,4778.1551,
906.908,4799.2157,
903.998,4778.1048,
901.087,4810.5654,
898.176,4835.7154,
895.266,4861.2755,
892.355,4919.3692,
889.445,4978.1179,
886.534,5020.1186,
883.624,5053.9426,
880.713,5109.2449,
877.802,5119.8045,
874.892,5066.7873,
871.981,5084.6192,
869.071,5010.2675,
866.160,5046.3621,
863.250,5065.2298,
860.339,5075.978,
857.428,5074.9309,
854.518,4968.5786,
851.607,5010.1821,
848.697,4989.8623,
845.786,4992.425,
842.875,5016.5119,
839.965,5037.5304,
837.054,5048.1379,
834.144,5116.0956,
831.233,5099.3772,
828.323,5086.3533,
825.412,5070.989,
822.501,5026.928,
819.591,4985.608,
816.680,4905.0479,
813.770,4876.604,
810.859,4836.1782,
807.949,4800.5409,
805.038,4815.3927,
802.127,4782.4676,
799.217,4776.3934,
796.306,4735.645,
793.396,4732.6272,
790.485,4763.5825,
787.574,4721.3678,
784.664,4773.855,
781.753,4785.388,
778.843,4785.8849,
775.932,4780.7454,
773.022,4776.7149,
770.111,4817.5938,
767.200,4799.8196,
764.290,4781.2396,
761.379,4792.8561,
758.469,4807.6337,
755.558,4743.6456,
752.648,4719.2075,
749.737,4680.43,
746.826,4635.3342,
743.916,4572.2641,
741.005,4458.0119,
738.095,4180.35,
735.184,3989.3468,
732.274,3955.2994,
729.363,4095.3571,
726.452,4360.8662,
723.542,4585.0681,
720.631,4662.3608,
717.721,4692.1134,
714.810,4716.5056,
711.899,4734.4047,
708.989,4691.6376,
706.078,4713.8115,
703.168,4702.3728,
700.257,4678.1727,
697.347,4651.3324,
694.436,4622.6369,
691.525,4632.2825,
688.615,4630.6015,
685.704,4611.1073,
682.794,4597.2685,
679.883,4627.4563,
676.973,4651.4974,
674.062,4681.8983,
671.151,4695.06,
668.241,4683.8451,
665.330,4653.7532,
662.420,4661.7405,
659.509,4653.851,
656.598,4666.5505,
653.688,4695.666,
650.777,4713.051,
647.867,4703.495,
644.956,4727.9985,
642.046,4724.8889,
639.135,4696.327,
636.224,4692.3312,
633.314,4683.5979,
630.403,4713.3004,
627.493,4754.9628,
624.582,4783.3733,
621.672,4769.9094,
618.761,4814.2114,
615.850,4847.6596,
612.940,4882.8425,
610.029,4917.613,
607.119,4901.0308,
604.208,4910.7352,
601.297,4904.9061,
598.387,4911.2863,
595.476,4950.4781,
592.566,4919.7825,
589.655,4909.8398,
586.745,4903.4693,
583.834,4882.5649,
580.923,4826.266,
578.013,4808.2171,
575.102,4803.9486,
572.192,4812.9498,
569.281,4840.4666,
566.371,4907.7722,
563.460,4946.1211,
560.549,4982.2771,
557.639,4991.604,
554.728,4954.2327,
551.818,4999.4911,
548.907,5046.5492,
545.996,5047.4364,
543.086,5020.6019,
540.175,5063.4275,
537.265,5117.0746,
534.354,5134.8699,
531.444,5157.3396,
528.533,5219.7061,
525.622,5224.3618,
522.712,5238.1168,
519.801,5268.1422,
516.891,5316.3649,
513.980,5380.6315,
511.070,5462.4445,
508.159,5510.1347,
505.248,5554.9149,
502.338,5638.595,
499.427,5680.2739,
496.517,5743.981,
493.606,5772.2613,
490.695,5759.2874,
487.785,5837.8061,
484.874,5837.4505,
481.964,5846.1556,
479.053,5858.079,
476.143,5815.073,
473.232,5838.9929,
470.321,5812.3952,
467.411,5781.7326,
464.500,5805.4053,
461.590,5767.1183,
458.679,5775.6353,
455.769,5780.6628,
452.858,5760.4769,
449.947,5790.2702,
447.037,5811.544,
444.126,5816.1992,
441.216,5801.2897,
438.305,5766.2409,
435.395,5790.223,
432.484,5771.6181,
429.573,5728.8126,
426.663,5747.8161,
423.752,5738.2163,
420.842,5717.8477,
417.931,5711.8722,
415.020,5755.857,
412.110,5901.5028,
409.199,5910.8543,
406.289,5892.1868,
403.378,5974.4032,
400.468,5982.7191,
397.557,5934.4742,
394.646,5861.3259,
391.736,5792.3609,
388.825,5760.6832,
385.915,5715.718,
383.004,5708.0751,
380.094,5774.3618,
377.183,5911.3125,
374.272,6031.3348,
371.362,6095.6658,
368.451,6088.5694,
365.541,6157.6187,
362.630,6184.0224,
359.719,6199.254,
356.809,6221.4624,
353.898,6239.4336,
350.988,6298.0812,
348.077,6325.9505,
345.167,6288.0295,
342.256,6379.9189,
339.345,6426.5694,
336.435,6468.5255,
333.524,6530.6704,
330.614,6508.3157,
327.703,6501.8884,
324.793,6534.5989,
321.882,6627.3227,
318.971,6605.7629,
316.061,6632.0687,
313.150,6687.2369,
310.240,6751.0588,
307.329,6776.958,
304.418,6800.5096,
301.508,6812.0581,
298.597,6792.0668,
295.687,6755.8357,
292.776,6799.792,
289.866,6939.0224,
286.955,7198.315,
284.044,7406.1498,
281.134,7611.6476,
278.223,7825.1404,
275.313,8049.1444,
272.402,8178.8633,
269.492,8323.6084,
266.581,8515.9933,
263.670,8636.5629,
260.760,8766.4488,
257.849,8909.833,
254.939,9071.2872,
252.028,9125.4918,
249.117,9215.2696,
246.207,9284.3586,
243.296,9230.1879,
240.386,9234.1699,
237.475,9234.7648,
234.565,9222.0834,
231.654,9188.4858,
228.743,9050.1911,
225.833,8965.266,
222.922,8990.0648,
220.012,8940.523,
217.101,8821.3247,
214.191,8728.1443,
211.280,8773.9745,
208.369,8722.8771,
205.459,8632.8942,
202.548,8556.1773,
199.638,8665.0247,
196.727,8688.5274,
193.816,8697.2016,
190.906,8717.6351,
187.995,8782.0733,
185.085,8805.7936,
182.174,8786.2196,
179.264,8708.1609,
176.353,8739.1033,
173.442,8755.2115,
170.532,8728.4137,
167.621,8591.4283,
164.711,8489.2046,
161.800,8287.0942,
158.890,7867.4931,
155.979,7395.4652,
153.068,6784.5755,
150.158,6048.0504,
147.247,5217.3796,
144.337,4264.5057,
141.426,3340.3884,
138.516,2518.831,
135.605,1789.3976,
132.694,1216.8951,
129.784,790.52946,
126.873,524.50116,
123.963,353.71562,
121.052,239.87897,
118.141,175.62779,
115.231,140.55705,
112.320,118.74955,
109.410,104.96612,
106.499,87.162238,
103.589,74.410928,
100.678,65.473648,
97.767,60.497085,
94.857,52.059131,
91.946,47.971889,
89.036,47.826592,
86.125,50.663413,
83.215,49.782239,
80.304,45.262375,
77.393,36.056166,
74.483,32.75446,
71.572,32.099704,
68.662,32.405255,
65.751,22.51494,
62.840,26.60053,
59.930,33.063997,
57.019,28.128423,
54.109,22.597713,
51.198,19.978219,
48.288,21.448612,
45.377,30.592527,
42.466,31.077245,
39.556,26.029644,
36.645,23.923074,
33.735,22.336503,
30.824,21.816774,
27.914,23.219124,
25.003,25.86555,
22.092,26.083382,
19.182,23.69536,
16.271,33.488222,
13.361,144.84678,
10.450,334.6818,
7.539,580.4888,
4.629,662.44637,
1.718,555.57492,
-1.192,151.92823,
-4.103,15.301272,
-7.013,-27.464105,
-9.924,0.375,
