,PL21A3~1,
Wavenumbers [1/cm],Intensity,
3014.167,5.875,
3011.256,-1.8249356,
3008.346,349.09392,
3005.435,426.95274,
3002.525,419.77992,
2999.614,474.22042,
2996.704,459.00799,
2993.793,479.24654,
2990.882,489.78335,
2987.972,497.9204,
2985.061,520.61886,
2982.151,543.15904,
2979.240,564.30655,
2976.329,567.11271,
2973.419,586.79798,
2970.508,606.90825,
2967.598,624.82721,
2964.687,632.94905,
2961.777,623.84917,
2958.866,667.54662,
2955.955,673.01658,
2953.045,691.2598,
2950.134,714.60972,
2947.224,731.84653,
2944.313,736.71759,
2941.403,749.08942,
2938.492,758.43868,
2935.581,766.14369,
2932.671,765.99517,
2929.760,798.41736,
2926.850,809.76335,
2923.939,799.58992,
2921.028,824.58096,
2918.118,832.5148,
2915.207,843.23591,
2912.297,838.93001,
2909.386,835.10127,
2906.476,845.06882,
2903.565,823.74462,
2900.654,852.60401,
2897.744,842.66127,
2894.833,825.05027,
2891.923,811.71149,
2889.012,799.58598,
2886.102,786.04257,
2883.191,773.8835,
2880.280,667.88452,
2877.370,494.95664,
2874.459,429.27764,
2871.549,578.87659,
2868.638,813.43365,
2865.727,826.50578,
2862.817,858.84823,
2859.906,846.07728,
2856.996,860.7799,
2854.085,863.38967,
2851.175,897.70339,
2848.264,894.99299,
2845.353,876.28477,
2842.443,893.67709,
2839.532,901.96449,
2836.622,914.06054,
2833.711,922.93464,
2830.801,904.98309,
2827.890,916.89422,
2824.979,909.517,
2822.069,915.05695,
2819.158,931.25505,
2816.248,947.56421,
2813.337,943.57621,
2810.427,959.26481,
2807.516,958.50813,
2804.605,964.3702,
2801.695,972.82235,
2798.784,945.50131,
2795.874,952.2998,
2792.963,953.94638,
2790.052,942.87714,
2787.142,928.45392,
2784.231,948.58305,
2781.321,922.93786,
2778.410,930.51458,
2775.500,952.12879,
2772.589,935.95297,
2769.678,959.76575,
2766.768,964.00509,
2763.857,958.13897,
2760.947,968.39706,
2758.036,1002.372,
2755.126,973.10791,
2752.215,985.27953,
2749.304,989.98111,
2746.394,993.5464,
2743.483,1003.5749,
2740.573,978.06509,
2737.662,992.21523,
2734.751,987.94309,
2731.841,994.25413,
2728.930,1006.019,
2726.020,1022.4363,
2723.109,1032.1945,
2720.199,1023.0719,
2717.288,1018.8568,
2714.377,1013.4252,
2711.467,1040.6289,
2708.556,1047.1836,
2705.646,1080.9033,
2702.735,1054.7075,
2699.825,1066.1023,
2696.914,1074.0177,
2694.003,1081.2506,
2691.093,1054.3395,
2688.182,1069.8031,
2685.272,1068.7071,
2682.361,1090.2691,
2679.450,1086.6281,
2676.540,1076.1799,
2673.629,1093.8615,
2670.719,1099.875,
2667.808,1074.1882,
2664.898,1091.2777,
2661.987,1099.742,
2659.076,1118.8578,
2656.166,1105.1043,
2653.255,1130.5485,
2650.345,1111.875,
2647.434,1161.3894,
2644.524,1152.2035,
2641.613,1140.5324,
2638.702,1141.9381,
2635.792,1162.9418,
2632.881,1157.0114,
2629.971,1167.2776,
2627.060,1171.3778,
2624.149,1161.7375,
2621.239,1162.5968,
2618.328,1172.2141,
2615.418,1176.225,
2612.507,1167.6339,
2609.597,1171.4159,
2606.686,1177.4071,
2603.775,1198.9187,
2600.865,1223.8716,
2597.954,1209.1687,
2595.044,1225.6243,
2592.133,1228.2765,
2589.223,1206.2118,
2586.312,1261.6288,
2583.401,1249.4663,
2580.491,1232.0962,
2577.580,1250.8849,
2574.670,1261.5795,
2571.759,1268.9204,
2568.848,1245.9412,
2565.938,1263.5418,
2563.027,1258.1931,
2560.117,1268.9685,
2557.206,1266.0669,
2554.296,1276.3304,
2551.385,1274.5691,
2548.474,1299.4679,
2545.564,1313.6534,
2542.653,1309.8851,
2539.743,1332.7148,
2536.832,1323.9759,
2533.922,1346.9854,
2531.011,1349.4754,
2528.100,1320.2826,
2525.190,1330.1734,
2522.279,1331.4529,
2519.369,1321.6675,
2516.458,1328.8821,
2513.548,1330.4024,
2510.637,1359.5965,
2507.726,1378.0683,
2504.816,1359.1873,
2501.905,1338.397,
2498.995,1346.8153,
2496.084,1352.9273,
2493.173,1365.5591,
2490.263,1406.7508,
2487.352,1417.4593,
2484.442,1428.3118,
2481.531,1409.2368,
2478.621,1402.4817,
2475.710,1407.1434,
2472.799,1438.4221,
2469.889,1409.4539,
2466.978,1397.0914,
2464.068,1419.9862,
2461.157,1424.6026,
2458.247,1406.6102,
2455.336,1425.9357,
2452.425,1459.3797,
2449.515,1451.1016,
2446.604,1463.7529,
2443.694,1483.0847,
2440.783,1481.3491,
2437.872,1497.1667,
2434.962,1508.8151,
2432.051,1510.1217,
2429.141,1486.3516,
2426.230,1503.3104,
2423.320,1518.0468,
2420.409,1513.8427,
2417.498,1520.507,
2414.588,1535.7646,
2411.677,1540.5204,
2408.767,1553.5748,
2405.856,1535.7155,
2402.946,1545.6194,
2400.035,1561.8656,
2397.124,1574.0087,
2394.214,1577.899,
2391.303,1548.7314,
2388.393,1549.8611,
2385.482,1531.7562,
2382.571,1521.2553,
2379.661,1524.8281,
2376.750,1578.0818,
2373.840,1599.2875,
2370.929,1611.7667,
2368.019,1628.5006,
2365.108,1647.0844,
2362.197,1652.4449,
2359.287,1640.1101,
2356.376,1667.8186,
2353.466,1639.6627,
2350.555,1662.2307,
2347.645,1669.9691,
2344.734,1672.9995,
2341.823,1691.6428,
2338.913,1681.1183,
2336.002,1702.449,
2333.092,1728.875,
2330.181,1716.0489,
2327.270,1732.6649,
2324.360,1726.4457,
2321.449,1756.1981,
2318.539,1746.1502,
2315.628,1731.6903,
2312.718,1742.2406,
2309.807,1768.7137,
2306.896,1753.3789,
2303.986,1760.966,
2301.075,1777.5133,
2298.165,1787.6636,
2295.254,1767.3489,
2292.344,1783.4062,
2289.433,1770.9214,
2286.522,1799.3034,
2283.612,1832.1263,
2280.701,1839.0095,
2277.791,1799.7184,
2274.880,1844.303,
2271.969,1850.1301,
2269.059,1869.1638,
2266.148,1867.9318,
2263.238,1846.7823,
2260.327,1896.4955,
2257.417,1887.6011,
2254.506,1908.761,
2251.595,1893.3041,
2248.685,1928.2287,
2245.774,1913.8425,
2242.864,1925.2541,
2239.953,1901.875,
2237.043,1911.6161,
2234.132,1936.7866,
2231.221,1961.9293,
2228.311,1947.9987,
2225.400,1944.3948,
2222.490,1998.9174,
2219.579,2008.9007,
2216.669,2011.8702,
2213.758,2038.3142,
2210.847,2060.7415,
2207.937,2057.1193,
2205.026,2094.0972,
2202.116,2099.0215,
2199.205,2118.1868,
2196.294,2157.0409,
2193.384,2179.4275,
2190.473,2171.4372,
2187.563,2255.759,
2184.652,2244.2252,
2181.742,2331.0135,
2178.831,2405.2915,
2175.920,2490.4251,
2173.010,2594.1057,
2170.099,2705.9321,
2167.189,2813.9226,
2164.278,2982.3524,
2161.368,3178.5821,
2158.457,3373.2031,
2155.546,3545.3088,
2152.636,3757.3002,
2149.725,3953.3514,
2146.815,4155.8686,
2143.904,4285.8303,
2140.993,4424.0654,
2138.083,4468.8779,
2135.172,4543.6987,
2132.262,4590.5361,
2129.351,4543.1953,
2126.441,4423.0397,
2123.530,4291.8322,
2120.619,4087.3806,
2117.709,3874.2816,
2114.798,3627.0741,
2111.888,3394.8171,
2108.977,3167.0868,
2106.067,2993.0108,
2103.156,2850.8956,
2100.245,2693.8242,
2097.335,2599.629,
2094.424,2505.9865,
2091.514,2476.9042,
2088.603,2407.3497,
2085.692,2414.9679,
2082.782,2363.3292,
2079.871,2315.2309,
2076.961,2335.1314,
2074.050,2321.7417,
2071.140,2275.2087,
2068.229,2257.1341,
2065.318,2259.7132,
2062.408,2231.9506,
2059.497,2238.2976,
2056.587,2237.3635,
2053.676,2246.1243,
2050.766,2203.6471,
2047.855,2203.4226,
2044.944,2162.7868,
2042.034,2222.534,
2039.123,2211.5518,
2036.213,2186.9506,
2033.302,2195.3315,
2030.391,2189.7226,
2027.481,2212.9113,
2024.570,2204.1755,
2021.660,2246.0368,
2018.749,2245.4951,
2015.839,2233.5883,
2012.928,2207.8414,
2010.017,2191.9771,
2007.107,2240.0619,
2004.196,2237.6845,
2001.286,2226.8538,
1998.375,2215.1329,
1995.465,2198.2893,
1992.554,2168.5811,
1989.643,2212.1814,
1986.733,2169.1057,
1983.822,2184.6682,
1980.912,2150.0634,
1978.001,2163.0698,
1975.090,2171.8597,
1972.180,2172.0825,
1969.269,2156.8175,
1966.359,2139.4965,
1963.448,2161.6346,
1960.538,2151.5873,
1957.627,2180.7574,
1954.716,2142.139,
1951.806,2128.1795,
1948.895,2123.2919,
1945.985,2177.607,
1943.074,2150.0118,
1940.164,2120.4137,
1937.253,2128.5578,
1934.342,2111.8151,
1931.432,2119.3072,
1928.521,2133.7714,
1925.611,2118.5765,
1922.700,2060.4316,
1919.790,2100.2732,
1916.879,2115.3868,
1913.968,2141.843,
1911.058,2145.4035,
1908.147,2150.8823,
1905.237,2123.1837,
1902.326,2077.0602,
1899.415,2082.7103,
1896.505,2026.3148,
1893.594,2062.4056,
1890.684,2117.6918,
1887.773,2115.8843,
1884.863,2105.1666,
1881.952,2142.6572,
1879.041,2140.2322,
1876.131,2104.743,
1873.220,2110.0786,
1870.310,2108.162,
1867.399,2114.763,
1864.489,2152.8625,
1861.578,2126.1004,
1858.667,2112.8361,
1855.757,2137.6686,
1852.846,2148.1417,
1849.936,2151.2244,
1847.025,2160.218,
1844.114,2201.6562,
1841.204,2178.382,
1838.293,2181.3326,
1835.383,2170.806,
1832.472,2170.5272,
1829.562,2208.7615,
1826.651,2229.8154,
1823.740,2216.6757,
1820.830,2227.6232,
1817.919,2202.7431,
1815.009,2239.5429,
1812.098,2234.3081,
1809.188,2269.4563,
1806.277,2243.5168,
1803.366,2283.8417,
1800.456,2283.5787,
1797.545,2309.4638,
1794.635,2277.681,
1791.724,2294.9914,
1788.813,2313.6657,
1785.903,2289.0959,
1782.992,2272.0254,
1780.082,2153.5311,
1777.171,2065.5372,
1774.261,2085.3757,
1771.350,2210.612,
1768.439,2340.6247,
1765.529,2395.6945,
1762.618,2387.4487,
1759.708,2380.0925,
1756.797,2411.3902,
1753.887,2435.5164,
1750.976,2424.5439,
1748.065,2453.8135,
1745.155,2438.6366,
1742.244,2423.1585,
1739.334,2477.5432,
1736.423,2521.3647,
1733.512,2500.7692,
1730.602,2510.8195,
1727.691,2525.5516,
1724.781,2596.3072,
1721.870,2531.984,
1718.960,2563.6756,
1716.049,2583.2647,
1713.138,2631.0448,
1710.228,2624.9502,
1707.317,2632.6053,
1704.407,2631.1798,
1701.496,2683.7448,
1698.586,2719.3665,
1695.675,2731.2321,
1692.764,2761.2234,
1689.854,2766.7018,
1686.943,2803.5934,
1684.033,2863.3848,
1681.122,2870.773,
1678.211,2841.1605,
1675.301,2969.4772,
1672.390,2961.0814,
1669.480,3030.2119,
1666.569,3072.2686,
1663.659,3104.4592,
1660.748,3200.8005,
1657.837,3248.7935,
1654.927,3290.1327,
1652.016,3303.9853,
1649.106,3430.148,
1646.195,3483.872,
1643.285,3607.6296,
1640.374,3684.4638,
1637.463,3762.2077,
1634.553,3946.136,
1631.642,4099.242,
1628.732,4315.5564,
1625.821,4430.1125,
1622.911,4790.8294,
1620.000,5115.7552,
1617.089,5399.2033,
1614.179,5764.4406,
1611.268,6100.3089,
1608.358,6415.0321,
1605.447,6739.1347,
1602.536,6836.1535,
1599.626,6870.3929,
1596.715,6865.6142,
1593.805,6774.5475,
1590.894,6749.7843,
1587.984,6600.6393,
1585.073,6506.4064,
1582.162,6496.3797,
1579.252,6442.0488,
1576.341,6393.0261,
1573.431,6325.9201,
1570.520,6322.8694,
1567.610,6275.4624,
1564.699,6218.7234,
1561.788,6170.7767,
1558.878,6097.4746,
1555.967,5994.5592,
1553.057,5867.8414,
1550.146,5750.2752,
1547.235,5626.4099,
1544.325,5501.4456,
1541.414,5377.0474,
1538.504,5278.8812,
1535.593,5223.9115,
1532.683,5137.641,
1529.772,5006.5383,
1526.861,4965.452,
1523.951,4997.0843,
1521.040,4951.2653,
1518.130,4892.9188,
1515.219,4868.5544,
1512.309,4854.9515,
1509.398,4731.0521,
1506.487,4671.4422,
1503.577,4637.323,
1500.666,4574.9357,
1497.756,4522.0109,
1494.845,4542.7922,
1491.934,4420.6703,
1489.024,4358.1082,
1486.113,4311.3687,
1483.203,4218.1701,
1480.292,4235.7244,
1477.382,4167.3244,
1474.471,4017.8858,
1471.560,3959.0077,
1468.650,3962.1241,
1465.739,3977.1228,
1462.829,3963.18,
1459.918,3911.2006,
1457.008,3844.3361,
1454.097,3849.1584,
1451.186,3872.8344,
1448.276,3857.0027,
1445.365,3883.518,
1442.455,3896.6277,
1439.544,3922.4908,
1436.633,3898.9813,
1433.723,3866.279,
1430.812,3803.1602,
1427.902,3856.6721,
1424.991,3848.1422,
1422.081,3854.2973,
1419.170,3892.8937,
1416.259,3924.797,
1413.349,3911.2387,
1410.438,3914.6719,
1407.528,3915.6563,
1404.617,3899.7839,
1401.707,3872.9169,
1398.796,3858.347,
1395.885,3844.4064,
1392.975,3829.1877,
1390.064,3843.5839,
1387.154,3852.3047,
1384.243,3841.2883,
1381.332,3829.539,
1378.422,3844.536,
1375.511,4031.8922,
1372.601,4143.6203,
1369.690,4205.1656,
1366.780,4297.8307,
1363.869,4371.4549,
1360.958,4470.7612,
1358.048,4539.7607,
1355.137,4602.5068,
1352.227,4694.4897,
1349.316,4805.4786,
1346.406,4924.3435,
1343.495,5023.3454,
1340.584,5065.8381,
1337.674,5154.8095,
1334.763,5245.5927,
1331.853,5238.1749,
1328.942,5312.59,
1326.032,5405.8839,
1323.121,5548.6161,
1320.210,5647.8123,
1317.300,5737.8494,
1314.389,5887.766,
1311.479,6007.2244,
1308.568,6096.607,
1305.657,6252.6471,
1302.747,6394.3349,
1299.836,6582.514,
1296.926,6734.5752,
1294.015,6835.7008,
1291.105,7129.5733,
1288.194,7354.9821,
1285.283,7569.4197,
1282.373,7699.7888,
1279.462,7845.0298,
1276.552,8031.4345,
1273.641,8195.8811,
1270.731,8274.9944,
1267.820,8252.3577,
1264.909,8211.1708,
1261.999,8148.0414,
1259.088,8152.602,
1256.178,7972.1627,
1253.267,7826.7957,
1250.356,7618.498,
1247.446,7316.4391,
1244.535,7037.4959,
1241.625,6794.205,
1238.714,6528.7778,
1235.804,6274.5986,
1232.893,6086.5237,
1229.982,5975.686,
1227.072,5881.5335,
1224.161,5758.8855,
1221.251,5627.4322,
1218.340,5539.3457,
1215.430,5448.0129,
1212.519,5409.4578,
1209.608,5375.1993,
1206.698,5284.1516,
1203.787,5285.6941,
1200.877,5279.3914,
1197.966,5368.4081,
1195.055,5522.1935,
1192.145,5663.5819,
1189.234,5831.6335,
1186.324,5966.7903,
1183.413,6001.4435,
1180.503,5973.8397,
1177.592,5951.3797,
1174.681,5898.5223,
1171.771,5909.9986,
1168.860,5915.3572,
1165.950,5840.8901,
1163.039,5856.3983,
1160.129,5887.3909,
1157.218,5828.2068,
1154.307,5739.2601,
1151.397,5717.6143,
1148.486,5706.5349,
1145.576,5646.3716,
1142.665,5611.743,
1139.754,5609.6886,
1136.844,5540.545,
1133.933,5475.6846,
1131.023,5428.6865,
1128.112,5375.3077,
1125.202,5329.189,
1122.291,5349.1338,
1119.380,5371.9096,
1116.470,5375.4398,
1113.559,5363.503,
1110.649,5322.5488,
1107.738,5309.3048,
1104.828,5315.2911,
1101.917,5278.0036,
1099.006,5203.122,
1096.096,5274.4987,
1093.185,5268.3527,
1090.275,5313.1941,
1087.364,5351.3199,
1084.453,5412.2469,
1081.543,5483.1798,
1078.632,5515.533,
1075.722,5499.6452,
1072.811,5526.6411,
1069.901,5495.2037,
1066.990,5456.5001,
1064.079,5396.8365,
1061.169,5409.8792,
1058.258,5436.4871,
1055.348,5440.3998,
1052.437,5470.2223,
1049.527,5516.0288,
1046.616,5468.2432,
1043.705,5497.5594,
1040.795,5511.0675,
1037.884,5579.6324,
1034.974,5621.4124,
1032.063,5589.267,
1029.153,5621.911,
1026.242,5697.1622,
1023.331,5640.7121,
1020.421,5748.0794,
1017.510,5786.4284,
1014.600,5814.3616,
1011.689,5869.7257,
1008.778,5899.0133,
1005.868,6029.2959,
1002.957,6187.6011,
1000.047,6367.6671,
997.136,6562.7219,
994.226,6683.8592,
991.315,6727.3577,
988.404,6744.3637,
985.494,6685.4504,
982.583,6711.1471,
979.673,6660.0015,
976.762,6646.9202,
973.852,6718.6186,
970.941,6783.9066,
968.030,6743.2334,
965.120,6768.2044,
962.209,6846.6382,
959.299,6804.6316,
956.388,6824.4323,
953.477,6830.3362,
950.567,6797.672,
947.656,6825.2308,
944.746,6888.9475,
941.835,6891.0652,
938.925,6861.9208,
936.014,6838.276,
933.103,6792.8001,
930.193,6726.0735,
927.282,6725.6047,
924.372,6628.3599,
921.461,6471.5405,
918.551,6372.8194,
915.640,6301.48,
912.729,6218.6722,
909.819,6124.5363,
906.908,6076.5181,
903.998,6040.4697,
901.087,6083.432,
898.176,6162.0261,
895.266,6219.049,
892.355,6241.581,
889.445,6325.5077,
886.534,6316.6914,
883.624,6410.4172,
880.713,6481.3721,
877.802,6488.5476,
874.892,6398.3087,
871.981,6130.9553,
869.071,6007.3141,
866.160,6077.6396,
863.250,6265.6518,
860.339,6382.4082,
857.428,6350.0054,
854.518,6335.179,
851.607,6241.9872,
848.697,6079.37,
845.786,6053.8733,
842.875,6114.2461,
839.965,6183.536,
837.054,6309.3168,
834.144,6259.5916,
831.233,6313.2038,
828.323,6257.8304,
825.412,6168.2311,
822.501,6150.4916,
819.591,6059.5877,
816.680,5924.6632,
813.770,5838.6223,
810.859,5784.313,
807.949,5761.836,
805.038,5762.9281,
802.127,5664.1528,
799.217,5621.3324,
796.306,5608.1723,
793.396,5607.6536,
790.485,5598.5566,
787.574,5564.4834,
784.664,5685.86,
781.753,5717.9398,
778.843,5765.0221,
775.932,5844.0596,
773.022,5905.6305,
770.111,5794.4399,
767.200,5756.4225,
764.290,5753.2317,
761.379,5735.0307,
758.469,5677.0649,
755.558,5592.504,
752.648,5647.0824,
749.737,5605.6519,
746.826,5565.7533,
743.916,5520.881,
741.005,5420.1497,
738.095,5236.6655,
735.184,5179.122,
732.274,5171.1858,
729.363,5239.0776,
726.452,5382.0475,
723.542,5493.7438,
720.631,5590.0906,
717.721,5637.9246,
714.810,5664.6761,
711.899,5674.6571,
708.989,5635.1178,
706.078,5684.5558,
703.168,5677.4439,
700.257,5648.7847,
697.347,5613.2676,
694.436,5568.9443,
691.525,5608.3307,
688.615,5594.2342,
685.704,5592.5307,
682.794,5612.5558,
679.883,5629.3528,
676.973,5662.209,
674.062,5682.9128,
671.151,5670.7118,
668.241,5641.5395,
665.330,5629.4002,
662.420,5598.2496,
659.509,5608.3832,
656.598,5610.5183,
653.688,5628.9402,
650.777,5723.361,
647.867,5737.6949,
644.956,5757.5921,
642.046,5662.1525,
639.135,5524.8227,
636.224,5570.0819,
633.314,5611.3667,
630.403,5610.0508,
627.493,5599.9546,
624.582,5583.9853,
621.672,5526.1697,
618.761,5529.1946,
615.850,5510.4885,
612.940,5552.2774,
610.029,5659.6141,
607.119,5628.0289,
604.208,5592.2144,
601.297,5606.2935,
598.387,5620.9766,
595.476,5591.9947,
592.566,5625.0516,
589.655,5576.4522,
586.745,5520.4029,
583.834,5493.1213,
580.923,5518.7091,
578.013,5491.2434,
575.102,5524.5998,
572.192,5534.1525,
569.281,5515.9966,
566.371,5622.4334,
563.460,5611.0055,
560.549,5568.2528,
557.639,5572.6224,
554.728,5682.2546,
551.818,5704.1034,
548.907,5769.2069,
545.996,5795.8225,
543.086,5781.4046,
540.175,5802.428,
537.265,5755.3483,
534.354,5798.583,
531.444,5858.2031,
528.533,5855.1994,
525.622,5873.8221,
522.712,5956.1462,
519.801,6049.2637,
516.891,6117.875,
513.980,6117.875,
511.070,6155.2054,
508.159,6255.8818,
505.248,6368.6536,
502.338,6432.9808,
499.427,6607.4148,
496.517,6730.2386,
493.606,6814.4484,
490.695,6867.8706,
487.785,6889.4247,
484.874,6944.5729,
481.964,6928.4402,
479.053,6853.3727,
476.143,6801.1512,
473.232,6733.8481,
470.321,6743.9085,
467.411,6779.6087,
464.500,6777.6592,
461.590,6848.1073,
458.679,6928.9577,
455.769,6999.9843,
452.858,7058.8392,
449.947,7183.36,
447.037,7259.8429,
444.126,7331.6932,
441.216,7398.6687,
438.305,7403.2403,
435.395,7403.2194,
432.484,7437.0487,
429.573,7470.4973,
426.663,7408.9259,
423.752,7166.0551,
420.842,6942.7666,
417.931,6816.2506,
415.020,6873.8858,
412.110,7393.1255,
409.199,7702.1903,
406.289,7832.2865,
403.378,7848.437,
400.468,7719.162,
397.557,7764.2521,
394.646,7848.8378,
391.736,7858.8307,
388.825,7919.9235,
385.915,7961.2915,
383.004,8001.5775,
380.094,8056.0191,
377.183,8156.851,
374.272,8269.5487,
371.362,8322.038,
368.451,8279.2457,
365.541,8318.2736,
362.630,8347.9934,
359.719,8378.3774,
356.809,8412.3766,
353.898,8404.1398,
350.988,8442.019,
348.077,8471.8093,
345.167,8465.5456,
342.256,8538.0113,
339.345,8508.9203,
336.435,8469.3165,
333.524,8482.9889,
330.614,8550.0529,
327.703,8550.8522,
324.793,8559.4587,
321.882,8638.9327,
318.971,8662.7229,
316.061,8752.9118,
313.150,8857.1202,
310.240,8915.7473,
307.329,9025.0705,
304.418,9061.9476,
301.508,9053.6935,
298.597,9049.251,
295.687,9007.5633,
292.776,9038.7086,
289.866,9139.9233,
286.955,9282.4973,
284.044,9372.4499,
281.134,9411.7641,
278.223,9425.1799,
275.313,9529.8133,
272.402,9573.3684,
269.492,9543.2482,
266.581,9450.0775,
263.670,9522.8604,
260.760,9631.113,
257.849,9778.8812,
254.939,9973.3601,
252.028,10025.096,
249.117,10054.382,
246.207,10067.064,
243.296,10067.796,
240.386,10108.36,
237.475,10146.011,
234.565,10168.309,
231.654,10145.667,
228.743,10141.45,
225.833,10158.644,
222.922,10198.608,
220.012,10235.764,
217.101,10296.947,
214.191,10340.663,
211.280,10316.656,
208.369,10311.511,
205.459,10283.924,
202.548,10251.769,
199.638,10291.68,
196.727,10280.284,
193.816,10277.013,
190.906,10305.313,
187.995,10374.819,
185.085,10381.379,
182.174,10394.783,
179.264,10516.208,
176.353,10488.865,
173.442,10513.733,
170.532,10582.25,
167.621,10448.148,
164.711,10273.125,
161.800,10009.51,
158.890,9604.3029,
155.979,9043.2679,
153.068,8372.9132,
150.158,7563.2565,
147.247,6460.4819,
144.337,5373.3973,
141.426,4288.6415,
138.516,3200.4005,
135.605,2296.5755,
132.694,1564.3939,
129.784,1006.1586,
126.873,684.35019,
123.963,460.6735,
121.052,308.29674,
118.141,226.19801,
115.231,178.97736,
112.320,147.16592,
109.410,125.64799,
106.499,103.57117,
103.589,97.194237,
100.678,92.887161,
97.767,85.066848,
94.857,73.787175,
91.946,66.053224,
89.036,61.31051,
86.125,57.764484,
83.215,49.442115,
80.304,43.593298,
77.393,45.717808,
74.483,44.56473,
71.572,44.599704,
68.662,45.459395,
65.751,41.220689,
62.840,37.46649,
59.930,34.125855,
57.019,31.305527,
54.109,29.083517,
51.198,28.779828,
48.288,30.875,
45.377,30.875,
42.466,30.875,
39.556,30.875,
36.645,30.875,
33.735,30.355752,
30.824,27.887017,
27.914,21.57644,
25.003,25.233462,
22.092,29.489523,
19.182,33.172477,
16.271,42.265849,
13.361,99.400163,
10.450,229.60457,
7.539,559.20942,
4.629,839.01319,
1.718,997.78276,
-1.192,922.49115,
-4.103,540.3736,
-7.013,208.36427,
-9.924,-1.125,
