,PL5ACF~1,
Wavenumbers [1/cm],Intensity,
3014.167,5.25,
3011.256,-0.09996779,
3008.346,411.80508,
3005.435,500.7871,
3002.525,500.59004,
2999.614,546.29028,
2996.704,547.66547,
2993.793,564.98387,
2990.882,585.15835,
2987.972,591.25504,
2985.061,613.97417,
2982.151,629.80125,
2979.240,657.9477,
2976.329,681.52048,
2973.419,691.46515,
2970.508,720.36656,
2967.598,745.24639,
2964.687,726.20516,
2961.777,737.21591,
2958.866,770.25148,
2955.955,775.07964,
2953.045,830.56317,
2950.134,833.1451,
2947.224,852.81938,
2944.313,873.59829,
2941.403,873.51186,
2938.492,890.95189,
2935.581,901.44874,
2932.671,896.12983,
2929.760,917.16926,
2926.850,925.82481,
2923.939,943.53038,
2921.028,946.87358,
2918.118,964.33061,
2915.207,978.07922,
2912.297,931.47426,
2909.386,964.02373,
2906.476,970.98593,
2903.565,968.50778,
2900.654,970.80309,
2897.744,939.55173,
2894.833,954.59037,
2891.923,950.359,
2889.012,907.79335,
2886.102,870.23517,
2883.191,814.28304,
2880.280,608.58008,
2877.370,301.71565,
2874.459,166.88617,
2871.549,510.96283,
2868.638,850.90551,
2865.727,909.07683,
2862.817,944.52139,
2859.906,934.94799,
2856.996,997.66622,
2854.085,995.12391,
2851.175,1020.3193,
2848.264,1015.0295,
2845.353,1039.754,
2842.443,1025.2361,
2839.532,1057.429,
2836.622,1048.4915,
2833.711,1024.7916,
2830.801,1032.4294,
2827.890,1054.2692,
2824.979,1068.0779,
2822.069,1088.7269,
2819.158,1065.2931,
2816.248,1098.2616,
2813.337,1094.1366,
2810.427,1099.9415,
2807.516,1110.6169,
2804.605,1129.024,
2801.695,1112.9342,
2798.784,1138.5148,
2795.874,1100.2553,
2792.963,1090.7499,
2790.052,1072.2534,
2787.142,1080.6711,
2784.231,1059.1227,
2781.321,1072.3244,
2778.410,1087.066,
2775.500,1091.821,
2772.589,1076.2125,
2769.678,1098.6766,
2766.768,1116.9898,
2763.857,1085.7818,
2760.947,1147.854,
2758.036,1141.3773,
2755.126,1126.3056,
2752.215,1120.1411,
2749.304,1140.2284,
2746.394,1130.754,
2743.483,1152.35,
2740.573,1140.8296,
2737.662,1167.7826,
2734.751,1141.6434,
2731.841,1160.0083,
2728.930,1159.6608,
2726.020,1181.3571,
2723.109,1155.1988,
2720.199,1178.0344,
2717.288,1197.9143,
2714.377,1199.5752,
2711.467,1202.0698,
2708.556,1216.0155,
2705.646,1247.6162,
2702.735,1247.4124,
2699.825,1239.3373,
2696.914,1224.7259,
2694.003,1224.5069,
2691.093,1219.5533,
2688.182,1220.4144,
2685.272,1220.7991,
2682.361,1243.5502,
2679.450,1236.0813,
2676.540,1250.4532,
2673.629,1250.9586,
2670.719,1263.7241,
2667.808,1254.6118,
2664.898,1256.107,
2661.987,1276.7169,
2659.076,1259.1918,
2656.166,1286.2196,
2653.255,1308.2874,
2650.345,1309.6021,
2647.434,1353.5352,
2644.524,1330.6169,
2641.613,1317.7641,
2638.702,1319.1869,
2635.792,1337.1573,
2632.881,1331.5595,
2629.971,1330.6325,
2627.060,1354.5887,
2624.149,1322.7344,
2621.239,1346.7708,
2618.328,1326.1825,
2615.418,1350.2364,
2612.507,1350.0445,
2609.597,1375.3119,
2606.686,1368.9648,
2603.775,1369.0159,
2600.865,1373.7244,
2597.954,1393.2083,
2595.044,1416.8753,
2592.133,1425.6385,
2589.223,1433.2742,
2586.312,1445.1495,
2583.401,1431.0858,
2580.491,1448.4134,
2577.580,1448.2962,
2574.670,1469.6083,
2571.759,1440.6892,
2568.848,1453.4766,
2565.938,1456.7262,
2563.027,1447.7114,
2560.117,1445.222,
2557.206,1460.8662,
2554.296,1489.1081,
2551.385,1487.9939,
2548.474,1484.0649,
2545.564,1480.4083,
2542.653,1501.0285,
2539.743,1497.904,
2536.832,1500.3528,
2533.922,1526.0608,
2531.011,1515.6249,
2528.100,1526.7134,
2525.190,1560.1295,
2522.279,1520.5314,
2519.369,1530.4762,
2516.458,1531.3548,
2513.548,1554.1859,
2510.637,1546.5411,
2507.726,1563.1273,
2504.816,1579.878,
2501.905,1534.9463,
2498.995,1544.9818,
2496.084,1574.0897,
2493.173,1568.855,
2490.263,1598.7438,
2487.352,1628.25,
2484.442,1627.6804,
2481.531,1625.1968,
2478.621,1620.4111,
2475.710,1639.3727,
2472.799,1645.3846,
2469.889,1624.9453,
2466.978,1660.5075,
2464.068,1637.689,
2461.157,1623.9025,
2458.247,1621.2353,
2455.336,1645.0348,
2452.425,1676.6462,
2449.515,1663.354,
2446.604,1672.6601,
2443.694,1687.4597,
2440.783,1742.402,
2437.872,1720.271,
2434.962,1740.9459,
2432.051,1723.7377,
2429.141,1733.5028,
2426.230,1738.1848,
2423.320,1756.8932,
2420.409,1752.5704,
2417.498,1756.0786,
2414.588,1767.2347,
2411.677,1782.5369,
2408.767,1789.4911,
2405.856,1775.0548,
2402.946,1790.0007,
2400.035,1798.7547,
2397.124,1811.5334,
2394.214,1787.5504,
2391.303,1808.8191,
2388.393,1785.3337,
2385.482,1755.3515,
2382.571,1715.0983,
2379.661,1740.1332,
2376.750,1808.4568,
2373.840,1829.6625,
2370.929,1857.9684,
2368.019,1879.4901,
2365.108,1895.6688,
2362.197,1901.0144,
2359.287,1923.0149,
2356.376,1903.2923,
2353.466,1899.6284,
2350.555,1916.3104,
2347.645,1935.0262,
2344.734,1937.826,
2341.823,1965.7857,
2338.913,1941.2888,
2336.002,1974.0705,
2333.092,1979.9972,
2330.181,1998.6208,
2327.270,2002.415,
2324.360,2019.191,
2321.449,2013.2942,
2318.539,2008.1675,
2315.628,2028.6449,
2312.718,2008.935,
2309.807,2008.7282,
2306.896,2027.3439,
2303.986,2048.8927,
2301.075,2020.3777,
2298.165,2076.5012,
2295.254,2070.7239,
2292.344,2056.3495,
2289.433,2081.6091,
2286.522,2103.6517,
2283.612,2115.4898,
2280.701,2143.676,
2277.791,2115.25,
2274.880,2123.1679,
2271.969,2153.7973,
2269.059,2135.5824,
2266.148,2156.457,
2263.238,2210.7326,
2260.327,2218.0772,
2257.417,2184.2644,
2254.506,2218.5093,
2251.595,2216.5446,
2248.685,2254.1787,
2245.774,2250.4262,
2242.864,2242.6116,
2239.953,2263.3879,
2237.043,2252.0539,
2234.132,2251.9278,
2231.221,2311.0435,
2228.311,2272.4498,
2225.400,2296.25,
2222.490,2299.7778,
2219.579,2325.1652,
2216.669,2368.1355,
2213.758,2381.8134,
2210.847,2390.7588,
2207.937,2420.1506,
2205.026,2456.029,
2202.116,2433.7871,
2199.205,2462.5378,
2196.294,2499.3999,
2193.384,2535.8025,
2190.473,2517.5164,
2187.563,2608.4095,
2184.652,2644.8647,
2181.742,2689.7758,
2178.831,2779.0283,
2175.920,2881.2009,
2173.010,3020.5074,
2170.099,3135.1077,
2167.189,3331.4053,
2164.278,3524.2651,
2161.368,3781.6707,
2158.457,4000.3215,
2155.546,4236.1359,
2152.636,4476.5263,
2149.725,4707.6727,
2146.815,4942.4094,
2143.904,5088.1905,
2140.993,5210.2285,
2138.083,5298.3685,
2135.172,5334.5779,
2132.262,5355.25,
2129.351,5351.4741,
2126.441,5260.1332,
2123.530,5096.5338,
2120.619,4819.4076,
2117.709,4511.318,
2114.798,4236.7222,
2111.888,4008.6297,
2108.977,3735.8658,
2106.067,3520.7014,
2103.156,3347.7554,
2100.245,3158.1829,
2097.335,3038.606,
2094.424,2938.5908,
2091.514,2892.7982,
2088.603,2831.9413,
2085.692,2793.6553,
2082.782,2760.9248,
2079.871,2715.1053,
2076.961,2687.6061,
2074.050,2718.6803,
2071.140,2660.8483,
2068.229,2632.8633,
2065.318,2639.4332,
2062.408,2619.0231,
2059.497,2601.1845,
2056.587,2599.8194,
2053.676,2572.3189,
2050.766,2579.0183,
2047.855,2562.8862,
2044.944,2494.3541,
2042.034,2581.3079,
2039.123,2591.2668,
2036.213,2569.0945,
2033.302,2603.0757,
2030.391,2566.2176,
2027.481,2556.0791,
2024.570,2569.1498,
2021.660,2604.1213,
2018.749,2586.8444,
2015.839,2558.7828,
2012.928,2608.8591,
2010.017,2603.5366,
2007.107,2582.5061,
2004.196,2590.9048,
2001.286,2598.4585,
1998.375,2535.9262,
1995.465,2534.9946,
1992.554,2542.25,
1989.643,2544.1809,
1986.733,2504.6412,
1983.822,2526.8519,
1980.912,2528.1919,
1978.001,2556.2259,
1975.090,2492.8744,
1972.180,2513.6609,
1969.269,2535.4942,
1966.359,2535.6825,
1963.448,2522.7176,
1960.538,2551.1449,
1957.627,2553.0085,
1954.716,2540.5947,
1951.806,2544.0642,
1948.895,2504.8006,
1945.985,2517.5523,
1943.074,2498.6891,
1940.164,2488.3556,
1937.253,2452.4504,
1934.342,2442.8912,
1931.432,2448.8588,
1928.521,2465.927,
1925.611,2459.0684,
1922.700,2416.4268,
1919.790,2415.0014,
1916.879,2440.4365,
1913.968,2499.1799,
1911.058,2461.7965,
1908.147,2447.0953,
1905.237,2462.2204,
1902.326,2394.5655,
1899.415,2414.7304,
1896.505,2324.5634,
1893.594,2358.8781,
1890.684,2420.1713,
1887.773,2472.0687,
1884.863,2480.5256,
1881.952,2500.7798,
1879.041,2472.9385,
1876.131,2462.0644,
1873.220,2452.6615,
1870.310,2479.0975,
1867.399,2486.17,
1864.489,2504.5615,
1861.578,2509.3546,
1858.667,2485.7979,
1855.757,2517.83,
1852.846,2543.7679,
1849.936,2546.9948,
1847.025,2540.4811,
1844.114,2555.6288,
1841.204,2553.4073,
1838.293,2572.2251,
1835.383,2571.4015,
1832.472,2538.6796,
1829.562,2567.4109,
1826.651,2580.9933,
1823.740,2604.6409,
1820.830,2622.9666,
1817.919,2612.22,
1815.009,2604.9688,
1812.098,2620.4075,
1809.188,2637.2577,
1806.277,2575.6664,
1803.366,2639.3165,
1800.456,2641.2166,
1797.545,2610.8597,
1794.635,2652.6379,
1791.724,2635.6771,
1788.813,2676.4541,
1785.903,2665.3316,
1782.992,2548.3527,
1780.082,2394.048,
1777.171,2257.9036,
1774.261,2260.351,
1771.350,2464.4133,
1768.439,2683.6603,
1765.529,2752.2519,
1762.618,2769.0813,
1759.708,2773.7391,
1756.797,2776.4773,
1753.887,2804.0722,
1750.976,2832.6846,
1748.065,2842.9366,
1745.155,2829.9211,
1742.244,2815.2908,
1739.334,2847.17,
1736.423,2855.478,
1733.512,2915.5551,
1730.602,2941.4941,
1727.691,2956.8356,
1724.781,2995.0728,
1721.870,3000.2262,
1718.960,2998.4278,
1716.049,3013.3515,
1713.138,3041.0449,
1710.228,3040.8985,
1707.317,3079.1711,
1704.407,3076.1644,
1701.496,3131.766,
1698.586,3173.2854,
1695.675,3214.6141,
1692.764,3229.5574,
1689.854,3213.0295,
1686.943,3209.3512,
1684.033,3356.4997,
1681.122,3369.0971,
1678.211,3387.0787,
1675.301,3402.2037,
1672.390,3498.3936,
1669.480,3546.5388,
1666.569,3583.3418,
1663.659,3669.5076,
1660.748,3747.3324,
1657.837,3854.081,
1654.927,3893.0072,
1652.016,3967.635,
1649.106,4026.2612,
1646.195,4147.8324,
1643.285,4215.3262,
1640.374,4349.1733,
1637.463,4441.8261,
1634.553,4585.0578,
1631.642,4774.6387,
1628.732,4994.1343,
1625.821,5310.4522,
1622.911,5617.5087,
1620.000,5928.3066,
1617.089,6313.5087,
1614.179,6744.9544,
1611.268,7153.9327,
1608.358,7516.2064,
1605.447,7822.7095,
1602.536,8086.2682,
1599.626,8057.3334,
1596.715,8090.4616,
1593.805,7992.2962,
1590.894,7897.467,
1587.984,7835.1506,
1585.073,7783.8583,
1582.162,7667.7148,
1579.252,7589.7872,
1576.341,7574.8468,
1573.431,7498.2821,
1570.520,7520.8195,
1567.610,7456.0135,
1564.699,7332.096,
1561.788,7243.842,
1558.878,7168.9945,
1555.967,7027.3123,
1553.057,6878.5785,
1550.146,6764.952,
1547.235,6656.1818,
1544.325,6530.2066,
1541.414,6397.3423,
1538.504,6280.7869,
1535.593,6164.9773,
1532.683,6095.8718,
1529.772,6027.8385,
1526.861,5972.034,
1523.951,5990.5505,
1521.040,5935.7412,
1518.130,5904.5548,
1515.219,5850.371,
1512.309,5801.8896,
1509.398,5724.9596,
1506.487,5598.1327,
1503.577,5521.5762,
1500.666,5487.4906,
1497.756,5384.4955,
1494.845,5360.0082,
1491.934,5282.1303,
1489.024,5245.5556,
1486.113,5152.4557,
1483.203,5076.8611,
1480.292,5002.9146,
1477.382,4897.4932,
1474.471,4790.0709,
1471.560,4785.2943,
1468.650,4694.8586,
1465.739,4637.7212,
1462.829,4588.2791,
1459.918,4542.1228,
1457.008,4554.6503,
1454.097,4559.4529,
1451.186,4557.2906,
1448.276,4596.3673,
1445.365,4602.2129,
1442.455,4577.8704,
1439.544,4556.0066,
1436.633,4549.6482,
1433.723,4552.8852,
1430.812,4528.2156,
1427.902,4516.6255,
1424.991,4574.439,
1422.081,4588.1772,
1419.170,4579.7453,
1416.259,4667.3569,
1413.349,4630.8517,
1410.438,4681.5282,
1407.528,4637.8634,
1404.617,4601.947,
1401.707,4572.3937,
1398.796,4550.8024,
1395.885,4533.6199,
1392.975,4507.1671,
1390.064,4519.0695,
1387.154,4493.7353,
1384.243,4451.3175,
1381.332,4417.3446,
1378.422,4460.0076,
1375.511,4649.2374,
1372.601,4825.5052,
1369.690,4864.2522,
1366.780,5015.5685,
1363.869,5078.9502,
1360.958,5225.575,
1358.048,5373.9738,
1355.137,5449.3287,
1352.227,5512.2568,
1349.316,5639.4605,
1346.406,5773.9384,
1343.495,5830.6612,
1340.584,5924.5702,
1337.674,6017.8645,
1334.763,6132.8026,
1331.853,6173.6007,
1328.942,6202.8234,
1326.032,6358.7711,
1323.121,6508.8405,
1320.210,6603.8555,
1317.300,6764.6424,
1314.389,6901.4453,
1311.479,7015.3368,
1308.568,7204.8724,
1305.657,7405.9077,
1302.747,7515.6442,
1299.836,7689.9628,
1296.926,7917.5394,
1294.015,8095.8882,
1291.105,8364.7709,
1288.194,8609.5207,
1285.283,8899.247,
1282.373,9059.0623,
1279.462,9218.032,
1276.552,9379.5022,
1273.641,9495.2843,
1270.731,9559.3112,
1267.820,9530.694,
1264.909,9504.4049,
1261.999,9575.3872,
1259.088,9496.9448,
1256.178,9334.662,
1253.267,9223.8585,
1250.356,8981.5288,
1247.446,8624.7839,
1244.535,8298.5808,
1241.625,7966.9875,
1238.714,7612.6914,
1235.804,7374.7212,
1232.893,7180.7924,
1229.982,6984.7543,
1227.072,6881.5487,
1224.161,6749.8554,
1221.251,6639.8869,
1218.340,6522.1476,
1215.430,6430.2072,
1212.519,6366.6317,
1209.608,6303.8368,
1206.698,6239.0157,
1203.787,6204.6922,
1200.877,6204.2181,
1197.966,6332.7979,
1195.055,6489.4218,
1192.145,6618.9354,
1189.234,6837.507,
1186.324,6987.4366,
1183.413,7039.849,
1180.503,7064.7167,
1177.592,7065.4111,
1174.681,6991.6027,
1171.771,6978.684,
1168.860,6910.8092,
1165.950,6946.1771,
1163.039,6915.0442,
1160.129,6882.5036,
1157.218,6833.3104,
1154.307,6777.151,
1151.397,6716.4943,
1148.486,6608.054,
1145.576,6582.2455,
1142.665,6536.0741,
1139.754,6491.5686,
1136.844,6429.027,
1133.933,6366.3676,
1131.023,6349.1082,
1128.112,6319.4703,
1125.202,6238.2114,
1122.291,6225.3915,
1119.380,6268.1634,
1116.470,6259.3381,
1113.559,6262.8895,
1110.649,6226.269,
1107.738,6190.1755,
1104.828,6178.7466,
1101.917,6170.711,
1099.006,6135.5389,
1096.096,6099.465,
1093.185,6102.977,
1090.275,6183.3678,
1087.364,6246.848,
1084.453,6329.6835,
1081.543,6428.6454,
1078.632,6484.7884,
1075.722,6475.465,
1072.811,6513.9469,
1069.901,6495.6084,
1066.990,6410.9919,
1064.079,6400.7772,
1061.169,6336.2123,
1058.258,6289.5667,
1055.348,6306.6594,
1052.437,6330.861,
1049.527,6401.5591,
1046.616,6435.4434,
1043.705,6449.2699,
1040.795,6448.419,
1037.884,6466.9852,
1034.974,6519.6508,
1032.063,6574.7269,
1029.153,6577.9118,
1026.242,6591.7511,
1023.331,6633.0807,
1020.421,6674.0138,
1017.510,6720.746,
1014.600,6753.4398,
1011.689,6802.5897,
1008.778,6911.2196,
1005.868,6969.6284,
1002.957,7011.7857,
1000.047,7319.6421,
997.136,7666.0056,
994.226,7851.2189,
991.315,7869.3342,
988.404,7842.3328,
985.494,7795.1951,
982.583,7748.0845,
979.673,7752.2247,
976.762,7775.6244,
973.852,7790.576,
970.941,7797.5849,
968.030,7823.6259,
965.120,7899.3932,
962.209,7933.4949,
959.299,7915.8778,
956.388,7929.2085,
953.477,7953.4154,
950.567,7974.0141,
947.656,8004.1305,
944.746,7980.3429,
941.835,7997.8757,
938.925,7973.2958,
936.014,7955.215,
933.103,7944.835,
930.193,7919.0648,
927.282,7864.5673,
924.372,7759.712,
921.461,7612.9616,
918.551,7467.0723,
915.640,7337.1828,
912.729,7226.6574,
909.819,7144.362,
906.908,7152.7863,
903.998,7072.9182,
901.087,7122.2657,
898.176,7171.7939,
895.266,7215.2595,
892.355,7288.2918,
889.445,7299.2023,
886.534,7411.1228,
883.624,7504.5702,
880.713,7586.2027,
877.802,7546.139,
874.892,7320.2491,
871.981,7021.7262,
869.071,6787.8105,
866.160,6943.1985,
863.250,7195.8497,
860.339,7374.9619,
857.428,7418.1106,
854.518,7370.2671,
851.607,7198.0288,
848.697,6935.08,
845.786,6803.3017,
842.875,6907.1847,
839.965,7176.3237,
837.054,7319.2083,
834.144,7404.5698,
831.233,7374.5867,
828.323,7325.5323,
825.412,7283.4738,
822.501,7243.3988,
819.591,7205.3844,
816.680,7064.8267,
813.770,6914.347,
810.859,6803.7359,
807.949,6746.9109,
805.038,6716.9092,
802.127,6606.6102,
799.217,6613.394,
796.306,6554.5468,
793.396,6525.1052,
790.485,6557.0923,
787.574,6562.3051,
784.664,6616.4325,
781.753,6718.8458,
778.843,6818.1591,
775.932,6872.7068,
773.022,6866.2069,
770.111,6846.585,
767.200,6802.6165,
764.290,6690.4329,
761.379,6659.2122,
758.469,6696.3009,
755.558,6597.01,
752.648,6555.4653,
749.737,6544.6388,
746.826,6514.8105,
743.916,6437.8532,
741.005,6300.5989,
738.095,6100.0653,
735.184,5964.7007,
732.274,5947.0708,
729.363,6078.8437,
726.452,6316.8311,
723.542,6458.4749,
720.631,6536.5876,
717.721,6603.5048,
714.810,6631.1591,
711.899,6639.8738,
708.989,6719.7594,
706.078,6705.8265,
703.168,6650.029,
700.257,6629.0397,
697.347,6641.3811,
694.436,6619.7263,
691.525,6600.4349,
688.615,6651.5942,
685.704,6676.9112,
682.794,6667.484,
679.883,6671.566,
676.973,6745.2921,
674.062,6773.0116,
671.151,6735.102,
668.241,6691.0684,
665.330,6727.9137,
662.420,6572.9597,
659.509,6592.0445,
656.598,6638.56,
653.688,6717.1503,
650.777,6904.277,
647.867,6905.0733,
644.956,6859.4329,
642.046,6724.6983,
639.135,6574.0404,
636.224,6573.5007,
633.314,6623.5188,
630.403,6603.7334,
627.493,6578.9456,
624.582,6570.4826,
621.672,6549.0987,
618.761,6558.8892,
615.850,6573.8207,
612.940,6611.5974,
610.029,6662.8304,
607.119,6642.3,
604.208,6567.1186,
601.297,6553.2026,
598.387,6562.6575,
595.476,6547.8099,
592.566,6564.3383,
589.655,6515.4188,
586.745,6476.4008,
583.834,6462.25,
580.923,6462.3069,
578.013,6471.7237,
575.102,6476.5444,
572.192,6498.2579,
569.281,6549.5754,
566.371,6634.8814,
563.460,6662.2976,
560.549,6619.0857,
557.639,6596.1348,
554.728,6684.8322,
551.818,6757.4016,
548.907,6792.7512,
545.996,6806.0276,
543.086,6801.7138,
540.175,6776.0185,
537.265,6806.8426,
534.354,6871.9275,
531.444,6922.2994,
528.533,6923.0441,
525.622,7004.5186,
522.712,7069.5768,
519.801,7140.7293,
516.891,7228.4737,
513.980,7338.4237,
511.070,7355.9978,
508.159,7436.6158,
505.248,7582.5888,
502.338,7768.2155,
499.427,7835.3649,
496.517,7939.7954,
493.606,8052.0129,
490.695,8148.99,
487.785,8197.4868,
484.874,8197.4953,
481.964,8204.0472,
479.053,8206.3799,
476.143,8152.6226,
473.232,8137.0201,
470.321,8120.0856,
467.411,8108.7696,
464.500,8113.6379,
461.590,8128.9527,
458.679,8221.2971,
455.769,8350.9068,
452.858,8478.9542,
449.947,8504.9279,
447.037,8605.5114,
444.126,8696.8257,
441.216,8757.4362,
438.305,8816.1049,
435.395,8773.766,
432.484,8805.5953,
429.573,8867.3698,
426.663,8782.234,
423.752,8335.1786,
420.842,7809.4992,
417.931,7444.4322,
415.020,7561.2193,
412.110,8432.9432,
409.199,8966.8977,
406.289,9189.5442,
403.378,9180.4944,
400.468,8957.476,
397.557,9023.5279,
394.646,9224.0879,
391.736,9416.3224,
388.825,9418.5851,
385.915,9417.1212,
383.004,9444.0899,
380.094,9521.1254,
377.183,9616.6899,
374.272,9712.1831,
371.362,9786.1437,
368.451,9827.8061,
365.541,9886.3479,
362.630,9941.0331,
359.719,9964.9629,
356.809,9948.3763,
353.898,10000.043,
350.988,10029.982,
348.077,10031.634,
345.167,10004.007,
342.256,10018.948,
339.345,10056.199,
336.435,10079.976,
333.524,10068.387,
330.614,10136.197,
327.703,10173.166,
324.793,10200.624,
321.882,10236.517,
318.971,10346.546,
316.061,10458.474,
313.150,10562.117,
310.240,10645.234,
307.329,10766.88,
304.418,10827.473,
301.508,10827.496,
298.597,10768.263,
295.687,10780.858,
292.776,10770.5,
289.866,10781.46,
286.955,10958.015,
284.044,11139.477,
281.134,11282.09,
278.223,11384.154,
275.313,11479.208,
272.402,11535.847,
269.492,11553.061,
266.581,11525.893,
263.670,11422.968,
260.760,11605.86,
257.849,11868,
254.939,12061.745,
252.028,12093.928,
249.117,12136.314,
246.207,12183.668,
243.296,12223.93,
240.386,12310.527,
237.475,12412.646,
234.565,12507.86,
231.654,12518.086,
228.743,12488.029,
225.833,12491.996,
222.922,12556.813,
220.012,12590.326,
217.101,12676.82,
214.191,12787.16,
211.280,12893.369,
208.369,12842.042,
205.459,12831.616,
202.548,12857.244,
199.638,12845.634,
196.727,12872.061,
193.816,12898.367,
190.906,12909.844,
187.995,12898.259,
185.085,12913.164,
182.174,12964.024,
179.264,13073.885,
176.353,13063.823,
173.442,13064.665,
170.532,13072.121,
167.621,12933.693,
164.711,12718.608,
161.800,12366.554,
158.890,11805.166,
155.979,11135.99,
153.068,10338.567,
150.158,9366.3913,
147.247,8009.4616,
144.337,6641.6013,
141.426,5272.6466,
138.516,3906.9688,
135.605,2813.7616,
132.694,1935.6871,
129.784,1267.7848,
126.873,865.16674,
123.963,581.2301,
121.052,384.05688,
118.141,272.68817,
115.231,223.93122,
112.320,183.0682,
109.410,148.65943,
106.499,119.46107,
103.589,110.44873,
100.678,104.4473,
97.767,94.49417,
94.857,81.776197,
91.946,79.071776,
89.036,81.669429,
86.125,71.740555,
83.215,62.348035,
80.304,55.052837,
77.393,51.511987,
74.483,50.594865,
71.572,47.713535,
68.662,43.111465,
65.751,41.698563,
62.840,37.878086,
59.930,36.310148,
57.019,44.06605,
54.109,39.875552,
51.198,36.25,
48.288,36.221688,
45.377,32.704797,
42.466,30.013342,
39.556,27.789526,
36.645,24.980765,
33.735,20.615261,
30.824,17.912661,
27.914,20.016187,
25.003,23.985825,
22.092,23.666764,
19.182,17.380451,
16.271,-9.2001738,
13.361,-77.068285,
10.450,-220.77266,
7.539,-598.56127,
4.629,-1080.8958,
1.718,-1373.3976,
-1.192,-1153.7971,
-4.103,-751.4256,
-7.013,-355.91468,
-9.924,-3.75,
