,PL1442~1,
Raman shift [1/cm],Intensity,
3014.167,-1.125,
3011.256,1.3249893,
3008.346,409.13686,
3005.435,494.56758,
3002.525,519.65017,
2999.614,547.40874,
2996.704,552.36262,
2993.793,567.13191,
2990.882,570.91312,
2987.972,575.98094,
2985.061,600.4218,
2982.151,626.01115,
2979.240,656.80272,
2976.329,670.34497,
2973.419,704.8139,
2970.508,709.07488,
2967.598,710.78303,
2964.687,736.03872,
2961.777,779.20869,
2958.866,761.86164,
2955.955,815.54088,
2953.045,823.19494,
2950.134,847.48142,
2947.224,868.15969,
2944.313,876.97614,
2941.403,936.70985,
2938.492,922.72595,
2935.581,933.25657,
2932.671,934.63898,
2929.760,952.73654,
2926.850,946.13628,
2923.939,991.83293,
2921.028,983.46308,
2918.118,1004.5387,
2915.207,1023.1027,
2912.297,1021.8454,
2909.386,1042.6706,
2906.476,1020.7205,
2903.565,1041.1017,
2900.654,1028.7102,
2897.744,1018.9379,
2894.833,1033.3594,
2891.923,1033.0897,
2889.012,1021.9675,
2886.102,1003.9561,
2883.191,1000.8854,
2880.280,1001.7506,
2877.370,949.26463,
2874.459,943.8688,
2871.549,985.59903,
2868.638,1040.2873,
2865.727,1039.6866,
2862.817,1043.3616,
2859.906,1065.9006,
2856.996,1078.3546,
2854.085,1078.4737,
2851.175,1077.0407,
2848.264,1052.61,
2845.353,1070.3574,
2842.443,1051.6666,
2839.532,1050.3377,
2836.622,1031.3581,
2833.711,1017.616,
2830.801,1025.4647,
2827.890,1042.1268,
2824.979,1034.8251,
2822.069,1061.8523,
2819.158,1057.9747,
2816.248,1056.3692,
2813.337,1079.7201,
2810.427,1059.5293,
2807.516,1065.1339,
2804.605,1057.5096,
2801.695,1046.9013,
2798.784,1071.8442,
2795.874,1071.7193,
2792.963,1073.589,
2790.052,1022.8847,
2787.142,1044.3357,
2784.231,1032.3284,
2781.321,997.13221,
2778.410,1026.2493,
2775.500,1036.2798,
2772.589,1068.0294,
2769.678,1071.3051,
2766.768,1072.1799,
2763.857,1074.9829,
2760.947,1088.3214,
2758.036,1107.8306,
2755.126,1110.5865,
2752.215,1102.4521,
2749.304,1120.2778,
2746.394,1105.6128,
2743.483,1116.5751,
2740.573,1114.5056,
2737.662,1114.7788,
2734.751,1119.8508,
2731.841,1125.6864,
2728.930,1139.3624,
2726.020,1132.4468,
2723.109,1136.0092,
2720.199,1141.4811,
2717.288,1156.437,
2714.377,1172.7747,
2711.467,1163.497,
2708.556,1196.4497,
2705.646,1196.1708,
2702.735,1189.1843,
2699.825,1175.6569,
2696.914,1179.3986,
2694.003,1185.0214,
2691.093,1171.3756,
2688.182,1204.4402,
2685.272,1207.0073,
2682.361,1187.6687,
2679.450,1215.2453,
2676.540,1199.9156,
2673.629,1209.1754,
2670.719,1223.2327,
2667.808,1200.9936,
2664.898,1220.2388,
2661.987,1220.0752,
2659.076,1254.9332,
2656.166,1217.3598,
2653.255,1244.7577,
2650.345,1263.4431,
2647.434,1259.2188,
2644.524,1284.0644,
2641.613,1260.0177,
2638.702,1294.2753,
2635.792,1264.0924,
2632.881,1274.2976,
2629.971,1292.1973,
2627.060,1274.5381,
2624.149,1294.1469,
2621.239,1271.0998,
2618.328,1305.6804,
2615.418,1316.9068,
2612.507,1311.5627,
2609.597,1315.9668,
2606.686,1337.7846,
2603.775,1337.6806,
2600.865,1345.9364,
2597.954,1326.4562,
2595.044,1355.5623,
2592.133,1355.7668,
2589.223,1359.7666,
2586.312,1379.1916,
2583.401,1397.4225,
2580.491,1412.9856,
2577.580,1392.8535,
2574.670,1387.0702,
2571.759,1399.8194,
2568.848,1397.3446,
2565.938,1397.0178,
2563.027,1413.3636,
2560.117,1419.0619,
2557.206,1420.4912,
2554.296,1409.7629,
2551.385,1425.4451,
2548.474,1444.4308,
2545.564,1452.7484,
2542.653,1458.8951,
2539.743,1476.8996,
2536.832,1457.5068,
2533.922,1475.1115,
2531.011,1487.6752,
2528.100,1490.4046,
2525.190,1496.2939,
2522.279,1507.8901,
2519.369,1487.875,
2516.458,1475.6441,
2513.548,1501.4745,
2510.637,1491.1987,
2507.726,1485.559,
2504.816,1494.7499,
2501.905,1483.3244,
2498.995,1510.7556,
2496.084,1517.767,
2493.173,1546.1647,
2490.263,1539.3134,
2487.352,1540.4994,
2484.442,1531.5902,
2481.531,1540.8802,
2478.621,1560.6239,
2475.710,1572.0284,
2472.799,1590.3952,
2469.889,1576.6645,
2466.978,1586.3594,
2464.068,1586.2136,
2461.157,1583.4198,
2458.247,1617.2721,
2455.336,1604.7713,
2452.425,1616.1628,
2449.515,1607.6588,
2446.604,1647.5155,
2443.694,1666.5962,
2440.783,1654.2523,
2437.872,1649.0209,
2434.962,1652.875,
2432.051,1662.1406,
2429.141,1677.569,
2426.230,1674.2661,
2423.320,1713.8897,
2420.409,1702.7916,
2417.498,1706.0885,
2414.588,1717.5898,
2411.677,1711.9826,
2408.767,1716.1398,
2405.856,1727.3797,
2402.946,1730.3987,
2400.035,1782.7178,
2397.124,1742.9873,
2394.214,1744.1994,
2391.303,1756.665,
2388.393,1779.5657,
2385.482,1783.875,
2382.571,1787.0395,
2379.661,1781.5495,
2376.750,1763.9292,
2373.840,1787.1124,
2370.929,1831.4743,
2368.019,1848.8276,
2365.108,1824.7598,
2362.197,1841.3491,
2359.287,1856.6817,
2356.376,1882.8275,
2353.466,1850.2843,
2350.555,1850.2451,
2347.645,1862.1637,
2344.734,1885.9995,
2341.823,1897.7589,
2338.913,1912.9869,
2336.002,1911.8415,
2333.092,1895.4731,
2330.181,1900.0003,
2327.270,1963.5747,
2324.360,1951.5732,
2321.449,1934.8614,
2318.539,1956.8536,
2315.628,1953.0852,
2312.718,1928.027,
2309.807,2008.8692,
2306.896,1982.4885,
2303.986,1996.7254,
2301.075,1984.7898,
2298.165,1956.9799,
2295.254,1950.7673,
2292.344,1999.0285,
2289.433,2018.2264,
2286.522,2027.4955,
2283.612,2033.2551,
2280.701,2052.9153,
2277.791,2080.5162,
2274.880,2098.443,
2271.969,2090.4676,
2269.059,2081.3083,
2266.148,2123.5979,
2263.238,2111.3847,
2260.327,2102.7373,
2257.417,2129.5356,
2254.506,2127.9975,
2251.595,2153.8421,
2248.685,2165.4077,
2245.774,2162.5783,
2242.864,2177.9673,
2239.953,2176.7093,
2237.043,2205.965,
2234.132,2197.1347,
2231.221,2220.9293,
2228.311,2238.3131,
2225.400,2237.1978,
2222.490,2285.4744,
2219.579,2292.4302,
2216.669,2306.7653,
2213.758,2328.5704,
2210.847,2372.2074,
2207.937,2388.6307,
2205.026,2393.9855,
2202.116,2423.7232,
2199.205,2465.6496,
2196.294,2494.6689,
2193.384,2547.8211,
2190.473,2615.2119,
2187.563,2645.3197,
2184.652,2757.8101,
2181.742,2904.8331,
2178.831,3022.241,
2175.920,3178.8842,
2173.010,3351.2832,
2170.099,3580.6533,
2167.189,3862.6761,
2164.278,4142.3956,
2161.368,4388.4381,
2158.457,4681.8796,
2155.546,4997.5493,
2152.636,5204.0662,
2149.725,5407.6534,
2146.815,5616.8019,
2143.904,5720.4028,
2140.993,5784.383,
2138.083,5785.6409,
2135.172,5760.7738,
2132.262,5673.4445,
2129.351,5556.9882,
2126.441,5359.0104,
2123.530,5123.9455,
2120.619,4827.7573,
2117.709,4534.028,
2114.798,4253.8467,
2111.888,3940.105,
2108.977,3700.2723,
2106.067,3489.8838,
2103.156,3301.7022,
2100.245,3121.8223,
2097.335,3030.1682,
2094.424,2955.2057,
2091.514,2880.8587,
2088.603,2824.4466,
2085.692,2800.15,
2082.782,2769.1202,
2079.871,2734.1597,
2076.961,2723.327,
2074.050,2691.6992,
2071.140,2696.6115,
2068.229,2630.5274,
2065.318,2616.2335,
2062.408,2610.1019,
2059.497,2585.2559,
2056.587,2632.0718,
2053.676,2583.646,
2050.766,2567.875,
2047.855,2554.2452,
2044.944,2559.9584,
2042.034,2523.6439,
2039.123,2547.7942,
2036.213,2550.0462,
2033.302,2557.9838,
2030.391,2559.0274,
2027.481,2543.2776,
2024.570,2554.5745,
2021.660,2551.2889,
2018.749,2583.8248,
2015.839,2600.8802,
2012.928,2554.0361,
2010.017,2561.5102,
2007.107,2579.4077,
2004.196,2595.5894,
2001.286,2588.6206,
1998.375,2568.3543,
1995.465,2549.4232,
1992.554,2574.5512,
1989.643,2534.4649,
1986.733,2534.8583,
1983.822,2523.3639,
1980.912,2549.4383,
1978.001,2516.7303,
1975.090,2554.0399,
1972.180,2537.4641,
1969.269,2523.5561,
1966.359,2524.9019,
1963.448,2525.9107,
1960.538,2563.7699,
1957.627,2570.9834,
1954.716,2524.2539,
1951.806,2508.3221,
1948.895,2522.1037,
1945.985,2549.2966,
1943.074,2517.2772,
1940.164,2509.1344,
1937.253,2488.7359,
1934.342,2487.3536,
1931.432,2518.9349,
1928.521,2475.6885,
1925.611,2448.9658,
1922.700,2486.1153,
1919.790,2461.2858,
1916.879,2510.7598,
1913.968,2503.8885,
1911.058,2454.7549,
1908.147,2532.6939,
1905.237,2512.1766,
1902.326,2544.515,
1899.415,2478.6421,
1896.505,2497.5922,
1893.594,2514.1676,
1890.684,2497.5938,
1887.773,2536.2021,
1884.863,2545.0481,
1881.952,2553.3374,
1879.041,2515.5115,
1876.131,2484.773,
1873.220,2529.6894,
1870.310,2517.3818,
1867.399,2542.4432,
1864.489,2446.64,
1861.578,2516.6496,
1858.667,2537.2492,
1855.757,2558.4693,
1852.846,2561.1058,
1849.936,2543.5267,
1847.025,2558.51,
1844.114,2623.3362,
1841.204,2626.6967,
1838.293,2601.3925,
1835.383,2626.944,
1832.472,2633.1533,
1829.562,2627.0958,
1826.651,2631.5074,
1823.740,2668.0015,
1820.830,2651.0086,
1817.919,2645.1325,
1815.009,2652.7249,
1812.098,2654.7726,
1809.188,2726.1617,
1806.277,2694.6939,
1803.366,2735.1097,
1800.456,2691.9634,
1797.545,2728.7969,
1794.635,2738.004,
1791.724,2742.506,
1788.813,2754.4668,
1785.903,2735.6753,
1782.992,2758.1433,
1780.082,2765.5028,
1777.171,2785.5442,
1774.261,2772.9746,
1771.350,2770.0968,
1768.439,2832.3868,
1765.529,2857.5139,
1762.618,2879.1894,
1759.708,2864.9509,
1756.797,2844.7992,
1753.887,2851.773,
1750.976,2876.1544,
1748.065,2895.0194,
1745.155,2929.5328,
1742.244,2944.8886,
1739.334,2928.8115,
1736.423,2948.7236,
1733.512,2975.8832,
1730.602,2990.1032,
1727.691,3025.1167,
1724.781,3117.4655,
1721.870,3103.6605,
1718.960,3098.1639,
1716.049,3133.273,
1713.138,3124.4851,
1710.228,3155.8166,
1707.317,3159.9904,
1704.407,3194.9125,
1701.496,3304.6145,
1698.586,3244.6522,
1695.675,3283.789,
1692.764,3249.9528,
1689.854,3305.2766,
1686.943,3348.4585,
1684.033,3453.2424,
1681.122,3400.8266,
1678.211,3483.0755,
1675.301,3619.4557,
1672.390,3591.0156,
1669.480,3638.7895,
1666.569,3753.5128,
1663.659,3881.8386,
1660.748,3942.2274,
1657.837,4064.2151,
1654.927,4168.219,
1652.016,4144.9572,
1649.106,4309.3646,
1646.195,4331.0569,
1643.285,4421.8119,
1640.374,4508.2617,
1637.463,4668.172,
1634.553,4741.4611,
1631.642,4915.0694,
1628.732,5025.6467,
1625.821,5322.9908,
1622.911,5498.8776,
1620.000,5742.7757,
1617.089,6061.467,
1614.179,6411.8918,
1611.268,6727.0896,
1608.358,6969.5438,
1605.447,7246.7629,
1602.536,7370.042,
1599.626,7465.2686,
1596.715,7442.9242,
1593.805,7455.0786,
1590.894,7436.6196,
1587.984,7390.5704,
1585.073,7280.9262,
1582.162,7329.6659,
1579.252,7264.3181,
1576.341,7189.9995,
1573.431,7188.4058,
1570.520,7130.7248,
1567.610,7136.4636,
1564.699,7049.1711,
1561.788,7018.5087,
1558.878,6923.2399,
1555.967,6774.1506,
1553.057,6708.1165,
1550.146,6632.0461,
1547.235,6500.326,
1544.325,6390.2393,
1541.414,6264.8457,
1538.504,6143.6328,
1535.593,6084.7807,
1532.683,6018.801,
1529.772,5907.6946,
1526.861,5842.496,
1523.951,5793.8305,
1521.040,5670.3308,
1518.130,5590.7377,
1515.219,5559.0345,
1512.309,5535.483,
1509.398,5419.7419,
1506.487,5432.6074,
1503.577,5419.3804,
1500.666,5366.921,
1497.756,5296.7904,
1494.845,5302.7122,
1491.934,5178.8467,
1489.024,5170.1842,
1486.113,5157.8212,
1483.203,5135.559,
1480.292,5092.1464,
1477.382,5021.8316,
1474.471,4967.7387,
1471.560,4921.7687,
1468.650,4871.2949,
1465.739,4836.5818,
1462.829,4808.3737,
1459.918,4818.5271,
1457.008,4876.9832,
1454.097,4851.1729,
1451.186,4772.1323,
1448.276,4802.2961,
1445.365,4868.6617,
1442.455,4863.1092,
1439.544,4816.0993,
1436.633,4813.9038,
1433.723,4796.0117,
1430.812,4762.0778,
1427.902,4677.1005,
1424.991,4686.5781,
1422.081,4594.2098,
1419.170,4624.7577,
1416.259,4659.2272,
1413.349,4633.3996,
1410.438,4564.7933,
1407.528,4584.9369,
1404.617,4615.7463,
1401.707,4648.4918,
1398.796,4679.0673,
1395.885,4705.1311,
1392.975,4732.8125,
1390.064,4728.5205,
1387.154,4719.8374,
1384.243,4700.5629,
1381.332,4678.8934,
1378.422,4869.9131,
1375.511,4987.0107,
1372.601,5062.6006,
1369.690,5197.4584,
1366.780,5293.3263,
1363.869,5398.5993,
1360.958,5442.7589,
1358.048,5534.3119,
1355.137,5639.6609,
1352.227,5713.9013,
1349.316,5816.0318,
1346.406,5965.0911,
1343.495,6085.0649,
1340.584,6147.2314,
1337.674,6198.7342,
1334.763,6235.9208,
1331.853,6368.5148,
1328.942,6429.0218,
1326.032,6535.3807,
1323.121,6634.1943,
1320.210,6686.18,
1317.300,6757.308,
1314.389,6888.3212,
1311.479,6989.1661,
1308.568,7051.2596,
1305.657,7144.0134,
1302.747,7218.6079,
1299.836,7364.5681,
1296.926,7548.6944,
1294.015,7716.9306,
1291.105,7904.3861,
1288.194,8078.2399,
1285.283,8234.7315,
1282.373,8450.2025,
1279.462,8534.6988,
1276.552,8583.8044,
1273.641,8685.1415,
1270.731,8731.1123,
1267.820,8732.1173,
1264.909,8790.5006,
1261.999,8731.9484,
1259.088,8596.9545,
1256.178,8498.0906,
1253.267,8324.0655,
1250.356,8179.705,
1247.446,7939.0816,
1244.535,7701.7771,
1241.625,7478.3605,
1238.714,7247.5003,
1235.804,7091.2782,
1232.893,6933.0091,
1229.982,6885.9875,
1227.072,6712.1676,
1224.161,6546.9033,
1221.251,6462.0368,
1218.340,6376.1504,
1215.430,6294.7311,
1212.519,6223.918,
1209.608,6183.2294,
1206.698,6183.3643,
1203.787,6180.6288,
1200.877,6177.7755,
1197.966,6240.7166,
1195.055,6365.0363,
1192.145,6494.8198,
1189.234,6658.6871,
1186.324,6798.2454,
1183.413,6877.1897,
1180.503,6884.6632,
1177.592,6838.8849,
1174.681,6789.9093,
1171.771,6676.8254,
1168.860,6544.6482,
1165.950,6506.0737,
1163.039,6437.7172,
1160.129,6343.6315,
1157.218,6299.2787,
1154.307,6270.7089,
1151.397,6191.8071,
1148.486,6109.1833,
1145.576,6056.6756,
1142.665,5982.9788,
1139.754,5955.7207,
1136.844,5870.3402,
1133.933,5787.7815,
1131.023,5724.6051,
1128.112,5717.2285,
1125.202,5754.4209,
1122.291,5733.0138,
1119.380,5768.9616,
1116.470,5777.7869,
1113.559,5809.0317,
1110.649,5775.31,
1107.738,5777.5226,
1104.828,5808.0292,
1101.917,5824.4254,
1099.006,5830.2462,
1096.096,5812.8222,
1093.185,5730.2899,
1090.275,5718.2101,
1087.364,5725.1085,
1084.453,5685.0028,
1081.543,5665.3363,
1078.632,5676.3535,
1075.722,5670.7825,
1072.811,5718.4335,
1069.901,5726.2928,
1066.990,5751.1249,
1064.079,5773.2073,
1061.169,5854.3311,
1058.258,5947.3304,
1055.348,5996.1085,
1052.437,6005.6789,
1049.527,6019.675,
1046.616,6143.9176,
1043.705,6154.7919,
1040.795,6163.4526,
1037.884,6197.702,
1034.974,6216.9369,
1032.063,6219.2821,
1029.153,6273.4209,
1026.242,6261.3115,
1023.331,6285.8734,
1020.421,6318.7591,
1017.510,6371.2149,
1014.600,6426.982,
1011.689,6475.2688,
1008.778,6545.9828,
1005.868,6734.9677,
1002.957,6968.1237,
1000.047,7232.4671,
997.136,7456.4839,
994.226,7600.2743,
991.315,7605.8132,
988.404,7458.3401,
985.494,7310.3955,
982.583,7288.9816,
979.673,7229.5382,
976.762,7224.1397,
973.852,7253.8814,
970.941,7271.0582,
968.030,7254.1235,
965.120,7249.585,
962.209,7180.5291,
959.299,7218.4524,
956.388,7168.8795,
953.477,7130.7271,
950.567,7160.3649,
947.656,7188.6872,
944.746,7286.3862,
941.835,7293.3044,
938.925,7315.5907,
936.014,7304.1128,
933.103,7292.1147,
930.193,7284.1076,
927.282,7172.2005,
924.372,7085.9486,
921.461,6960.733,
918.551,6873.9813,
915.640,6822.1775,
912.729,6769.5027,
909.819,6680.0848,
906.908,6568.0422,
903.998,6647.7743,
901.087,6736.0716,
898.176,6767.1943,
895.266,6800.8195,
892.355,6909.921,
889.445,7022.3828,
886.534,7079.6463,
883.624,7150.0842,
880.713,7220.2138,
877.802,7257.4433,
874.892,7244.2342,
871.981,7203.2709,
869.071,7092.9964,
866.160,7121.4822,
863.250,7126.1005,
860.339,7122.6882,
857.428,7128.9529,
854.518,7065.5621,
851.607,7054.7452,
848.697,7026.7379,
845.786,6995.1543,
842.875,6979.3218,
839.965,6987.1081,
837.054,7002.5262,
834.144,7060.5389,
831.233,7046.5435,
828.323,6997.2767,
825.412,6950.5381,
822.501,6924.9174,
819.591,6891.8614,
816.680,6834.7852,
813.770,6722.5141,
810.859,6643.5692,
807.949,6619.1506,
805.038,6608.1272,
802.127,6510.9981,
799.217,6450.443,
796.306,6439.6859,
793.396,6447.2109,
790.485,6444.9787,
787.574,6422.7816,
784.664,6420.3213,
781.753,6433.2947,
778.843,6458.9882,
775.932,6487.8255,
773.022,6511.8057,
770.111,6537.1506,
767.200,6477.97,
764.290,6508.5725,
761.379,6535.4222,
758.469,6507.6912,
755.558,6456.9511,
752.648,6425.9962,
749.737,6371.5686,
746.826,6363.1252,
743.916,6343.2251,
741.005,6228.128,
738.095,6115.2771,
735.184,5921.68,
732.274,5889.8432,
729.363,6011.6138,
726.452,6196.6622,
723.542,6284.0767,
720.631,6340.0991,
717.721,6359.3121,
714.810,6374.0567,
711.899,6391.4294,
708.989,6380.9394,
706.078,6267.8913,
703.168,6270.8433,
700.257,6248.7927,
697.347,6195.1787,
694.436,6216.5657,
691.525,6168.3374,
688.615,6175.4845,
685.704,6197.9624,
682.794,6206.3857,
679.883,6185.3712,
676.973,6263.1042,
674.062,6262.2849,
671.151,6222.1919,
668.241,6198.3611,
665.330,6248.0641,
662.420,6252.0577,
659.509,6246.5257,
656.598,6236.8165,
653.688,6227.4947,
650.777,6224.0631,
647.867,6259.1015,
644.956,6274.924,
642.046,6239.659,
639.135,6199.2245,
636.224,6260.8153,
633.314,6248.9062,
630.403,6284.8949,
627.493,6343.3691,
624.582,6403.2333,
621.672,6445.209,
618.761,6450.6747,
615.850,6445.8141,
612.940,6474.0039,
610.029,6549.712,
607.119,6620.7788,
604.208,6621.4849,
601.297,6620.8691,
598.387,6609.6899,
595.476,6580.6632,
592.566,6620.8037,
589.655,6571.5086,
586.745,6558.2337,
583.834,6589.2192,
580.923,6618.4817,
578.013,6553.3487,
575.102,6529.5655,
572.192,6553.815,
569.281,6610.6554,
566.371,6637.2646,
563.460,6673.7375,
560.549,6694.6969,
557.639,6726.0457,
554.728,6792.9097,
551.818,6809.2963,
548.907,6862.8469,
545.996,6896.4302,
543.086,6911.1217,
540.175,6967.9628,
537.265,6952.3195,
534.354,7018.1218,
531.444,7123.1993,
528.533,7211.731,
525.622,7280.0144,
522.712,7345.2355,
519.801,7394.2958,
516.891,7460.4708,
513.980,7656.3676,
511.070,7768.9619,
508.159,7830.3655,
505.248,7897.6884,
502.338,8033.7775,
499.427,8201.265,
496.517,8273.5921,
493.606,8352.0786,
490.695,8464.661,
487.785,8463.1214,
484.874,8478.3844,
481.964,8498.0875,
479.053,8499.9018,
476.143,8441.5366,
473.232,8417.0123,
470.321,8392.3314,
467.411,8387.2848,
464.500,8422.5563,
461.590,8370.4859,
458.679,8342.1176,
455.769,8347.5734,
452.858,8391.0331,
449.947,8459.787,
447.037,8433.8288,
444.126,8424.1417,
441.216,8455.9759,
438.305,8479.5958,
435.395,8461.8946,
432.484,8457.9598,
429.573,8458.6449,
426.663,8419.1176,
423.752,8448.6537,
420.842,8460.1349,
417.931,8469.3722,
415.020,8513.357,
412.110,8535.3602,
409.199,8646.5424,
406.289,8749.2175,
403.378,8732.0415,
400.468,8781.1811,
397.557,8755.743,
394.646,8733.5744,
391.736,8776.3639,
388.825,8697.9239,
385.915,8697.7593,
383.004,8726.4413,
380.094,8753.8253,
377.183,8870.4591,
374.272,8982.1209,
371.362,9063.8857,
368.451,9105.6651,
365.541,9200.9831,
362.630,9261.2882,
359.719,9316.808,
356.809,9383.1858,
353.898,9421.3745,
350.988,9477.4439,
348.077,9482.1876,
345.167,9406.1188,
342.256,9529.3851,
339.345,9562.7493,
336.435,9592.7981,
333.524,9677.3313,
330.614,9723.5309,
327.703,9811.2919,
324.793,9867.7276,
321.882,9830.1328,
318.971,9936.4451,
316.061,10012.428,
313.150,10094.753,
310.240,10226.108,
307.329,10252.314,
304.418,10285.496,
301.508,10315.466,
298.597,10317.687,
295.687,10357.155,
292.776,10464.209,
289.866,10651.552,
286.955,10953.691,
284.044,11220.147,
281.134,11406.159,
278.223,11556.304,
275.313,11928.416,
272.402,12189.279,
269.492,12401.356,
266.581,12593.373,
263.670,12852.156,
260.760,13108.664,
257.849,13348.27,
254.939,13558.161,
252.028,13683.929,
249.117,13785.694,
246.207,13881.938,
243.296,14001.992,
240.386,14020.752,
237.475,13989.298,
234.565,13931.574,
231.654,13916.967,
228.743,13816.638,
225.833,13737.557,
222.922,13719.754,
220.012,13695.712,
217.101,13643.711,
214.191,13597.656,
211.280,13596.929,
208.369,13604.276,
205.459,13576.733,
202.548,13546.672,
199.638,13643.909,
196.727,13720.92,
193.816,13736.385,
190.906,13678.786,
187.995,13790.286,
185.085,13866.231,
182.174,13904.349,
179.264,13891.339,
176.353,13958.438,
173.442,13965.332,
170.532,13905.843,
167.621,13871.236,
164.711,13630.625,
161.800,13273.187,
158.890,12837.752,
155.979,11971.256,
153.068,10958.706,
150.158,9799.8096,
147.247,8400.5207,
144.337,6934.5617,
141.426,5481.8036,
138.516,4080.9981,
135.605,2930.7513,
132.694,1995.4068,
129.784,1278.7618,
126.873,862.55625,
123.963,596.34163,
121.052,412.13228,
118.141,294.33845,
115.231,229.92367,
112.320,184.81138,
109.410,155.32976,
106.499,136.81373,
103.589,120.5494,
100.678,107.0723,
97.767,97.11917,
94.857,95.489022,
91.946,86.812783,
89.036,73.633123,
86.125,65.831865,
83.215,61.220398,
80.304,56.24124,
77.393,48.451371,
74.483,45.25446,
71.572,45.686761,
68.662,48.182325,
65.751,41.117814,
62.840,37.911596,
59.930,37.249572,
57.019,38.659736,
54.109,34.097713,
51.198,29.668563,
48.288,26.875,
45.377,26.875,
42.466,26.050561,
39.556,24.990119,
36.645,25.692309,
33.735,24.836503,
30.824,24.758548,
27.914,27.563249,
25.003,27.252363,
22.092,25.260477,
19.182,21.943649,
16.271,24.042119,
13.361,34.989991,
10.450,22.914012,
7.539,-127.92211,
4.629,-473.30571,
1.718,-785.56923,
-1.192,-868.52943,
-4.103,-620.86547,
-7.013,-316.70689,
-9.924,-2.125,
