,PLD87E~1,
Raman shift [1/cm],Intensity,
3014.167,-1,
3011.256,1.3499678,
3008.346,348.22859,
3005.435,443.07774,
3002.525,451.75503,
2999.614,475.13897,
2996.704,478.59278,
2993.793,484.36233,
2990.882,513.206,
2987.972,515.1009,
2985.061,542.53696,
2982.151,565.2101,
2979.240,566.43155,
2976.329,593.2814,
2973.419,625.56971,
2970.508,630.66653,
2967.598,648.47791,
2964.687,654.17935,
2961.777,667.21385,
2958.866,675.32245,
2955.955,722.63049,
2953.045,732.48548,
2950.134,761.94755,
2947.224,778.51603,
2944.313,778.17949,
2941.403,796.26186,
2938.492,806.87264,
2935.581,835.83308,
2932.671,848.47636,
2929.760,832.67308,
2926.850,855.85037,
2923.939,865.07473,
2921.028,890.70596,
2918.118,886.34131,
2915.207,898.76584,
2912.297,910.95346,
2909.386,927.58395,
2906.476,924.22471,
2903.565,906.32297,
2900.654,910.39938,
2897.744,916.58512,
2894.833,895.13381,
2891.923,919.9199,
2889.012,904.75144,
2886.102,875.23381,
2883.191,901.95941,
2880.280,870.87559,
2877.370,835.65702,
2874.459,834.64158,
2871.549,876.42142,
2868.638,899.95464,
2865.727,923.4769,
2862.817,939.10026,
2859.906,945.49289,
2856.996,927.99094,
2854.085,937.92228,
2851.175,927.66864,
2848.264,932.2205,
2845.353,918.62544,
2842.443,940.61114,
2839.532,939.53726,
2836.622,925.55078,
2833.711,932.06748,
2830.801,920.39559,
2827.890,915.27804,
2824.979,943.93805,
2822.069,939.0796,
2819.158,937.25875,
2816.248,938.68921,
2813.337,950.11341,
2810.427,955.30165,
2807.516,960,
2804.605,972.46152,
2801.695,948.69737,
2798.784,934.25669,
2795.874,950.30081,
2792.963,938.57149,
2790.052,923.00365,
2787.142,938.67096,
2784.231,926.87112,
2781.321,924.12572,
2778.410,925.17005,
2775.500,924.76586,
2772.589,937.69418,
2769.678,967.39248,
2766.768,955.20192,
2763.857,954.68594,
2760.947,971.51576,
2758.036,971.45858,
2755.126,986.51496,
2752.215,995.64073,
2749.304,1007.4244,
2746.394,971.57662,
2743.483,987.59993,
2740.573,986.91808,
2737.662,993.71152,
2734.751,1012.2769,
2731.841,1002.1081,
2728.930,998.47028,
2726.020,1015.8981,
2723.109,1012.361,
2720.199,1019.8404,
2717.288,1042.7555,
2714.377,1034.1292,
2711.467,1047.7044,
2708.556,1065.2661,
2705.646,1044.7887,
2702.735,1055,
2699.825,1062.8255,
2696.914,1091.2387,
2694.003,1073.4764,
2691.093,1052.0722,
2688.182,1062.0719,
2685.272,1054.8051,
2682.361,1059.1288,
2679.450,1074.2593,
2676.540,1079.5732,
2673.629,1057.6727,
2670.719,1064.6349,
2667.808,1092.8327,
2664.898,1093.8833,
2661.987,1104.267,
2659.076,1119.8728,
2656.166,1085.7445,
2653.255,1112.1871,
2650.345,1125.8167,
2647.434,1132.4567,
2644.524,1128.355,
2641.613,1137.714,
2638.702,1139.8895,
2635.792,1153.0319,
2632.881,1143.381,
2629.971,1130.4026,
2627.060,1145.3319,
2624.149,1157.4594,
2621.239,1149.7337,
2618.328,1166.0424,
2615.418,1163.6818,
2612.507,1159.4822,
2609.597,1164.6327,
2606.686,1176.8695,
2603.775,1191.2381,
2600.865,1217.1093,
2597.954,1198.5333,
2595.044,1225.3658,
2592.133,1224.1147,
2589.223,1216.4095,
2586.312,1219.7588,
2583.401,1234.8577,
2580.491,1223.7404,
2577.580,1223.995,
2574.670,1231.2393,
2571.759,1250.8433,
2568.848,1238.4143,
2565.938,1223.7619,
2563.027,1245.6363,
2560.117,1259.5607,
2557.206,1265.6568,
2554.296,1253.7986,
2551.385,1260.7021,
2548.474,1279.8149,
2545.564,1287.7784,
2542.653,1297.0201,
2539.743,1310.5801,
2536.832,1307.0206,
2533.922,1323.3154,
2531.011,1333.1008,
2528.100,1303.2683,
2525.190,1316.602,
2522.279,1352.9213,
2519.369,1327.9813,
2516.458,1318.7762,
2513.548,1333.1816,
2510.637,1352.9548,
2507.726,1332.9405,
2504.816,1329.0631,
2501.905,1320.0146,
2498.995,1345.2389,
2496.084,1351.7596,
2493.173,1346.3944,
2490.263,1380.078,
2487.352,1386.4157,
2484.442,1376.9871,
2481.531,1381.7341,
2478.621,1387.7489,
2475.710,1425.862,
2472.799,1405.0404,
2469.889,1400.3629,
2466.978,1408.6082,
2464.068,1415.7461,
2461.157,1446.0326,
2458.247,1429.103,
2455.336,1432.0861,
2452.425,1428,
2449.515,1447.6611,
2446.604,1471.1291,
2443.694,1437.3018,
2440.783,1454.339,
2437.872,1483.9061,
2434.962,1461.5668,
2432.051,1485.3643,
2429.141,1497.4058,
2426.230,1502.8044,
2423.320,1546.6006,
2420.409,1514.6796,
2417.498,1542.8821,
2414.588,1530.1257,
2411.677,1535.2111,
2408.767,1520.3238,
2405.856,1534.7786,
2402.946,1542.3217,
2400.035,1563.284,
2397.124,1552.0214,
2394.214,1557.9436,
2391.303,1551.4695,
2388.393,1588.6349,
2385.482,1591.2644,
2382.571,1601.9251,
2379.661,1577.9068,
2376.750,1617.6797,
2373.840,1621.0188,
2370.929,1621.9567,
2368.019,1614.891,
2365.108,1627.3953,
2362.197,1638.7507,
2359.287,1653.185,
2356.376,1655,
2353.466,1660.7568,
2350.555,1670.815,
2347.645,1667.2238,
2344.734,1687.2765,
2341.823,1672.3482,
2338.913,1655.1702,
2336.002,1701.8994,
2333.092,1699.5405,
2330.181,1719.9513,
2327.270,1725.33,
2324.360,1707.941,
2321.449,1721.7551,
2318.539,1746.682,
2315.628,1746.6307,
2312.718,1735.0507,
2309.807,1762.5218,
2306.896,1750.457,
2303.986,1750.5326,
2301.075,1778.7872,
2298.165,1758.2592,
2295.254,1767.6553,
2292.344,1773.1577,
2289.433,1770.9768,
2286.522,1765.5134,
2283.612,1799.1225,
2280.701,1832.1749,
2277.791,1818.4026,
2274.880,1845.7941,
2271.969,1836.5391,
2269.059,1872.5232,
2266.148,1905.8865,
2263.238,1871.7182,
2260.327,1891.1036,
2257.417,1905.2883,
2254.506,1907.4502,
2251.595,1927.1308,
2248.685,1914.1674,
2245.774,1935.7358,
2242.864,1914.4539,
2239.953,1930.1033,
2237.043,1948.1418,
2234.132,1968.7479,
2231.221,1967.8913,
2228.311,1986.1842,
2225.400,1984.4354,
2222.490,2039.0131,
2219.579,2057.2391,
2216.669,2079.8569,
2213.758,2092.3882,
2210.847,2066.0731,
2207.937,2140.6611,
2205.026,2153.3329,
2202.116,2174.7505,
2199.205,2208.2998,
2196.294,2233.2319,
2193.384,2251.1315,
2190.473,2280.3134,
2187.563,2325.2417,
2184.652,2384.3379,
2181.742,2463.5942,
2178.831,2574.4866,
2175.920,2679.2987,
2173.010,2833.5346,
2170.099,2971.8562,
2167.189,3171.6288,
2164.278,3412.5538,
2161.368,3562.1357,
2158.457,3820.143,
2155.546,4110.1445,
2152.636,4277.1381,
2149.725,4424.3355,
2146.815,4614.2939,
2143.904,4693.8104,
2140.993,4728.7777,
2138.083,4791.2734,
2135.172,4785.9912,
2132.262,4718.2377,
2129.351,4660.1376,
2126.441,4570.5532,
2123.530,4374.3399,
2120.619,4126.5143,
2117.709,3975.8144,
2114.798,3682.2295,
2111.888,3423.8788,
2108.977,3213.8476,
2106.067,3030.2768,
2103.156,2906.1367,
2100.245,2740.9517,
2097.335,2656.8953,
2094.424,2595.6654,
2091.514,2557.7768,
2088.603,2512.1476,
2085.692,2475.6357,
2082.782,2462.6908,
2079.871,2425.9627,
2076.961,2430.2251,
2074.050,2398.1879,
2071.140,2339.9428,
2068.229,2327.5378,
2065.318,2328.9622,
2062.408,2315.5076,
2059.497,2313.7976,
2056.587,2269.024,
2053.676,2228.1347,
2050.766,2253.4596,
2047.855,2285.4589,
2044.944,2266.734,
2042.034,2259.5491,
2039.123,2244.3805,
2036.213,2242.8089,
2033.302,2243.152,
2030.391,2259.6608,
2027.481,2256.0733,
2024.570,2279.9707,
2021.660,2282.1774,
2018.749,2296.6201,
2015.839,2287.5381,
2012.928,2289.1611,
2010.017,2275.5331,
2007.107,2274.6542,
2004.196,2293.9762,
2001.286,2287.5618,
1998.375,2249.2067,
1995.465,2236.3598,
1992.554,2271.1821,
1989.643,2248.0023,
1986.733,2234.6088,
1983.822,2218.0406,
1980.912,2261.3065,
1978.001,2243.5677,
1975.090,2237.0382,
1972.180,2222,
1969.269,2229.9253,
1966.359,2213.297,
1963.448,2206.1136,
1960.538,2272.1093,
1957.627,2268.2755,
1954.716,2243.6607,
1951.806,2198.6329,
1948.895,2244.664,
1945.985,2217.2467,
1943.074,2212.2585,
1940.164,2177,
1937.253,2187.3302,
1934.342,2187.3845,
1931.432,2180.9274,
1928.521,2152.8808,
1925.611,2125.63,
1922.700,2177.4005,
1919.790,2159.272,
1916.879,2176.326,
1913.968,2182.9939,
1911.058,2187.5285,
1908.147,2186.4977,
1905.237,2135.9633,
1902.326,2150.7259,
1899.415,2142.2329,
1896.505,2157.741,
1893.594,2170.1769,
1890.684,2187.2287,
1887.773,2184.7589,
1884.863,2197.1344,
1881.952,2187.7727,
1879.041,2160.0877,
1876.131,2197.1621,
1873.220,2188.6946,
1870.310,2167.435,
1867.399,2179.7761,
1864.489,2155.1683,
1861.578,2181.4782,
1858.667,2161.6946,
1855.757,2191.3914,
1852.846,2211.8051,
1849.936,2238.2563,
1847.025,2253.9294,
1844.114,2282.8587,
1841.204,2247,
1838.293,2261.4759,
1835.383,2271.0815,
1832.472,2278.8609,
1829.562,2279.9732,
1826.651,2293.7782,
1823.740,2310.7356,
1820.830,2277.732,
1817.919,2313.4195,
1815.009,2286.3257,
1812.098,2330.2677,
1809.188,2344.4418,
1806.277,2307.841,
1803.366,2335.8004,
1800.456,2326.1983,
1797.545,2365.1985,
1794.635,2378.935,
1791.724,2392.165,
1788.813,2392.3992,
1785.903,2400.3178,
1782.992,2437.2191,
1780.082,2434.8533,
1777.171,2413.3357,
1774.261,2412.5098,
1771.350,2416.9748,
1768.439,2451.128,
1765.529,2474.913,
1762.618,2499.0337,
1759.708,2477.0541,
1756.797,2479.5909,
1753.887,2511.4111,
1750.976,2513.9241,
1748.065,2483.1936,
1745.155,2517.4577,
1742.244,2520.8388,
1739.334,2523.7482,
1736.423,2591.7625,
1733.512,2574.7966,
1730.602,2604.629,
1727.691,2613.8587,
1724.781,2670.2067,
1721.870,2678.7571,
1718.960,2681.9334,
1716.049,2730.8216,
1713.138,2745.13,
1710.228,2723.3723,
1707.317,2756.2674,
1704.407,2747.524,
1701.496,2829.8624,
1698.586,2808.4325,
1695.675,2870.5639,
1692.764,2824.8237,
1689.854,2836.3504,
1686.943,2966.4808,
1684.033,2952.4719,
1681.122,2933.3229,
1678.211,2988.467,
1675.301,3112.6177,
1672.390,3134.0987,
1669.480,3167.9225,
1666.569,3282.6348,
1663.659,3333.3883,
1660.748,3419.3717,
1657.837,3540.0437,
1654.927,3543.7572,
1652.016,3618.8467,
1649.106,3694.1261,
1646.195,3743.2438,
1643.285,3914.5644,
1640.374,3856.324,
1637.463,4014.1798,
1634.553,4134.6699,
1631.642,4248.3345,
1628.732,4462.031,
1625.821,4635.1289,
1622.911,4830.8899,
1620.000,5126.2456,
1617.089,5421.0895,
1614.179,5695.2165,
1611.268,5951.4081,
1608.358,6181.1839,
1605.447,6425.8305,
1602.536,6585.3744,
1599.626,6560.1226,
1596.715,6604.1953,
1593.805,6567.8607,
1590.894,6498.7111,
1587.984,6531.5724,
1585.073,6513.3263,
1582.162,6483.9534,
1579.252,6479,
1576.341,6348.4267,
1573.431,6312.8673,
1570.520,6284.4824,
1567.610,6232.7836,
1564.699,6173.0482,
1561.788,6105.2963,
1558.878,6039.6204,
1555.967,5904.0443,
1553.057,5837.9828,
1550.146,5738.7457,
1547.235,5625.2803,
1544.325,5502.0392,
1541.414,5403.5966,
1538.504,5335.4096,
1535.593,5274.6019,
1532.683,5226.6521,
1529.772,5135.901,
1526.861,5043.9418,
1523.951,5003.2823,
1521.040,4933.2795,
1518.130,4858.631,
1515.219,4783.7617,
1512.309,4731.928,
1509.398,4741.1771,
1506.487,4685.7324,
1503.577,4672.0645,
1500.666,4625.7762,
1497.756,4616.5245,
1494.845,4523.4786,
1491.934,4462.8614,
1489.024,4420.5117,
1486.113,4470.9241,
1483.203,4368.4199,
1480.292,4383.0009,
1477.382,4331.4226,
1474.471,4256.6097,
1471.560,4179.9467,
1468.650,4152.5338,
1465.739,4130.7853,
1462.829,4118.2095,
1459.918,4111.4751,
1457.008,4138.4773,
1454.097,4137.5733,
1451.186,4125.5358,
1448.276,4131.9583,
1445.365,4104.2536,
1442.455,4146.18,
1439.544,4136.821,
1436.633,4102.2125,
1433.723,4051.5136,
1430.812,4018.0791,
1427.902,3992.1058,
1424.991,3912.4938,
1422.081,3901.7427,
1419.170,3850.0204,
1416.259,3897.0843,
1413.349,3854.1122,
1410.438,3854.8941,
1407.528,3852.7001,
1404.617,3878.7049,
1401.707,3874.503,
1398.796,3897.2586,
1395.885,3970.9096,
1392.975,3980.7491,
1390.064,3939.6455,
1387.154,3920.6813,
1384.243,3871.3093,
1381.332,3855.7305,
1378.422,3957.5839,
1375.511,4104.6585,
1372.601,4204.6865,
1369.690,4335.5828,
1366.780,4429.6593,
1363.869,4522.3742,
1360.958,4610.7399,
1358.048,4722.0971,
1355.137,4800.6558,
1352.227,4895.2031,
1349.316,5003.3856,
1346.406,5103.0976,
1343.495,5244.2491,
1340.584,5252.3209,
1337.674,5305.0818,
1334.763,5465.7995,
1331.853,5513.0883,
1328.942,5590.6044,
1326.032,5664.434,
1323.121,5759.7651,
1320.210,5871.906,
1317.300,5958.2674,
1314.389,6041.4177,
1311.479,6136.8734,
1308.568,6222.221,
1305.657,6287.2622,
1302.747,6365.5417,
1299.836,6513.5875,
1296.926,6691.3577,
1294.015,6892.6895,
1291.105,7059.4975,
1288.194,7194.4215,
1285.283,7326.1044,
1282.373,7520.7729,
1279.462,7640.7445,
1276.552,7717.5672,
1273.641,7811.9238,
1270.731,7841.6552,
1267.820,7790.1263,
1264.909,7844.1209,
1261.999,7840.839,
1259.088,7726.8239,
1256.178,7636.0673,
1253.267,7503.8519,
1250.356,7360.3166,
1247.446,7096.018,
1244.535,6856.3083,
1241.625,6676.5891,
1238.714,6492.1344,
1235.804,6333.4614,
1232.893,6183.7627,
1229.982,6123.5469,
1227.072,6051.1219,
1224.161,5882.1018,
1221.251,5806.3294,
1218.340,5726.8666,
1215.430,5637.497,
1212.519,5569.0037,
1209.608,5533.9756,
1206.698,5522.4893,
1203.787,5521.1558,
1200.877,5528.2965,
1197.966,5629.9015,
1195.055,5745.0691,
1192.145,5863.1773,
1189.234,6003.0507,
1186.324,6121.0058,
1183.413,6197.0559,
1180.503,6230.6745,
1177.592,6217.131,
1174.681,6144.5583,
1171.771,5982.1346,
1168.860,5944.6248,
1165.950,5897.4604,
1163.039,5839.5086,
1160.129,5735.2406,
1157.218,5657.7706,
1154.307,5618.0777,
1151.397,5584.6966,
1148.486,5555.9739,
1145.576,5413.1905,
1142.665,5394.5443,
1139.754,5390.5591,
1136.844,5368.2906,
1133.933,5288.0328,
1131.023,5217.2278,
1128.112,5192.5716,
1125.202,5199.4203,
1122.291,5228.3733,
1119.380,5223.7402,
1116.470,5197.2643,
1113.559,5267.4587,
1110.649,5311.9196,
1107.738,5277.9196,
1104.828,5250.483,
1101.917,5251.4312,
1099.006,5215.5051,
1096.096,5233.3438,
1093.185,5255.2939,
1090.275,5204.3974,
1087.364,5192,
1084.453,5186.3754,
1081.543,5185.5058,
1078.632,5185.2991,
1075.722,5184.5911,
1072.811,5224.2625,
1069.901,5199.8112,
1066.990,5184.2584,
1064.079,5261.9812,
1061.169,5328.1674,
1058.258,5382.7614,
1055.348,5441.2858,
1052.437,5483.2476,
1049.527,5513.8266,
1046.616,5612.8731,
1043.705,5636.3322,
1040.795,5594.0277,
1037.884,5597.3328,
1034.974,5638.2899,
1032.063,5658.5231,
1029.153,5667.1785,
1026.242,5751.9442,
1023.331,5732.5014,
1020.421,5751.0043,
1017.510,5816.4673,
1014.600,5884.5299,
1011.689,5935.1042,
1008.778,6006.5892,
1005.868,6174.3668,
1002.957,6326.6495,
1000.047,6606.2561,
997.136,6814.1792,
994.226,6926.461,
991.315,6932.9877,
988.404,6841.6509,
985.494,6780.7943,
982.583,6682.2903,
979.673,6629.2227,
976.762,6580.9481,
973.852,6560.0941,
970.941,6572.2987,
968.030,6590.6474,
965.120,6583.0788,
962.209,6601.8347,
959.299,6617.0402,
956.388,6554.8043,
953.477,6546.802,
950.567,6623.2869,
947.656,6654.8805,
944.746,6631.0929,
941.835,6685.0673,
938.925,6665.7555,
936.014,6667.7156,
933.103,6686.7062,
930.193,6667.425,
927.282,6582.5253,
924.372,6536.8625,
921.461,6425.6948,
918.551,6325.2592,
915.640,6243.0299,
912.729,6174.7518,
909.819,6123.5543,
906.908,6112.6028,
903.998,6139.0424,
901.087,6183.5539,
898.176,6229.3369,
895.266,6272.5047,
892.355,6330.9307,
889.445,6453.4637,
886.534,6443.9815,
883.624,6543.5976,
880.713,6623.6214,
877.802,6658.2109,
874.892,6652.9246,
871.981,6584.8558,
869.071,6536.4018,
866.160,6551.4586,
863.250,6596.0732,
860.339,6583.3271,
857.428,6501.3651,
854.518,6485.2538,
851.607,6459.4596,
848.697,6381.4036,
845.786,6367.2017,
842.875,6369.9694,
839.965,6359.9617,
837.054,6442.2512,
834.144,6464.6275,
831.233,6416.3371,
828.323,6401.8697,
825.412,6394.6822,
822.501,6347.1488,
819.591,6309.1344,
816.680,6166.9741,
813.770,6110.0724,
810.859,6089.7801,
807.949,6065.8414,
805.038,6016.542,
802.127,5938.3449,
799.217,5914.6014,
796.306,5910.1351,
793.396,5928.5193,
790.485,5937.4689,
787.574,5869.4635,
784.664,5908.0087,
781.753,5903.5933,
778.843,5898.4901,
775.932,5889.7409,
773.022,5884.9765,
770.111,5987.9914,
767.200,6003.3744,
764.290,5949.9458,
761.379,5899.941,
758.469,5899.6023,
755.558,5949.3224,
752.648,5893.1148,
749.737,5827.8185,
746.826,5818.1151,
743.916,5779.6874,
741.005,5601.1655,
738.095,5399.0081,
735.184,5248.4344,
732.274,5224.8208,
729.363,5359.6198,
726.452,5602.2655,
723.542,5736.6248,
720.631,5757.7617,
717.721,5802.0992,
714.810,5832.7614,
711.899,5835.6931,
708.989,5842.9554,
706.078,5782.101,
703.168,5784.0022,
700.257,5764.0571,
697.347,5715.87,
694.436,5699.0797,
691.525,5628.3448,
688.615,5705.4499,
685.704,5728.9181,
682.794,5688.9362,
679.883,5691.9279,
676.973,5690.3252,
674.062,5707.8663,
671.151,5719.315,
668.241,5721.7147,
665.330,5724.2647,
662.420,5729.8558,
659.509,5713.8569,
656.598,5715.2515,
653.688,5721.9485,
650.777,5695,
647.867,5695,
644.956,5725.3384,
642.046,5722.0263,
639.135,5689.7423,
636.224,5685.1671,
633.314,5718.5125,
630.403,5754.1957,
627.493,5789.5152,
624.582,5823.9457,
621.672,5859.5854,
618.761,5873.159,
615.850,5901.2435,
612.940,5952.7627,
610.029,6016.2359,
607.119,6029.6596,
604.208,6007.5696,
601.297,6033.8933,
598.387,6067.1337,
595.476,6061.6341,
592.566,6078.9496,
589.655,6037.9435,
586.745,5990.5657,
583.834,5963.7329,
580.923,5976.8341,
578.013,5949.3684,
575.102,5947.7359,
572.192,5969.5069,
569.281,6012.6698,
566.371,6077.6276,
563.460,6117.8625,
560.549,6130.5382,
557.639,6130.3428,
554.728,6135.1825,
551.818,6153.9101,
548.907,6216.5037,
545.996,6241.5587,
543.086,6229.5493,
540.175,6264.5884,
537.265,6312.6296,
534.354,6387.6944,
531.444,6440.2628,
528.533,6435.8911,
525.622,6546.8515,
522.712,6620.7538,
519.801,6691.5699,
516.891,6762.6078,
513.980,6805.1941,
511.070,6924.513,
508.159,7006.4296,
505.248,7091.5703,
502.338,7240.1177,
499.427,7346.6305,
496.517,7444.01,
493.606,7501.3744,
490.695,7515.5632,
487.785,7555.5923,
484.874,7607.8819,
481.964,7608.4986,
479.053,7564.2555,
476.143,7523.5535,
473.232,7546.1791,
470.321,7551.6208,
467.411,7541.4283,
464.500,7524.1855,
461.590,7492.0244,
458.679,7496.2071,
455.769,7511.726,
452.858,7525.1814,
449.947,7555.7386,
447.037,7608.1138,
444.126,7624.3212,
441.216,7607.6144,
438.305,7645.711,
435.395,7645.7549,
432.484,7639.666,
429.573,7640.5026,
426.663,7664.0669,
423.752,7674.369,
420.842,7649.6855,
417.931,7622.6795,
415.020,7646.1886,
412.110,7783.08,
409.199,7879.9437,
406.289,7919.8988,
403.378,7892.1127,
400.468,7925.3765,
397.557,7945.7688,
394.646,7918.6383,
391.736,7820.9899,
388.825,7851.9134,
385.915,7874.3048,
383.004,7880.5747,
380.094,7873.2574,
377.183,7995.9111,
374.272,8083.1925,
371.362,8170.9718,
368.451,8277.2826,
365.541,8331.3212,
362.630,8409.3639,
359.719,8481.2379,
356.809,8527.3172,
353.898,8532.5588,
350.988,8521.5228,
348.077,8524.6492,
345.167,8563.2978,
342.256,8667.8874,
339.345,8662.9254,
336.435,8643.6589,
333.524,8676.02,
330.614,8740.1034,
327.703,8795.9384,
324.793,8827.6799,
321.882,8821.3551,
318.971,8967.8134,
316.061,9010.187,
313.150,9015.3952,
310.240,9058.4379,
307.329,9170.0541,
304.418,9204.425,
301.508,9184.9261,
298.597,9154.569,
295.687,9244.7819,
292.776,9336.0836,
289.866,9466.4559,
286.955,9772.2882,
284.044,9986.1423,
281.134,10236.818,
278.223,10521.73,
275.313,10704.47,
272.402,10855.114,
269.492,11006.658,
266.581,11177.445,
263.670,11435.494,
260.760,11695.968,
257.849,11905.007,
254.939,12016.557,
252.028,12052.021,
249.117,12082.816,
246.207,12136.957,
243.296,12264.332,
240.386,12250.574,
237.475,12192.203,
234.565,12126.256,
231.654,12153.28,
228.743,12112.395,
225.833,12044.766,
222.922,11968.185,
220.012,11950.699,
217.101,11881.207,
214.191,11805.165,
211.280,11772.429,
208.369,11786.148,
205.459,11796.396,
202.548,11797.493,
199.638,11782.98,
196.727,11784.61,
193.816,11828.337,
190.906,11925.149,
187.995,12014.928,
185.085,12101.324,
182.174,12151.835,
179.264,12110.637,
176.353,12155.34,
173.442,12206.204,
170.532,12230.787,
167.621,12091.638,
164.711,11869.526,
161.800,11581.101,
158.890,11224.116,
155.979,10548.992,
153.068,9713.6427,
150.158,8727.6554,
147.247,7555.9573,
144.337,6252.7721,
141.426,4951.871,
138.516,3715.2336,
135.605,2646.1658,
132.694,1798.6278,
129.784,1166.2246,
126.873,797.93272,
123.963,542.60477,
121.052,364.63977,
118.141,260.41008,
115.231,214.5235,
112.320,173.12366,
109.410,137.77299,
106.499,115.69617,
103.589,104.27695,
100.678,95.468918,
97.767,86.226729,
94.857,79.07011,
91.946,74.387557,
89.036,70.306531,
86.125,59.668452,
83.215,57.53092,
80.304,57.521135,
77.393,56.104795,
74.483,47.483246,
71.572,44.087056,
68.662,45.307325,
65.751,38.242814,
62.840,33.109788,
59.930,29.063569,
57.019,25.538159,
54.109,25.597161,
51.198,26.301609,
48.288,26.988675,
45.377,25.581919,
42.466,23.763342,
39.556,22.115119,
36.645,22.817309,
33.735,21.442255,
30.824,19.558226,
27.914,18.155876,
25.003,17.377363,
22.092,13.770954,
19.182,6.8855857,
16.271,3.388135,
13.361,-35.931218,
10.450,-137.99894,
7.539,-428.49813,
4.629,-896.40698,
1.718,-1266.1382,
-1.192,-1273.1096,
-4.103,-863.8231,
-7.013,-417.80267,
-9.924,-3,
