,PL88F3~1,
Raman shift [1/cm],Intensity,
3014.167,-2.625,
3011.256,0.92501074,
3008.346,193.66705,
3005.435,220.99338,
3002.525,229.82746,
2999.614,238.75164,
2996.704,255.23376,
2993.793,261.75576,
2990.882,256.81012,
2987.972,258.39013,
2985.061,266.25185,
2982.151,289.10779,
2979.240,295.90731,
2976.329,308.88865,
2973.419,318.82121,
2970.508,325.00829,
2967.598,350.22801,
2964.687,340.74728,
2961.777,367.1529,
2958.866,362.37797,
2955.955,358.375,
2953.045,370.19155,
2950.134,395.45086,
2947.224,424.69175,
2944.313,409.91417,
2941.403,429.06569,
2938.492,443.92784,
2935.581,431.85353,
2932.671,443.69691,
2929.760,450.70192,
2926.850,464.48665,
2923.939,466.81425,
2921.028,480.16334,
2918.118,477.49338,
2915.207,480.85622,
2912.297,504.32422,
2909.386,498.39689,
2906.476,490.44525,
2903.565,480.72907,
2900.654,496.43364,
2897.744,489.38757,
2894.833,492.02445,
2891.923,497.6186,
2889.012,479.08598,
2886.102,475.81148,
2883.191,471.38255,
2880.280,449.89652,
2877.370,436.9331,
2874.459,426.08563,
2871.549,456.67814,
2868.638,512.24096,
2865.727,499.42884,
2862.817,515.76135,
2859.906,517.34936,
2856.996,514.85009,
2854.085,537.09982,
2851.175,517.9684,
2848.264,508.375,
2845.353,513.54754,
2842.443,517.78127,
2839.532,510.82277,
2836.622,486.07161,
2833.711,491.73765,
2830.801,500.17353,
2827.890,493.45892,
2824.979,514.35088,
2822.069,525.05658,
2819.158,503.07581,
2816.248,516.11053,
2813.337,522.67379,
2810.427,507.94112,
2807.516,506.375,
2804.605,507.41827,
2801.695,515.94079,
2798.784,517.30108,
2795.874,510.375,
2792.963,508.44638,
2790.052,512.37393,
2787.142,517.00638,
2784.231,492.11724,
2781.321,523.73487,
2778.410,500.55898,
2775.500,506.52604,
2772.589,489.10665,
2769.678,513.51488,
2766.768,515.82353,
2763.857,521.79504,
2760.947,512.87185,
2758.036,525.92922,
2755.126,534.89637,
2752.215,541.375,
2749.304,542.2473,
2746.394,547.16331,
2743.483,540.32503,
2740.573,529.1648,
2737.662,542.93861,
2734.751,550.60798,
2731.841,520.2651,
2728.930,561.08702,
2726.020,546.04861,
2723.109,533.64334,
2720.199,550.19673,
2717.288,564.30565,
2714.377,567.0832,
2711.467,550.30907,
2708.556,571.58763,
2705.646,577.22007,
2702.735,564.89305,
2699.825,585.30956,
2696.914,581.08908,
2694.003,599.54899,
2691.093,571.89246,
2688.182,581.995,
2685.272,579.17158,
2682.361,586.40448,
2679.450,579.1281,
2676.540,583.43597,
2673.629,585.71133,
2670.719,585.65966,
2667.808,585.42364,
2664.898,599.089,
2661.987,614.24164,
2659.076,615.99353,
2656.166,590.19751,
2653.255,608.62671,
2650.345,622.31874,
2647.434,608.17552,
2644.524,625.83063,
2641.613,624.06073,
2638.702,620.43812,
2635.792,616.59533,
2632.881,622.27351,
2629.971,633.63002,
2627.060,628.53969,
2624.149,636.56564,
2621.239,624.36907,
2618.328,633.18036,
2615.418,642.4159,
2612.507,649.81759,
2609.597,644.48678,
2606.686,650.92116,
2603.775,648.06152,
2600.865,664.02345,
2597.954,662.75831,
2595.044,671.03576,
2592.133,668.0947,
2589.223,691.23081,
2586.312,660.81221,
2583.401,660.94438,
2580.491,657.50005,
2577.580,682.37005,
2574.670,678.26805,
2571.759,682.53167,
2568.848,685.90537,
2565.938,695.85102,
2563.027,710.95914,
2560.117,699.55258,
2557.206,711.31965,
2554.296,708.3155,
2551.385,698.375,
2548.474,694.15269,
2545.564,705.93182,
2542.653,715.06963,
2539.743,718.85652,
2536.832,720.375,
2533.922,710.42231,
2531.011,712.27509,
2528.100,721.10326,
2525.190,728.21271,
2522.279,720.51569,
2519.369,724.58247,
2516.458,724.59526,
2513.548,739.36567,
2510.637,727.40393,
2507.726,751.50509,
2504.816,742.56328,
2501.905,758.7372,
2498.995,742.19584,
2496.084,740.90811,
2493.173,735.53261,
2490.263,749.91402,
2487.352,766.45847,
2484.442,765.81184,
2481.531,763.06113,
2478.621,761.76835,
2475.710,768.56669,
2472.799,787.45578,
2469.889,782.94843,
2466.978,775.00408,
2464.068,779.78245,
2461.157,783.68007,
2458.247,776.63976,
2455.336,796.22433,
2452.425,801.59198,
2449.515,783.49766,
2446.604,785.78513,
2443.694,794.77058,
2440.783,819.61712,
2437.872,820.04682,
2434.962,813.21371,
2432.051,807.15874,
2429.141,818.15118,
2426.230,817.0921,
2423.320,844.9609,
2420.409,832.08023,
2417.498,830.55478,
2414.588,858.26463,
2411.677,848.94873,
2408.767,858.30414,
2405.856,854.44635,
2402.946,843.67795,
2400.035,855.64967,
2397.124,880.89374,
2394.214,863.10699,
2391.303,870.51321,
2388.393,868.33316,
2385.482,853.21217,
2382.571,896.02032,
2379.661,904.00291,
2376.750,896.42923,
2373.840,870.98134,
2370.929,891.09343,
2368.019,893.72413,
2365.108,903.72317,
2362.197,912.76405,
2359.287,911.98001,
2356.376,908.38028,
2353.466,907.73798,
2350.555,919.74509,
2347.645,903.24523,
2344.734,914.59165,
2341.823,937.10967,
2338.913,919.66455,
2336.002,934.5447,
2333.092,963.68537,
2330.181,971.42868,
2327.270,942.24518,
2324.360,947.21457,
2321.449,977.40561,
2318.539,954.94682,
2315.628,953.5085,
2312.718,966.67456,
2309.807,978.05813,
2306.896,987.87891,
2303.986,985.45938,
2301.075,969.88568,
2298.165,983.3273,
2295.254,970.76277,
2292.344,984.52847,
2289.433,993.64909,
2286.522,990.18294,
2283.612,1020.0064,
2280.701,999.81452,
2277.791,1039.7739,
2274.880,1030.5109,
2271.969,1055.9511,
2269.059,1056.8791,
2266.148,1046.4568,
2263.238,1044.4754,
2260.327,1043.7201,
2257.417,1069.4444,
2254.506,1055.2297,
2251.595,1078.3604,
2248.685,1081.5366,
2245.774,1087.3858,
2242.864,1067.4498,
2239.953,1093.2785,
2237.043,1073.5304,
2234.132,1084.1983,
2231.221,1106.7704,
2228.311,1119.8131,
2225.400,1133.981,
2222.490,1124.8311,
2219.579,1138.9045,
2216.669,1142.3082,
2213.758,1151.1567,
2210.847,1170.1382,
2207.937,1184.0085,
2205.026,1201.9301,
2202.116,1228.5342,
2199.205,1260.9505,
2196.294,1258.805,
2193.384,1282.427,
2190.473,1313.3985,
2187.563,1345.4813,
2184.652,1377.9178,
2181.742,1457.1729,
2178.831,1527.2389,
2175.920,1595.4278,
2173.010,1694.4306,
2170.099,1807.1652,
2167.189,1902.949,
2164.278,1998.8092,
2161.368,2128.0852,
2158.457,2253.0432,
2155.546,2349.2972,
2152.636,2418.3057,
2149.725,2544.2273,
2146.815,2586.6743,
2143.904,2602.5943,
2140.993,2648.4438,
2138.083,2633.3386,
2135.172,2592.0471,
2132.262,2546.9657,
2129.351,2478.0023,
2126.441,2437.4041,
2123.530,2332.8373,
2120.619,2183.8893,
2117.709,2074.3247,
2114.798,1972.9093,
2111.888,1865.465,
2108.977,1731.5405,
2106.067,1621.9129,
2103.156,1569.7009,
2100.245,1492.3725,
2097.335,1482.5949,
2094.424,1428.6469,
2091.514,1388.5148,
2088.603,1381.4764,
2085.692,1381.7393,
2082.782,1364.2908,
2079.871,1346.5174,
2076.961,1323.7957,
2074.050,1318.7144,
2071.140,1322.1569,
2068.229,1305.9193,
2065.318,1314.2645,
2062.408,1296.3213,
2059.497,1277.1964,
2056.587,1298.5608,
2053.676,1284.7762,
2050.766,1274.8369,
2047.855,1247.8624,
2044.944,1233.0352,
2042.034,1252.034,
2039.123,1262.476,
2036.213,1273.7017,
2033.302,1272.6577,
2030.391,1260.0702,
2027.481,1274.4602,
2024.570,1258.6185,
2021.660,1247.7889,
2018.749,1274.6789,
2015.839,1283.5856,
2012.928,1292.7542,
2010.017,1298.0243,
2007.107,1285.1395,
2004.196,1259.744,
2001.286,1268.2725,
1998.375,1263.4577,
1995.465,1249.5089,
1992.554,1255.2632,
1989.643,1259.2713,
1986.733,1199.4083,
1983.822,1236.5035,
1980.912,1235.8595,
1978.001,1216.6459,
1975.090,1221.6086,
1972.180,1234.4414,
1969.269,1261.8089,
1966.359,1244.5099,
1963.448,1247.7938,
1960.538,1240.2024,
1957.627,1207.9508,
1954.716,1281.1056,
1951.806,1202.4679,
1948.895,1226.3082,
1945.985,1235.7541,
1943.074,1194.0946,
1940.164,1209.0292,
1937.253,1236.5141,
1934.342,1219.2381,
1931.432,1173.9334,
1928.521,1164.7135,
1925.611,1186.5112,
1922.700,1197.9151,
1919.790,1201.0975,
1916.879,1179.049,
1913.968,1194.3541,
1911.058,1177.9516,
1908.147,1214.2422,
1905.237,1200.8676,
1902.326,1161.7142,
1899.415,1183.2055,
1896.505,1176.08,
1893.594,1207.3689,
1890.684,1194.5909,
1887.773,1189.8573,
1884.863,1219.3203,
1881.952,1215.8201,
1879.041,1161.2031,
1876.131,1154.3332,
1873.220,1192.9858,
1870.310,1219.7247,
1867.399,1195.7908,
1864.489,1205.6351,
1861.578,1186.5344,
1858.667,1181.4558,
1855.757,1199.7736,
1852.846,1201.1237,
1849.936,1202.7934,
1847.025,1203.7886,
1844.114,1188.1326,
1841.204,1196.7701,
1838.293,1217.38,
1835.383,1240.0605,
1832.472,1250.1072,
1829.562,1266.6495,
1826.651,1235.2457,
1823.740,1223.1106,
1820.830,1268.0447,
1817.919,1239.6562,
1815.009,1268.0493,
1812.098,1278.8632,
1809.188,1263.4293,
1806.277,1300.5119,
1803.366,1274.1754,
1800.456,1263.3642,
1797.545,1282.6798,
1794.635,1301.2469,
1791.724,1281.2972,
1788.813,1321.1747,
1785.903,1319.437,
1782.992,1312.6194,
1780.082,1304.4838,
1777.171,1303.0383,
1774.261,1300.2302,
1771.350,1327.2688,
1768.439,1330.0328,
1765.529,1322.013,
1762.618,1342.0375,
1759.708,1345.2228,
1756.797,1339.9886,
1753.887,1370.7103,
1750.976,1371.5576,
1748.065,1347.1584,
1745.155,1364.3684,
1742.244,1374.7265,
1739.334,1409.6644,
1736.423,1430.6142,
1733.512,1409.818,
1730.602,1421.5715,
1727.691,1397.6686,
1724.781,1447.3682,
1721.870,1430.3796,
1718.960,1435.5307,
1716.049,1434.1801,
1713.138,1476.1248,
1710.228,1436.379,
1707.317,1495.7179,
1704.407,1497.1878,
1701.496,1493.6404,
1698.586,1522.0185,
1695.675,1531.8607,
1692.764,1537.1086,
1689.854,1536.4183,
1686.943,1600.1491,
1684.033,1599.4495,
1681.122,1545.3096,
1678.211,1642.4328,
1675.301,1629.4182,
1672.390,1656.5694,
1669.480,1721.6076,
1666.569,1751.251,
1663.659,1819.6853,
1660.748,1838.0858,
1657.837,1825.1902,
1654.927,1907.687,
1652.016,1962.4965,
1649.106,1970.2393,
1646.195,2083.9194,
1643.285,2067.084,
1640.374,2139.7269,
1637.463,2110.9783,
1634.553,2199.7346,
1631.642,2291.1893,
1628.732,2366.1927,
1625.821,2503.4679,
1622.911,2644.5748,
1620.000,2746.0899,
1617.089,2929.6735,
1614.179,3070.3987,
1611.268,3259.2368,
1608.358,3376.9435,
1605.447,3573.7766,
1602.536,3587.2388,
1599.626,3625.0922,
1596.715,3656.5106,
1593.805,3639.6997,
1590.894,3573.0861,
1587.984,3516.7399,
1585.073,3466.8342,
1582.162,3488.596,
1579.252,3453.4599,
1576.341,3410.7303,
1573.431,3393.7601,
1570.520,3366.9149,
1567.610,3344.4728,
1564.699,3251.6464,
1561.788,3271.1914,
1558.878,3206.6641,
1555.967,3144.5731,
1553.057,3094.4616,
1550.146,3047.1787,
1547.235,2970.5714,
1544.325,2906.8848,
1541.414,2882.2741,
1538.504,2874.3474,
1535.593,2866.5582,
1532.683,2857.5374,
1529.772,2831.2254,
1526.861,2753.1072,
1523.951,2691.084,
1521.040,2695.181,
1518.130,2659.2523,
1515.219,2608.1352,
1512.309,2600.6408,
1509.398,2591.723,
1506.487,2574.9342,
1503.577,2565.694,
1500.666,2586.8174,
1497.756,2466.1211,
1494.845,2498.1743,
1491.934,2469.3026,
1489.024,2447.1652,
1486.113,2390.7421,
1483.203,2319.7624,
1480.292,2324.9512,
1477.382,2259.4822,
1474.471,2284.0461,
1471.560,2245.5784,
1468.650,2195.6277,
1465.739,2180.7345,
1462.829,2194.6986,
1459.918,2186.6953,
1457.008,2205.3754,
1454.097,2213.8049,
1451.186,2191.3653,
1448.276,2181.4024,
1445.365,2168.1278,
1442.455,2201.6483,
1439.544,2199.2342,
1436.633,2189.4237,
1433.723,2190.1378,
1430.812,2155.4987,
1427.902,2094.0593,
1424.991,2080.7906,
1422.081,2058.3555,
1419.170,2041.686,
1416.259,2060.4366,
1413.349,2010.9976,
1410.438,2010.8695,
1407.528,2015.8,
1404.617,2024.3562,
1401.707,2037.2043,
1398.796,2021.6058,
1395.885,2031.8595,
1392.975,2045.7278,
1390.064,1987.6124,
1387.154,1977.6168,
1384.243,1905.4069,
1381.332,1844.2403,
1378.422,1896.3021,
1375.511,1991.8538,
1372.601,2180.4538,
1369.690,2279.5256,
1366.780,2326.6405,
1363.869,2355.7164,
1360.958,2402.3278,
1358.048,2416.4419,
1355.137,2491.2276,
1352.227,2595.3164,
1349.316,2659.6489,
1346.406,2723.6427,
1343.495,2772.3854,
1340.584,2774.9813,
1337.674,2842.6327,
1334.763,2962.8217,
1331.853,3000.8382,
1328.942,2999.7066,
1326.032,3054.8372,
1323.121,3091.0859,
1320.210,3126.6778,
1317.300,3114.995,
1314.389,3158.0151,
1311.479,3200.9576,
1308.568,3212.9062,
1305.657,3299.1232,
1302.747,3378.1509,
1299.836,3391.2425,
1296.926,3550.1951,
1294.015,3610.8705,
1291.105,3660.0437,
1288.194,3759.8279,
1285.283,3828.4832,
1282.373,3935.6012,
1279.462,3999.4532,
1276.552,4034.4617,
1273.641,4075.902,
1270.731,4084.0257,
1267.820,4060.6072,
1264.909,4079.0558,
1261.999,4041.5401,
1259.088,4073.4643,
1256.178,3997.4375,
1253.267,3968.2639,
1250.356,3843.5011,
1247.446,3761.7325,
1244.535,3714.6429,
1241.625,3663.3825,
1238.714,3579.4435,
1235.804,3454.0741,
1232.893,3426.996,
1229.982,3440.7141,
1227.072,3303.1067,
1224.161,3304.3015,
1221.251,3229.6906,
1218.340,3153.4935,
1215.430,3120.3191,
1212.519,3086.8512,
1209.608,3063.0063,
1206.698,3084.9283,
1203.787,3094.2444,
1200.877,3106.7153,
1197.966,3144.48,
1195.055,3231.6999,
1192.145,3262.9046,
1189.234,3345.5813,
1186.324,3464.2915,
1183.413,3523.5171,
1180.503,3500.5122,
1177.592,3483.4056,
1174.681,3525.351,
1171.771,3447.5205,
1168.860,3367.1425,
1165.950,3293.2593,
1163.039,3248.7405,
1160.129,3242.2736,
1157.218,3205.9932,
1154.307,3144.1948,
1151.397,3108.1614,
1148.486,3099.669,
1145.576,3132.8309,
1142.665,3074.2286,
1139.754,3036.0162,
1136.844,2992.6596,
1133.933,2958.0203,
1131.023,2962.7867,
1128.112,2988.7314,
1125.202,2981.4668,
1122.291,2936.1459,
1119.380,2990.4443,
1116.470,2997.5045,
1113.559,3019.2527,
1110.649,2998.5263,
1107.738,3029.3837,
1104.828,3050.8988,
1101.917,3030.5172,
1099.006,3040.0245,
1096.096,3036.7086,
1093.185,3009.4906,
1090.275,3026.7975,
1087.364,3005.3023,
1084.453,2990.5627,
1081.543,3009.8478,
1078.632,3040.8223,
1075.722,3048.375,
1072.811,3047.6924,
1069.901,3038.0866,
1066.990,3060.0083,
1064.079,3098.0397,
1061.169,3158.1114,
1058.258,3175.7416,
1055.348,3159.7817,
1052.437,3183.5229,
1049.527,3190.617,
1046.616,3222.7636,
1043.705,3228.6873,
1040.795,3237.0371,
1037.884,3255.5357,
1034.974,3267.1405,
1032.063,3281.7359,
1029.153,3337.5707,
1026.242,3314.2169,
1023.331,3288.3766,
1020.421,3283.375,
1017.510,3313.0696,
1014.600,3353.2922,
1011.689,3386.6375,
1008.778,3427.6226,
1005.868,3517.348,
1002.957,3625.7526,
1000.047,3789.4311,
997.136,3906.6315,
994.226,3925.8369,
991.315,3896.5928,
988.404,3869.543,
985.494,3714.9722,
982.583,3696.9845,
979.673,3660.7193,
976.762,3611.9747,
973.852,3581.9549,
970.941,3582.0062,
968.030,3599.2826,
965.120,3621.332,
962.209,3611.1015,
959.299,3605.1255,
956.388,3632.4931,
953.477,3625.37,
950.567,3598.0604,
947.656,3644.1576,
944.746,3657.7505,
941.835,3644.6082,
938.925,3701.2576,
936.014,3740.974,
933.103,3731.3672,
930.193,3685.5906,
927.282,3632.8168,
924.372,3604.0662,
921.461,3615.103,
918.551,3559.377,
915.640,3493.2779,
912.729,3459.8864,
909.819,3449.0405,
906.908,3438.9314,
903.998,3470.9849,
901.087,3480.0115,
898.176,3483.2382,
895.266,3512.4017,
892.355,3570.4168,
889.445,3581.3273,
886.534,3629.7976,
883.624,3648.7946,
880.713,3672.2582,
877.802,3696.9754,
874.892,3697.0573,
871.981,3642.6315,
869.071,3653.4918,
866.160,3676.0738,
863.250,3692.1896,
860.339,3696.5851,
857.428,3675.0093,
854.518,3598.6027,
851.607,3641.0382,
848.697,3625.677,
845.786,3607.5905,
842.875,3623.4452,
839.965,3666.5546,
837.054,3667.4122,
834.144,3670.7272,
831.233,3690.0403,
828.323,3669.2061,
825.412,3651.2535,
822.501,3661.5448,
819.591,3568.1617,
816.680,3512.4903,
813.770,3499.375,
810.859,3469.1419,
807.949,3432.9262,
805.038,3433.0807,
802.127,3422.3801,
799.217,3420.6296,
796.306,3410.7263,
793.396,3390.5275,
790.485,3374.376,
787.574,3390.8696,
784.664,3430.235,
781.753,3407.1807,
778.843,3422.27,
775.932,3441.0295,
773.022,3419.0809,
770.111,3455.8719,
767.200,3415.7415,
764.290,3386.1944,
761.379,3396.4316,
758.469,3420.7487,
755.558,3384.1562,
752.648,3376.8248,
749.737,3330.9853,
746.826,3281.2666,
743.916,3218.4265,
741.005,3114.6672,
738.095,2949.0443,
735.184,2735.5938,
732.274,2694.136,
729.363,2834.6412,
726.452,3081.7035,
723.542,3266.2452,
720.631,3284.0204,
717.721,3347.0966,
714.810,3410.6476,
711.899,3434.1671,
708.989,3407.5385,
706.078,3384.9385,
703.168,3350.2284,
700.257,3330.5499,
697.347,3333.2876,
694.436,3344.9746,
691.525,3256.556,
688.615,3254.9845,
685.704,3277.4624,
682.794,3286.8219,
679.883,3266.2761,
676.973,3286.3104,
674.062,3290.375,
671.151,3306.5932,
668.241,3331.187,
665.330,3342.6565,
662.420,3327.4806,
659.509,3321.8353,
656.598,3341.5797,
653.688,3368.9149,
650.777,3367.753,
647.867,3378.9016,
644.956,3360.943,
642.046,3333.4495,
639.135,3323.0651,
636.224,3363.5938,
633.314,3407.2604,
630.403,3384.0848,
627.493,3385.3398,
624.582,3431.0253,
621.672,3456.3691,
618.761,3445.216,
615.850,3481.5971,
612.940,3523.2549,
610.029,3532.2206,
607.119,3483.2635,
604.208,3484.0551,
601.297,3499.835,
598.387,3524.267,
595.476,3546.324,
592.566,3492.8034,
589.655,3517.7132,
586.745,3495.148,
583.834,3440.0575,
580.923,3435.5835,
578.013,3470.1118,
575.102,3446.1069,
572.192,3421.7323,
569.281,3434.326,
566.371,3500.849,
563.460,3563.8125,
560.549,3566.422,
557.639,3551.6262,
554.728,3573.3459,
551.818,3604.5585,
548.907,3641.2362,
545.996,3634.3261,
543.086,3597.0658,
540.175,3614.196,
537.265,3656.6589,
534.354,3720.0356,
531.444,3755.3927,
528.533,3728.4585,
525.622,3785.8786,
522.712,3782.5994,
519.801,3820.4919,
516.891,3906.3568,
513.980,3945.8458,
511.070,3966.2793,
508.159,3997.2533,
505.248,4042.9033,
502.338,4102.5498,
499.427,4142.685,
496.517,4184.4861,
493.606,4212.0764,
490.695,4223.4404,
487.785,4252.6925,
484.874,4281.2853,
481.964,4285.6542,
479.053,4265.2852,
476.143,4231.4949,
473.232,4261.7482,
470.321,4256.8583,
467.411,4238.1217,
464.500,4237.0065,
461.590,4222.4575,
458.679,4226.0791,
455.769,4210.9506,
452.858,4166.2838,
449.947,4184.6182,
447.037,4224.1739,
444.126,4233.6962,
441.216,4217.254,
438.305,4256.8744,
435.395,4232.8714,
432.484,4219.8755,
429.573,4229.0551,
426.663,4253.3796,
423.752,4212.8324,
420.842,4155.5567,
417.931,4124.6733,
415.020,4178.5167,
412.110,4248.415,
409.199,4289.0229,
406.289,4298.2416,
403.378,4276.5261,
400.468,4321.1298,
397.557,4305.0402,
394.646,4258.0595,
391.736,4207.0712,
388.825,4166.3427,
385.915,4119.2502,
383.004,4098.0835,
380.094,4129.1315,
377.183,4261.5673,
374.272,4327.6851,
371.362,4390.3432,
368.451,4482.5148,
365.541,4501.2782,
362.630,4530.4096,
359.719,4549.7831,
356.809,4551.0482,
353.898,4595.2273,
350.988,4604.6626,
348.077,4607.8928,
345.167,4622.1697,
342.256,4637.8581,
339.345,4657.7865,
336.435,4691.0841,
333.524,4743.0327,
330.614,4763.897,
327.703,4797.5855,
324.793,4829.0464,
321.882,4845.4056,
318.971,4858.0442,
316.061,4886.3024,
313.150,4921.5369,
310.240,4954.19,
307.329,4954.6604,
304.418,4964.406,
301.508,4971.0581,
298.597,4951.0668,
295.687,4884.3599,
292.776,4929.6254,
289.866,5088.9984,
286.955,5338.6876,
284.044,5488.8574,
281.134,5630.5434,
278.223,5778.2067,
275.313,5913.7881,
272.402,6067.8501,
269.492,6200.8333,
266.581,6297.6826,
263.670,6371.9358,
260.760,6496.8069,
257.849,6647.5764,
254.939,6808.2966,
252.028,6840.7765,
249.117,6874.3027,
246.207,6895.6397,
243.296,6877.3388,
240.386,6873.416,
237.475,6845.0977,
234.565,6797.1187,
231.654,6770.0945,
228.743,6739.6342,
225.833,6671.372,
222.922,6556.3218,
220.012,6533.7366,
217.101,6480.2477,
214.191,6451.3898,
211.280,6514.679,
208.369,6498.5178,
205.459,6425.6927,
202.548,6334.0073,
199.638,6349.246,
196.727,6339.122,
193.816,6385.6662,
190.906,6514.5212,
187.995,6461.6674,
185.085,6480.2577,
182.174,6510.4055,
179.264,6469.9306,
176.353,6516.6373,
173.442,6525.4343,
170.532,6486.3427,
167.621,6451.7358,
164.711,6346.1961,
161.800,6172.3743,
158.890,5917.5908,
155.979,5573.9745,
153.068,5119.8808,
150.158,4568.2289,
147.247,3944.3284,
144.337,3254.985,
141.426,2564.6816,
138.516,1902.991,
135.605,1359.4626,
132.694,913.75295,
129.784,571.58139,
126.873,382.78711,
123.963,257.30727,
121.052,174.37765,
118.141,131.54353,
115.231,107.21561,
112.320,93.562277,
109.410,85.102474,
106.499,68.010748,
103.589,62.133982,
100.678,56.300674,
97.767,45.636611,
94.857,39.831088,
91.946,35.359446,
89.036,32.600796,
86.125,34.019206,
83.215,33.313159,
80.304,31.896135,
77.393,30.479795,
74.483,23.168515,
71.572,21.186761,
68.662,23.613058,
65.751,15.842096,
62.840,20.60053,
59.930,26.127566,
57.019,17.666582,
54.109,16.972161,
51.198,16.771781,
48.288,15.442949,
45.377,23.883486,
42.466,23.252807,
39.556,17.490119,
36.645,18.192309,
33.735,20.451994,
30.824,21.491452,
27.914,18.686751,
25.003,17.129725,
22.092,14.437573,
19.182,10.809774,
16.271,24.100087,
13.361,109.03056,
10.450,236.76403,
7.539,343.60628,
4.629,323.8731,
1.718,156.85782,
-1.192,-242.606,
-4.103,-235.8964,
-7.013,-139.03662,
-9.924,-2.625,
