,PLECFE~1,
Wavenumbers [1/cm],Intensity,
3014.167,3.75,
3011.256,-1.4999463,
3008.346,213.31594,
3005.435,248.01855,
3002.525,254.26007,
2999.614,278.89804,
2996.704,275.20154,
2993.793,287.5985,
2990.882,296.45235,
2987.972,287.73991,
2985.061,303.48401,
2982.151,320.46596,
2979.240,327.49809,
2976.329,336.99863,
2973.419,352.98107,
2970.508,361.71655,
2967.598,374.41546,
2964.687,371.57065,
2961.777,368.50206,
2958.866,382.42459,
2955.955,384.65043,
2953.045,417.93345,
2950.134,406.62169,
2947.224,412.54713,
2944.313,439.30057,
2941.403,464.82208,
2938.492,463.32453,
2935.581,442.91692,
2932.671,463.26931,
2929.760,477.92695,
2926.850,500.38421,
2923.939,470.27339,
2921.028,477.2443,
2918.118,500.27141,
2915.207,506.45247,
2912.297,489.80501,
2909.386,506.11497,
2906.476,499.00561,
2903.565,491.12111,
2900.654,498.53765,
2897.744,470.93858,
2894.833,489.46127,
2891.923,476.09929,
2889.012,453.4552,
2886.102,449.85677,
2883.191,396.79154,
2880.280,277.96049,
2877.370,56.471373,
2874.459,23.134027,
2871.549,193.81713,
2868.638,430.44678,
2865.727,463.33457,
2862.817,505.06549,
2859.906,493.23148,
2856.996,512.71377,
2854.085,504.90543,
2851.175,525.41864,
2848.264,543.456,
2845.353,516.90097,
2842.443,532.53468,
2839.532,547.30223,
2836.622,544.19922,
2833.711,521.90542,
2830.801,539.13824,
2827.890,541.27274,
2824.979,568.08388,
2822.069,553.10254,
2819.158,573.86859,
2816.248,571.945,
2813.337,547.81218,
2810.427,578.44145,
2807.516,580.69969,
2804.605,571.54567,
2801.695,566.78947,
2798.784,579.49331,
2795.874,580.46504,
2792.963,582.96436,
2790.052,546.75815,
2787.142,542.69754,
2784.231,555.07299,
2781.321,565.81286,
2778.410,558.03555,
2775.500,557.23793,
2772.589,554.48165,
2769.678,564.03671,
2766.768,583.2879,
2763.857,582.27794,
2760.947,592.22794,
2758.036,599.76281,
2755.126,591.60257,
2752.215,597.3681,
2749.304,567.32557,
2746.394,594.65522,
2743.483,604.49999,
2740.573,577.47332,
2737.662,592.55768,
2734.751,600.46863,
2731.841,593.42583,
2728.930,589.99571,
2726.020,599.4184,
2723.109,615.82191,
2720.199,614.55305,
2717.288,622.03102,
2714.377,636.29558,
2711.467,623.09396,
2708.556,631.01611,
2705.646,646.87682,
2702.735,636.75,
2699.825,642.13002,
2696.914,641.27363,
2694.003,629.98901,
2691.093,652.94616,
2688.182,637.34926,
2685.272,650.55512,
2682.361,641.87336,
2679.450,645.5031,
2676.540,649.68903,
2673.629,647.08184,
2670.719,658.02727,
2667.808,634.2577,
2664.898,648.30836,
2661.987,662.38352,
2659.076,690.69826,
2656.166,676.70234,
2653.255,671.79251,
2650.345,685.75908,
2647.434,704.75,
2644.524,703.59172,
2641.613,701.75,
2638.702,693.87625,
2635.792,678.90951,
2632.881,668.18428,
2629.971,687.47489,
2627.060,693.41563,
2624.149,698.99375,
2621.239,691.24111,
2618.328,688.51297,
2615.418,708.40455,
2612.507,715.61165,
2609.597,713.11727,
2606.686,714.16566,
2603.775,719.9127,
2600.865,731.04352,
2597.954,733.4146,
2595.044,720.14238,
2592.133,725.70561,
2589.223,706.54471,
2586.312,732.43341,
2583.401,746.97267,
2580.491,762.92788,
2577.580,745.7665,
2574.670,753.25936,
2571.759,750.05308,
2568.848,745.34112,
2565.938,750.65463,
2563.027,759.23642,
2560.117,744.65655,
2557.206,768.35147,
2554.296,771.54863,
2551.385,769.25404,
2548.474,779.37974,
2545.564,773.0349,
2542.653,789.50839,
2539.743,776.28081,
2536.832,772.99486,
2533.922,800.90769,
2531.011,804.70051,
2528.100,792.48172,
2525.190,797.33115,
2522.279,778.42171,
2519.369,773.56121,
2516.458,787.20113,
2513.548,796.36816,
2510.637,796.42631,
2507.726,798.00648,
2504.816,797.8774,
2501.905,818.4311,
2498.995,809.94438,
2496.084,826.60365,
2493.173,821.19735,
2490.263,833.51386,
2487.352,810.3776,
2484.442,846.61082,
2481.531,833.74478,
2478.621,837.80218,
2475.710,866.58898,
2472.799,848.46297,
2469.889,847.53946,
2466.978,857.956,
2464.068,844.68114,
2461.157,872.6652,
2458.247,850.69131,
2455.336,870.70695,
2452.425,860.26885,
2449.515,858.18453,
2446.604,872.17404,
2443.694,858.56416,
2440.783,898.37613,
2437.872,892.11465,
2434.962,900.69931,
2432.051,902.62663,
2429.141,908.46176,
2426.230,954.55563,
2423.320,930.12151,
2420.409,931.28837,
2417.498,941.14326,
2414.588,941.93251,
2411.677,939.49899,
2408.767,931.73819,
2405.856,937.66186,
2402.946,940.9046,
2400.035,930.55751,
2397.124,935.9746,
2394.214,932.88401,
2391.303,929.18089,
2388.393,914.59414,
2385.482,924.95689,
2382.571,895.73719,
2379.661,913.40093,
2376.750,949.79917,
2373.840,972.51557,
2370.929,988.60921,
2368.019,985.4846,
2365.108,993.54058,
2362.197,994.15274,
2359.287,1004.9266,
2356.376,994.77289,
2353.466,994.20553,
2350.555,989.62535,
2347.645,1012.4467,
2344.734,1009.8698,
2341.823,1013.6505,
2338.913,1027.3485,
2336.002,1042.537,
2333.092,1048.4283,
2330.181,1051.0492,
2327.270,1062.255,
2324.360,1056.2288,
2321.449,1059.9337,
2318.539,1043.6644,
2315.628,1064.1605,
2312.718,1059.7346,
2309.807,1042.5261,
2306.896,1063.2226,
2303.986,1059.276,
2301.075,1073.3032,
2298.165,1071.9614,
2295.254,1072.7069,
2292.344,1091.3807,
2289.433,1088.3677,
2286.522,1092.6918,
2283.612,1114.9605,
2280.701,1119.4809,
2277.791,1100.9504,
2274.880,1111.7419,
2271.969,1134.5237,
2269.059,1120.6682,
2266.148,1126.2592,
2263.238,1166.9353,
2260.327,1138.1636,
2257.417,1126.7133,
2254.506,1149.0406,
2251.595,1129.0409,
2248.685,1171.1518,
2245.774,1168.8272,
2242.864,1189.4807,
2239.953,1159.2534,
2237.043,1165.4121,
2234.132,1187.6304,
2231.221,1199.5122,
2228.311,1196.6198,
2225.400,1235.3709,
2222.490,1189.7924,
2219.579,1212.4262,
2216.669,1242.7309,
2213.758,1264.3618,
2210.847,1258.4352,
2207.937,1259.5464,
2205.026,1296.1958,
2202.116,1269.1895,
2199.205,1292.8627,
2196.294,1298.304,
2193.384,1312.1445,
2190.473,1325.0458,
2187.563,1378.7548,
2184.652,1389.3892,
2181.742,1446.7049,
2178.831,1457.2675,
2175.920,1492.6425,
2173.010,1584.3554,
2170.099,1622.0154,
2167.189,1732.2666,
2164.278,1815.6354,
2161.368,1930.1731,
2158.457,2061.1187,
2155.546,2142.4895,
2152.636,2272.7604,
2149.725,2349.6963,
2146.815,2447.6467,
2143.904,2553.8652,
2140.993,2591.6812,
2138.083,2626.8471,
2135.172,2713.9855,
2132.262,2709.4489,
2129.351,2670.3809,
2126.441,2630.2936,
2123.530,2510.3919,
2120.619,2379.7413,
2117.709,2278.5801,
2114.798,2135.9186,
2111.888,1990.2277,
2108.977,1852.5513,
2106.067,1782.7235,
2103.156,1682.3673,
2100.245,1619.7262,
2097.335,1575.8495,
2094.424,1527.963,
2091.514,1486.6503,
2088.603,1428.3583,
2085.692,1414.5679,
2082.782,1417.2841,
2079.871,1389.9986,
2076.961,1369.7187,
2074.050,1408.9864,
2071.140,1361.669,
2068.229,1395.0287,
2065.318,1378.1812,
2062.408,1368.1668,
2059.497,1356.3154,
2056.587,1345.4593,
2053.676,1313.0853,
2050.766,1302.0579,
2047.855,1305.1519,
2044.944,1288.2083,
2042.034,1323.5479,
2039.123,1340.9453,
2036.213,1311.9967,
2033.302,1320.1633,
2030.391,1323.5632,
2027.481,1328.7744,
2024.570,1342.921,
2021.660,1347.6317,
2018.749,1338.636,
2015.839,1336.9606,
2012.928,1336.0151,
2010.017,1316.4894,
2007.107,1345.9612,
2004.196,1339.8095,
2001.286,1330.8136,
1998.375,1298.4773,
1995.465,1264.4446,
1992.554,1286.9204,
1989.643,1255.0289,
1986.733,1278.4623,
1983.822,1302.9664,
1980.912,1275.0377,
1978.001,1285.9541,
1975.090,1255.75,
1972.180,1261.5425,
1969.269,1267.1839,
1966.359,1260.9121,
1963.448,1251.1754,
1960.538,1234.9543,
1957.627,1266.524,
1954.716,1261.0373,
1951.806,1240.8926,
1948.895,1262.6225,
1945.985,1256.848,
1943.074,1232.4217,
1940.164,1220.1731,
1937.253,1208.9764,
1934.342,1197.3056,
1931.432,1183.545,
1928.521,1208.3631,
1925.611,1220.38,
1922.700,1181.1354,
1919.790,1170.8887,
1916.879,1165.1685,
1913.968,1184.7254,
1911.058,1189.7109,
1908.147,1154.3223,
1905.237,1197,
1902.326,1170.5411,
1899.415,1160.2841,
1896.505,1121.8282,
1893.594,1116.7409,
1890.684,1160.0505,
1887.773,1163.535,
1884.863,1171.7113,
1881.952,1189.6325,
1879.041,1171.3248,
1876.131,1178.5944,
1873.220,1181.75,
1870.310,1194.7455,
1867.399,1181.9739,
1864.489,1177.75,
1861.578,1179.151,
1858.667,1194.3638,
1855.757,1205.9421,
1852.846,1216.0064,
1849.936,1214.6109,
1847.025,1221.0955,
1844.114,1246.7029,
1841.204,1232.4948,
1838.293,1237.2375,
1835.383,1232.1805,
1832.472,1217.0057,
1829.562,1245.0513,
1826.651,1247.7069,
1823.740,1247.3017,
1820.830,1268.2698,
1817.919,1285.1513,
1815.009,1280.0439,
1812.098,1270.6713,
1809.188,1265.9981,
1806.277,1255.9713,
1803.366,1284.5171,
1800.456,1272.2338,
1797.545,1297.4734,
1794.635,1298.1041,
1791.724,1321.9053,
1788.813,1319.7397,
1785.903,1281.4186,
1782.992,1233.656,
1780.082,1135.0465,
1777.171,1036.061,
1774.261,1004.9461,
1771.350,1161.4445,
1768.439,1281.7528,
1765.529,1316.9334,
1762.618,1333.0306,
1759.708,1343.3261,
1756.797,1352.1288,
1753.887,1357.8783,
1750.976,1357.5707,
1748.065,1361.6655,
1745.155,1360.2791,
1742.244,1343.8451,
1739.334,1394.95,
1736.423,1414.6846,
1733.512,1423.3923,
1730.602,1412.0416,
1727.691,1428.2445,
1724.781,1448.9084,
1721.870,1448.7262,
1718.960,1422.2608,
1716.049,1452.8259,
1713.138,1517.8897,
1710.228,1502.5114,
1707.317,1518.2106,
1704.407,1474.0333,
1701.496,1519.7967,
1698.586,1476.7028,
1695.675,1540.121,
1692.764,1550.4303,
1689.854,1545.0098,
1686.943,1534.121,
1684.033,1606.8873,
1681.122,1616.6141,
1678.211,1615.7595,
1675.301,1645.6575,
1672.390,1714.6752,
1669.480,1690.472,
1666.569,1779.7627,
1663.659,1781.142,
1660.748,1805.6562,
1657.837,1851.5969,
1654.927,1845.9449,
1652.016,1898.1313,
1649.106,1993.6766,
1646.195,1992.3564,
1643.285,2059.4818,
1640.374,2133.4155,
1637.463,2121.2448,
1634.553,2312.4298,
1631.642,2359.3027,
1628.732,2501.4374,
1625.821,2616.8795,
1622.911,2813.6342,
1620.000,3006.3058,
1617.089,3220.4515,
1614.179,3468.6715,
1611.268,3644.2439,
1608.358,3881.4188,
1605.447,4074.7229,
1602.536,4096.0008,
1599.626,4108.7091,
1596.715,4087.9676,
1593.805,4054.4484,
1590.894,4021.6879,
1587.984,4004.7586,
1585.073,3835.9899,
1582.162,3792.5569,
1579.252,3775.8389,
1576.341,3739.1053,
1573.431,3726.051,
1570.520,3765.262,
1567.610,3677.9053,
1564.699,3609.6736,
1561.788,3543.9336,
1558.878,3516.2879,
1555.967,3459.5755,
1553.057,3369.8713,
1550.146,3274.5247,
1547.235,3185.3916,
1544.325,3115.8181,
1541.414,3084.8895,
1538.504,3040.1596,
1535.593,2981.2996,
1532.683,2929.43,
1529.772,2856.6631,
1526.861,2823.0385,
1523.951,2853.9499,
1521.040,2835.5483,
1518.130,2766.8951,
1515.219,2744.4705,
1512.309,2710.3896,
1509.398,2653.6532,
1506.487,2610.4118,
1503.577,2582.0439,
1500.666,2580.0565,
1497.756,2551.8942,
1494.845,2561.0274,
1491.934,2447.7941,
1489.024,2461.269,
1486.113,2410.7531,
1483.203,2304.6107,
1480.292,2270.5372,
1477.382,2230.3788,
1474.471,2186.4506,
1471.560,2140.1924,
1468.650,2105.5685,
1465.739,2114.9647,
1462.829,2119.7818,
1459.918,2084.8105,
1457.008,2061.2731,
1454.097,2042.415,
1451.186,2057.0092,
1448.276,2101.5258,
1445.365,2095.716,
1442.455,2109.3704,
1439.544,2085.4875,
1436.633,2066.5554,
1433.723,2045.753,
1430.812,2039.1194,
1427.902,2043.0961,
1424.991,2015.6109,
1422.081,1998.2354,
1419.170,2066.7389,
1416.259,2031.5764,
1413.349,2034.3443,
1410.438,2034.5513,
1407.528,1999.2754,
1404.617,1975.4658,
1401.707,1974.3997,
1398.796,1975.3339,
1395.885,1990.699,
1392.975,2005.1871,
1390.064,1963.028,
1387.154,1907.7222,
1384.243,1924.3714,
1381.332,1934.3354,
1378.422,1884.4593,
1375.511,2072.7523,
1372.601,2190.0247,
1369.690,2238.325,
1366.780,2306.5287,
1363.869,2378.6887,
1360.958,2420.8769,
1358.048,2490.4879,
1355.137,2515.5052,
1352.227,2539.7241,
1349.316,2623.6329,
1346.406,2703.9087,
1343.495,2758.4521,
1340.584,2802.9641,
1337.674,2834.5805,
1334.763,2973.9032,
1331.853,2951.6496,
1328.942,3031.6912,
1326.032,3097.2122,
1323.121,3151.985,
1320.210,3189.3913,
1317.300,3296.3676,
1314.389,3409.0009,
1311.479,3475.9052,
1308.568,3553.1632,
1305.657,3654.6075,
1302.747,3728.6851,
1299.836,3867.3349,
1296.926,3992.2448,
1294.015,4131.982,
1291.105,4261.0259,
1288.194,4396.7627,
1285.283,4583.5547,
1282.373,4723.5857,
1279.462,4820.3568,
1276.552,4880.4036,
1273.641,4918.9711,
1270.731,4958.453,
1267.820,4975.5178,
1264.909,4954.6514,
1261.999,4975.75,
1259.088,4975.75,
1256.178,4897.8125,
1253.267,4781.1786,
1250.356,4625.8125,
1247.446,4467.0064,
1244.535,4313.0047,
1241.625,4164.3687,
1238.714,4003.1845,
1235.804,3831.0317,
1232.893,3732.5266,
1229.982,3611.9033,
1227.072,3616.4299,
1224.161,3546.1477,
1221.251,3437.4528,
1218.340,3365.2335,
1215.430,3322.8297,
1212.519,3297.1476,
1209.608,3280.0169,
1206.698,3270.0479,
1203.787,3268.3379,
1200.877,3229.6594,
1197.966,3341.1551,
1195.055,3413.3034,
1192.145,3505.1437,
1189.234,3653.0742,
1186.324,3722.023,
1183.413,3732.2576,
1180.503,3742.7618,
1177.592,3738.2448,
1174.681,3709.0206,
1171.771,3656.3476,
1168.860,3682.2472,
1165.950,3668.6242,
1163.039,3624.2426,
1160.129,3609.6993,
1157.218,3608.8656,
1154.307,3592.7641,
1151.397,3568.6646,
1148.486,3564.6981,
1145.576,3573.8226,
1142.665,3529.427,
1139.754,3514.3592,
1136.844,3459.2273,
1133.933,3422.6739,
1131.023,3424.5524,
1128.112,3430.9653,
1125.202,3420.9239,
1122.291,3429.5047,
1119.380,3441.3343,
1116.470,3398.9729,
1113.559,3404.5755,
1110.649,3427.3954,
1107.738,3418.4605,
1104.828,3393.428,
1101.917,3371.0987,
1099.006,3348.9046,
1096.096,3362.7824,
1093.185,3346.9784,
1090.275,3425.8678,
1087.364,3448.1806,
1084.453,3475.0609,
1081.543,3519.7286,
1078.632,3547.6759,
1075.722,3535.741,
1072.811,3524.7977,
1069.901,3553.6153,
1066.990,3547.6667,
1064.079,3480.4207,
1061.169,3474.6036,
1058.258,3501.5258,
1055.348,3510.456,
1052.437,3517.7854,
1049.527,3559.992,
1046.616,3592.1386,
1043.705,3578.7932,
1040.795,3568.642,
1037.884,3582.9451,
1034.974,3593.7912,
1032.063,3600.4417,
1029.153,3654.7886,
1026.242,3663.4382,
1023.331,3671.2495,
1020.421,3717.3645,
1017.510,3735.0692,
1014.600,3770.5449,
1011.689,3816.4739,
1008.778,3807.8026,
1005.868,3820.7153,
1002.957,3928.2596,
1000.047,4091.0781,
997.136,4215.6418,
994.226,4314.7185,
991.315,4369.1386,
988.404,4352.5607,
985.494,4356.0403,
982.583,4324.3478,
979.673,4307.312,
976.762,4314.492,
973.852,4354.1327,
970.941,4380.7092,
968.030,4358.1663,
965.120,4405.8323,
962.209,4425.4408,
959.299,4410.3355,
956.388,4412.8294,
953.477,4421.9831,
950.567,4435.7755,
947.656,4474.095,
944.746,4507.2277,
941.835,4441.5355,
938.925,4440.8852,
936.014,4416.3771,
933.103,4384.75,
930.193,4367.9704,
927.282,4299.6043,
924.372,4278.4641,
921.461,4196.9552,
918.551,4148.9983,
915.640,4101.6044,
912.729,4021.5953,
909.819,3930.5318,
906.908,3966.7561,
903.998,3979.8851,
901.087,3945.8326,
898.176,3985.831,
895.266,4043.8628,
892.355,4040.613,
889.445,4125.379,
886.534,4160.8146,
883.624,4205.4286,
880.713,4238.04,
877.802,4231.6013,
874.892,4130.8744,
871.981,3848.5935,
869.071,3714.9275,
866.160,3840.0913,
863.250,4022.5988,
860.339,4123.0963,
857.428,4119.5327,
854.518,4135.3208,
851.607,3982.22,
848.697,3862.2069,
845.786,3825.4586,
842.875,3861.5103,
839.965,3942.639,
837.054,4051.9268,
834.144,4067.6731,
831.233,4056.0844,
828.323,4011.6571,
825.412,3985.0187,
822.501,3990.1325,
819.591,3886.8326,
816.680,3826.0576,
813.770,3778.5454,
810.859,3736.6392,
807.949,3708.0963,
805.038,3701.958,
802.127,3687.1417,
799.217,3693.2039,
796.306,3676.4526,
793.396,3669.9257,
790.485,3675.5903,
787.574,3651.9883,
784.664,3737.28,
781.753,3756.1049,
778.843,3790.0954,
775.932,3826.5277,
773.022,3830.5944,
770.111,3816.6956,
767.200,3768.5486,
764.290,3720.811,
761.379,3707.3844,
758.469,3712.2403,
755.558,3668.5069,
752.648,3660.3608,
749.737,3626.7633,
746.826,3587.3714,
743.916,3532.4314,
741.005,3442.5357,
738.095,3316.6948,
735.184,3228.0989,
732.274,3205.0608,
729.363,3285.3932,
726.452,3455.4075,
723.542,3580.8635,
720.631,3633.6223,
717.721,3652.9056,
714.810,3661.6988,
711.899,3680.4728,
708.989,3726.4675,
706.078,3709.1213,
703.168,3687.1406,
700.257,3659.6597,
697.347,3638.2716,
694.436,3644.2955,
691.525,3664.3907,
688.615,3665.6054,
685.704,3649.0724,
682.794,3638.8776,
679.883,3670.1917,
676.973,3702.2466,
674.062,3699.8169,
671.151,3682.9151,
668.241,3668.703,
665.330,3670.5399,
662.420,3644.9805,
659.509,3656.8931,
656.598,3668.9137,
653.688,3693.604,
650.777,3766.264,
647.867,3751.9301,
644.956,3676.9286,
642.046,3590.8756,
639.135,3558.9992,
636.224,3661.6824,
633.314,3648.1854,
630.403,3651.8445,
627.493,3659.8226,
624.582,3663.514,
621.672,3657.97,
618.761,3600.7546,
615.850,3629.033,
612.940,3664.3593,
610.029,3666.3261,
607.119,3705.8077,
604.208,3652.9489,
601.297,3633.2396,
598.387,3664.2667,
595.476,3729.1846,
592.566,3691.4053,
589.655,3639.3977,
586.745,3612.1462,
583.834,3605.8954,
580.923,3595.5131,
578.013,3556.2764,
575.102,3554.9274,
572.192,3585.6881,
569.281,3623.5478,
566.371,3594.5907,
563.460,3600.2156,
560.549,3606.1864,
557.639,3613.8527,
554.728,3629.2281,
551.818,3652.6376,
548.907,3728.4419,
545.996,3767.5294,
543.086,3749.6974,
540.175,3712.3224,
537.265,3719.1656,
534.354,3740.8109,
531.444,3759.586,
528.533,3764.8954,
525.622,3809.1244,
522.712,3854.5484,
519.801,3903.7179,
516.891,3951.3842,
513.980,3979.2588,
511.070,4013.4456,
508.159,4056.8367,
505.248,4126.3029,
502.338,4237.964,
499.427,4313.6036,
496.517,4380.1338,
493.606,4427.1907,
490.695,4451.7827,
487.785,4466.4087,
484.874,4481.6745,
481.964,4461.7569,
479.053,4430.5527,
476.143,4458.9674,
473.232,4367.9469,
470.321,4338.0755,
467.411,4349.0554,
464.500,4363.2239,
461.590,4421.4201,
458.679,4466.9156,
455.769,4518.7907,
452.858,4583.9653,
449.947,4624.4537,
447.037,4666.1218,
444.126,4709.5621,
441.216,4754.2904,
438.305,4797.7205,
435.395,4769.0013,
432.484,4798.2597,
429.573,4847.5323,
426.663,4773.7987,
423.752,4529.2327,
420.842,4216.5878,
417.931,3994.4681,
415.020,4088.5045,
412.110,4577.5411,
409.199,4885.3342,
406.289,4991.4784,
403.378,4901.4785,
400.468,4821.3431,
397.557,4860.0187,
394.646,4965.192,
391.736,5084.9532,
388.825,5060.0636,
385.915,5021.8828,
383.004,5040.7225,
380.094,5157.0168,
377.183,5181.8486,
374.272,5250.627,
371.362,5306.5763,
368.451,5316.6618,
365.541,5331.6725,
362.630,5347.7673,
359.719,5393.858,
356.809,5474.8113,
353.898,5393.1923,
350.988,5409.809,
348.077,5437.8131,
345.167,5425.6743,
342.256,5424.1802,
339.345,5418.9671,
336.435,5422.245,
333.524,5441.4681,
330.614,5432.5263,
327.703,5463.1213,
324.793,5508.4129,
321.882,5547.7644,
318.971,5553.712,
316.061,5590.9086,
313.150,5641.6071,
310.240,5686.1341,
307.329,5731.3429,
304.418,5758.325,
301.508,5752.4207,
298.597,5687.264,
295.687,5633.6659,
292.776,5612,
289.866,5642.8641,
286.955,5781.0058,
284.044,5848.82,
281.134,5927.1091,
278.223,6015.9834,
275.313,6038.0891,
272.402,6072.957,
269.492,6036.4491,
266.581,5912.4316,
263.670,5935.9574,
260.760,6025.2866,
257.849,6129.7489,
254.939,6212.6776,
252.028,6223.8838,
249.117,6215.8725,
246.207,6218.2287,
243.296,6281.9159,
240.386,6305.7278,
237.475,6332.4226,
234.565,6350.742,
231.654,6287.1987,
228.743,6288.1342,
225.833,6275.273,
222.922,6221.1385,
220.012,6208.0245,
217.101,6226.8136,
214.191,6225.8341,
211.280,6142.9034,
208.369,6179.81,
205.459,6162.422,
202.548,6101.4909,
199.638,6082.6241,
196.727,6112.1705,
193.816,6151.1991,
190.906,6183.6072,
187.995,6151.0261,
185.085,6187.5084,
182.174,6250.1524,
179.264,6284.8452,
176.353,6320.7889,
173.442,6349.9893,
170.532,6363.9535,
167.621,6314.2062,
164.711,6185.6507,
161.800,6009.9867,
158.890,5799.8263,
155.979,5463.8272,
153.068,5078.8509,
150.158,4627.6804,
147.247,4015.9851,
144.337,3368.3948,
141.426,2696.688,
138.516,2002.7373,
135.605,1452.4661,
132.694,1001.5851,
129.784,651.49656,
126.873,439.81812,
123.963,289.19574,
121.052,184.23699,
118.141,124.98313,
115.231,97.748327,
112.320,79.548189,
109.410,67.431961,
106.499,55.325322,
103.589,56.111527,
100.678,56.033783,
97.767,48.924407,
94.857,37.662175,
91.946,36.377998,
89.036,40.621021,
86.125,33.528968,
83.215,29.095398,
80.304,26.271135,
77.393,24.854795,
74.483,27.37054,
71.572,26.213535,
68.662,21.542198,
65.751,19.422844,
62.840,16.823192,
59.930,15.124572,
57.019,16.534736,
54.109,11.972713,
51.198,11.766093,
48.288,18.699038,
45.377,12.368635,
42.466,10.162219,
39.556,11.440711,
36.645,15.653853,
33.735,14.673006,
30.824,11.424678,
27.914,7.2176267,
25.003,8.6179124,
22.092,9.1041909,
19.182,7.7042343,
16.271,6.305254,
13.361,-6.8937393,
10.450,-41.196756,
7.539,-139.65922,
4.629,-284.00474,
1.718,-347.78261,
-1.192,-193.01652,
-4.103,-136.78983,
-7.013,-79.503517,
-9.924,-2.25,
