,PLB099~1,
Raman shift [1/cm],Intensity,
3014.167,-2.875,
3011.256,-3.4250107,
3008.346,188.61898,
3005.435,229.77871,
3002.525,228.33249,
2999.614,242.54192,
2996.704,265.85077,
2993.793,267.23963,
2990.882,268.91129,
2987.972,281.14518,
2985.061,283.3516,
2982.151,276.72163,
2979.240,299.07462,
2976.329,304.13046,
2973.419,314.98688,
2970.508,320.85823,
2967.598,332.69849,
2964.687,343.16984,
2961.777,349.37294,
2958.866,350.45932,
2955.955,351.40155,
2953.045,346.07804,
2950.134,383.8918,
2947.224,403.09653,
2944.313,402.125,
2941.403,416.89918,
2938.492,426.29575,
2935.581,422.22197,
2932.671,433.9276,
2929.760,438.57114,
2926.850,450.07989,
2923.939,445.63897,
2921.028,454.56606,
2918.118,461.64641,
2915.207,481.95422,
2912.297,461.23925,
2909.386,487.30749,
2906.476,470.45086,
2903.565,471.75389,
2900.654,476.57191,
2897.744,463.26329,
2894.833,477.42391,
2891.923,480.5032,
2889.012,479.91691,
2886.102,477.31284,
2883.191,469.13161,
2880.280,437.2159,
2877.370,427.46798,
2874.459,420.24447,
2871.549,453.46757,
2868.638,514.5827,
2865.727,500.09808,
2862.817,505.41109,
2859.906,500.89708,
2856.996,507.08877,
2854.085,510.72373,
2851.175,506.38705,
2848.264,497.4925,
2845.353,493.2544,
2842.443,495.53127,
2839.532,499.43838,
2836.622,481.0013,
2833.711,467.54729,
2830.801,484.1103,
2827.890,478.37676,
2824.979,492.26096,
2822.069,503.8407,
2819.158,481.02527,
2816.248,485.61921,
2813.337,499.03231,
2810.427,497.04374,
2807.516,499.75078,
2804.605,507.96395,
2801.695,502.67761,
2798.784,523.68554,
2795.874,489.27012,
2792.963,496.76809,
2790.052,472.13143,
2787.142,495.11165,
2784.231,476.54425,
2781.321,491.55349,
2778.410,478.91432,
2775.500,495.65672,
2772.589,500.85513,
2769.678,499.94407,
2766.768,514.18326,
2763.857,516.43713,
2760.947,509.27,
2758.036,516.02936,
2755.126,527.11859,
2752.215,534.02033,
2749.304,534.72031,
2746.394,514.38095,
2743.483,536.32504,
2740.573,519.36611,
2737.662,526.24186,
2734.751,536.26568,
2731.841,521.50228,
2728.930,538.90043,
2726.020,542.01794,
2723.109,530.93967,
2720.199,566.50022,
2717.288,540.56296,
2714.377,545.125,
2711.467,534.91181,
2708.556,550.63531,
2705.646,553.67427,
2702.735,558.6379,
2699.825,565.74498,
2696.914,552.02953,
2694.003,554.89573,
2691.093,563.6966,
2688.182,592.56352,
2685.272,552.36398,
2682.361,558.27784,
2679.450,565.24845,
2676.540,574.67787,
2673.629,551.46582,
2670.719,564.18324,
2667.808,577.88182,
2664.898,576.08609,
2661.987,577.09174,
2659.076,595.8362,
2656.166,586.25483,
2653.255,599.49405,
2650.345,595.28471,
2647.434,596.81091,
2644.524,604.89719,
2641.613,602.69634,
2638.702,614.90407,
2635.792,598.65541,
2632.881,607.43448,
2629.971,621.33984,
2627.060,611.7925,
2624.149,613.39374,
2621.239,623.125,
2618.328,622.88797,
2615.418,632.82499,
2612.507,629.91547,
2609.597,616.23678,
2606.686,610.93022,
2603.775,624.52977,
2600.865,631.71542,
2597.954,641.55623,
2595.044,643.84776,
2592.133,656.80679,
2589.223,657.07656,
2586.312,659.95415,
2583.401,662.71625,
2580.491,663.4952,
2577.580,648.15966,
2574.670,666.35763,
2571.759,662.42808,
2568.848,660.18575,
2565.938,656.07717,
2563.027,678.27049,
2560.117,657.95675,
2557.206,670.20618,
2554.296,693.03575,
2551.385,667.17489,
2548.474,678.45883,
2545.564,708.49189,
2542.653,688.21895,
2539.743,704.63116,
2536.832,692.79789,
2533.922,716.01462,
2531.011,703.07551,
2528.100,700.98567,
2525.190,722.61188,
2522.279,688.15676,
2519.369,707.01192,
2516.458,723.25106,
2513.548,735.27052,
2510.637,724.51017,
2507.726,708.87963,
2504.816,709.18927,
2501.905,737.16829,
2498.995,718.19994,
2496.084,732.67202,
2493.173,712.20347,
2490.263,718.47305,
2487.352,756.9998,
2484.442,750.13786,
2481.531,750.65681,
2478.621,746.30504,
2475.710,769.94864,
2472.799,748.6048,
2469.889,761.36601,
2466.978,757.85707,
2464.068,758.87105,
2461.157,750.20492,
2458.247,767.38976,
2455.336,767.18957,
2452.425,775.71464,
2449.515,786.5304,
2446.604,783.23324,
2443.694,787.65951,
2440.783,786.60248,
2437.872,793.97914,
2434.962,791.43836,
2432.051,798.05098,
2429.141,809.66607,
2426.230,801.90729,
2423.320,818.33939,
2420.409,815.63779,
2417.498,822.91152,
2414.588,826.94249,
2411.677,838.66287,
2408.767,847.81299,
2405.856,833.53214,
2402.946,836.49408,
2400.035,811.05221,
2397.124,823.59557,
2394.214,851.55939,
2391.303,848.76051,
2388.393,853.5204,
2385.482,870.68438,
2382.571,863.13781,
2379.661,871.89219,
2376.750,884.70635,
2373.840,871.6344,
2370.929,867.15749,
2368.019,886.18661,
2365.108,872.54123,
2362.197,902.09763,
2359.287,883.77179,
2356.376,905.07745,
2353.466,882.32191,
2350.555,882.72999,
2347.645,895.7422,
2344.734,911.42916,
2341.823,923.94258,
2338.913,889.27578,
2336.002,920.17039,
2333.092,929.87217,
2330.181,939.4421,
2327.270,937.45503,
2324.360,917.14149,
2321.449,937.23386,
2318.539,949.06077,
2315.628,965.65338,
2312.718,978.5413,
2309.807,946.90115,
2306.896,968.35348,
2303.986,963.60555,
2301.075,968.74202,
2298.165,960.34599,
2295.254,947.36197,
2292.344,972.28267,
2289.433,978.83546,
2286.522,978.31706,
2283.612,987.82656,
2280.701,991.06672,
2277.791,1005.7261,
2274.880,1018.627,
2271.969,1014.6723,
2269.059,1017.6836,
2266.148,1034.9046,
2263.238,1029.43,
2260.327,1046.2629,
2257.417,1043.855,
2254.506,1037.4071,
2251.595,1052.6922,
2248.685,1039.1847,
2245.774,1056.5532,
2242.864,1092.2173,
2239.953,1074.8009,
2237.043,1066.7489,
2234.132,1082.0808,
2231.221,1075.466,
2228.311,1059.817,
2225.400,1084.5472,
2222.490,1102.4671,
2219.579,1118.8345,
2216.669,1118.6417,
2213.758,1126.8662,
2210.847,1170.203,
2207.937,1158.9801,
2205.026,1182.902,
2202.116,1213.2534,
2199.205,1221.2761,
2196.294,1231.0349,
2193.384,1259.388,
2190.473,1259.409,
2187.563,1280.3522,
2184.652,1333.7519,
2181.742,1379.3988,
2178.831,1426.3858,
2175.920,1480.9429,
2173.010,1534.2781,
2170.099,1585.5208,
2167.189,1637.6273,
2164.278,1708.8858,
2161.368,1768.2619,
2158.457,1903.4102,
2155.546,1961.6078,
2152.636,2038.7206,
2149.725,2113.8833,
2146.815,2150.2574,
2143.904,2141.2625,
2140.993,2230.2626,
2138.083,2238.7146,
2135.172,2237.3517,
2132.262,2200.1109,
2129.351,2173.7352,
2126.441,2114.1151,
2123.530,2099.5985,
2120.619,1956.5932,
2117.709,1882.2937,
2114.798,1792.6593,
2111.888,1699.0519,
2108.977,1601.1779,
2106.067,1514.5218,
2103.156,1487.4468,
2100.245,1455.0899,
2097.335,1394.9103,
2094.424,1358.3806,
2091.514,1330.1142,
2088.603,1323.5167,
2085.692,1346.7643,
2082.782,1321.6111,
2079.871,1319.6256,
2076.961,1299.6749,
2074.050,1303.2159,
2071.140,1251.1131,
2068.229,1282.0234,
2065.318,1291.6802,
2062.408,1272.3368,
2059.497,1281.5715,
2056.587,1289.3228,
2053.676,1247.744,
2050.766,1278.8148,
2047.855,1243.0965,
2044.944,1243.9872,
2042.034,1263.2349,
2039.123,1283.0644,
2036.213,1267.8383,
2033.302,1257.2119,
2030.391,1257.4809,
2027.481,1267.5395,
2024.570,1276.182,
2021.660,1282.7702,
2018.749,1279.4792,
2015.839,1265.9498,
2012.928,1283.2055,
2010.017,1287.9165,
2007.107,1294.9138,
2004.196,1262.6726,
2001.286,1267.0861,
1998.375,1266.8159,
1995.465,1280.5768,
1992.554,1271.2251,
1989.643,1270.0904,
1986.733,1248.8206,
1983.822,1257.7395,
1980.912,1244.4127,
1978.001,1275.0823,
1975.090,1271.7876,
1972.180,1243.2633,
1969.269,1279.3177,
1966.359,1282.8814,
1963.448,1258.6283,
1960.538,1254.3135,
1957.627,1278.1993,
1954.716,1276.2686,
1951.806,1265.516,
1948.895,1294.548,
1945.985,1296.8276,
1943.074,1240.5641,
1940.164,1235.2115,
1937.253,1246.2029,
1934.342,1274.1592,
1931.432,1261.961,
1928.521,1235.1889,
1925.611,1245.1443,
1922.700,1218.0932,
1919.790,1235.8241,
1916.879,1226.1712,
1913.968,1204.1508,
1911.058,1201.6926,
1908.147,1253.5863,
1905.237,1261.9338,
1902.326,1267.4094,
1899.415,1264.6323,
1896.505,1206.3901,
1893.594,1237.4757,
1890.684,1257.4453,
1887.773,1272.34,
1884.863,1269.2662,
1881.952,1261.915,
1879.041,1242.6998,
1876.131,1261.3707,
1873.220,1236.616,
1870.310,1251.6182,
1867.399,1251.157,
1864.489,1277.5547,
1861.578,1216.46,
1858.667,1242.7926,
1855.757,1269.5057,
1852.846,1279.0635,
1849.936,1258.8447,
1847.025,1281.3659,
1844.114,1258.9415,
1841.204,1271.6949,
1838.293,1279.13,
1835.383,1278.311,
1832.472,1296.1372,
1829.562,1326.9279,
1826.651,1317.6117,
1823.740,1327.0522,
1820.830,1345.6999,
1817.919,1335.2806,
1815.009,1329.5563,
1812.098,1355.1565,
1809.188,1344.9932,
1806.277,1330.4348,
1803.366,1389.6259,
1800.456,1358.5312,
1797.545,1335.9191,
1794.635,1379.6419,
1791.724,1364.0472,
1788.813,1398.7181,
1785.903,1382.7529,
1782.992,1388.2487,
1780.082,1353.7275,
1777.171,1370.133,
1774.261,1395.7449,
1771.350,1398.4145,
1768.439,1412.4226,
1765.529,1431.038,
1762.618,1445.4962,
1759.708,1424.4184,
1756.797,1424.8068,
1753.887,1446.6644,
1750.976,1423.5144,
1748.065,1414.8715,
1745.155,1431.7895,
1742.244,1426.193,
1739.334,1477.9556,
1736.423,1482.9288,
1733.512,1506.1414,
1730.602,1515.8809,
1727.691,1499.0041,
1724.781,1506.7102,
1721.870,1498.8583,
1718.960,1538.0588,
1716.049,1515.244,
1713.138,1551.8748,
1710.228,1553.0329,
1707.317,1564.509,
1704.407,1576.9058,
1701.496,1581.7712,
1698.586,1605.2246,
1695.675,1565.9538,
1692.764,1583.0062,
1689.854,1700.8416,
1686.943,1632.6881,
1684.033,1690.5852,
1681.122,1688.193,
1678.211,1740.6206,
1675.301,1743.1188,
1672.390,1741.3224,
1669.480,1807.5421,
1666.569,1859.7344,
1663.659,1907.811,
1660.748,1948.4116,
1657.837,1912.956,
1654.927,1950.0313,
1652.016,1948.5063,
1649.106,2046.1814,
1646.195,2127.9811,
1643.285,2123.1504,
1640.374,2168.5675,
1637.463,2237.2239,
1634.553,2297.923,
1631.642,2352.1782,
1628.732,2448.5753,
1625.821,2524.2205,
1622.911,2669.3023,
1620.000,2804.4116,
1617.089,2949.2195,
1614.179,3136.7668,
1611.268,3271.1432,
1608.358,3406.7102,
1605.447,3545.1261,
1602.536,3609.9701,
1599.626,3677.6004,
1596.715,3694.0162,
1593.805,3613.7408,
1590.894,3582.1082,
1587.984,3576.5267,
1585.073,3508.0597,
1582.162,3540.374,
1579.252,3468.9315,
1576.341,3397.4538,
1573.431,3422.5005,
1570.520,3436.9469,
1567.610,3400.8695,
1564.699,3344.6232,
1561.788,3308.4069,
1558.878,3252.3316,
1555.967,3171.9865,
1553.057,3109.5908,
1550.146,3103.4159,
1547.235,3033.2019,
1544.325,2962.7246,
1541.414,2938.7838,
1538.504,2916.7937,
1535.593,2901.7166,
1532.683,2888.9371,
1529.772,2850.9567,
1526.861,2787.3643,
1523.951,2752.834,
1521.040,2740.8302,
1518.130,2672.1328,
1515.219,2625.0046,
1512.309,2635.9133,
1509.398,2622.4805,
1506.487,2617.5897,
1503.577,2606.272,
1500.666,2599.9618,
1497.756,2542.4385,
1494.845,2532.8843,
1491.934,2503.2321,
1489.024,2535.9568,
1486.113,2459.2389,
1483.203,2419.3746,
1480.292,2427.8527,
1477.382,2389.7126,
1474.471,2330.2454,
1471.560,2300.6117,
1468.650,2298.5414,
1465.739,2274.5054,
1462.829,2266.69,
1459.918,2273.8875,
1457.008,2294.9099,
1454.097,2290.4793,
1451.186,2275.7691,
1448.276,2306.8838,
1445.365,2299.9765,
1442.455,2256.7238,
1439.544,2312.2539,
1436.633,2277.4259,
1433.723,2271.1341,
1430.812,2246.5786,
1427.902,2202.9142,
1424.991,2236.0859,
1422.081,2174.7366,
1419.170,2194.1828,
1416.259,2192.4546,
1413.349,2139.0134,
1410.438,2132.6217,
1407.528,2140.3437,
1404.617,2146.2349,
1401.707,2150.1849,
1398.796,2153.9572,
1395.885,2174.9007,
1392.975,2174.2698,
1390.064,2122.4161,
1387.154,2106.6854,
1384.243,2071.2591,
1381.332,1979.7569,
1378.422,2055.7911,
1375.511,2185.0669,
1372.601,2259.0075,
1369.690,2367.9917,
1366.780,2464.3285,
1363.869,2541.0637,
1360.958,2554.2024,
1358.048,2552.4982,
1355.137,2628.7721,
1352.227,2686.0596,
1349.316,2727.7834,
1346.406,2831.2837,
1343.495,2878.1041,
1340.584,2902.3746,
1337.674,2938.6291,
1334.763,3003.5597,
1331.853,3067.5386,
1328.942,3073.6829,
1326.032,3070.8625,
1323.121,3154.5949,
1320.210,3167.477,
1317.300,3198.6705,
1314.389,3220.986,
1311.479,3231.4161,
1308.568,3284.889,
1305.657,3369.2873,
1302.747,3424.8571,
1299.836,3417.5699,
1296.926,3545.1588,
1294.015,3610.4307,
1291.105,3753.1311,
1288.194,3836.8232,
1285.283,3882.4811,
1282.373,3944.7498,
1279.462,4029.0259,
1276.552,4090.8495,
1273.641,4109.7454,
1270.731,4107.6548,
1267.820,4104.7482,
1264.909,4098.0582,
1261.999,4033.9891,
1259.088,4085.0679,
1256.178,4047.8715,
1253.267,3970.543,
1250.356,3905.7808,
1247.446,3796.5292,
1244.535,3708.3572,
1241.625,3648.214,
1238.714,3573.8388,
1235.804,3508.329,
1232.893,3465.7506,
1229.982,3460.2426,
1227.072,3375.1433,
1224.161,3351.4744,
1221.251,3239.4267,
1218.340,3167.791,
1215.430,3128.7552,
1212.519,3099.9005,
1209.608,3075.5569,
1206.698,3070.1253,
1203.787,3106.6828,
1200.877,3119.6384,
1197.966,3192.4703,
1195.055,3241.3472,
1192.145,3365.5832,
1189.234,3411.9105,
1186.324,3461.9476,
1183.413,3514.6986,
1180.503,3533.7995,
1177.592,3540.4685,
1174.681,3554.3236,
1171.771,3525.6936,
1168.860,3420.309,
1165.950,3364.9728,
1163.039,3314.316,
1160.129,3260.554,
1157.218,3237.5287,
1154.307,3211.5561,
1151.397,3155.826,
1148.486,3136.0241,
1145.576,3139.1976,
1142.665,3094.802,
1139.754,3126.111,
1136.844,3079.5014,
1133.933,3026.7997,
1131.023,3001.8761,
1128.112,3000.3388,
1125.202,3004.9173,
1122.291,3010.1493,
1119.380,3073.3329,
1116.470,3094.5136,
1113.559,3065.4218,
1110.649,3075.1155,
1107.738,3061.549,
1104.828,3063.1783,
1101.917,3089.9828,
1099.006,3085.7331,
1096.096,3110.0824,
1093.185,3076.7183,
1090.275,3115.3978,
1087.364,3095.6217,
1084.453,3098.4365,
1081.543,3094.0344,
1078.632,3079.0197,
1075.722,3097.134,
1072.811,3111.8004,
1069.901,3135.3785,
1066.990,3106.4084,
1064.079,3124.9845,
1061.169,3194.012,
1058.258,3226.5735,
1055.348,3225.1746,
1052.437,3260.8774,
1049.527,3237.9516,
1046.616,3336.9981,
1043.705,3311.899,
1040.795,3326.0267,
1037.884,3339.6193,
1034.974,3339.8698,
1032.063,3338.0251,
1029.153,3326.6709,
1026.242,3314.5615,
1023.331,3391.62,
1020.421,3375.0583,
1017.510,3409.869,
1014.600,3433.3224,
1011.689,3421.9622,
1008.778,3458.1997,
1005.868,3541.1521,
1002.957,3655.5792,
1000.047,3830.3731,
997.136,3916.142,
994.226,3951.1863,
991.315,3944.0285,
988.404,3874.8291,
985.494,3834.67,
982.583,3725.0308,
979.673,3727.4162,
976.762,3700.6602,
973.852,3668.7268,
970.941,3669.0911,
968.030,3685.2058,
965.120,3629.3291,
962.209,3677.924,
959.299,3693.2075,
956.388,3705.0844,
953.477,3703.9045,
950.567,3693.1707,
947.656,3698.2418,
944.746,3714.3834,
941.835,3735.3703,
938.925,3733.5445,
936.014,3747.3231,
933.103,3748.5888,
930.193,3718.3272,
927.282,3709.521,
924.372,3679.9248,
921.461,3625.3134,
918.551,3586.7923,
915.640,3566.1758,
912.729,3560.0035,
909.819,3559.7872,
906.908,3519.3508,
903.998,3508.376,
901.087,3537.3138,
898.176,3553.2162,
895.266,3559.06,
892.355,3590.5745,
889.445,3667.7871,
886.534,3721.5568,
883.624,3711.2672,
880.713,3738.381,
877.802,3777.5989,
874.892,3773.8296,
871.981,3728.1645,
869.071,3729.8353,
866.160,3719.7756,
863.250,3725.0849,
860.339,3740.5685,
857.428,3739.4986,
854.518,3686.6305,
851.607,3704.104,
848.697,3674.7976,
845.786,3656.4922,
842.875,3670.6024,
839.965,3701.8677,
837.054,3695.9668,
834.144,3681.8781,
831.233,3707.7896,
828.323,3701.8476,
825.412,3673.0759,
822.501,3652.8483,
819.591,3634.6675,
816.680,3573.2275,
813.770,3551.2335,
810.859,3525.4654,
807.949,3496.9201,
805.038,3491.3241,
802.127,3492.9704,
799.217,3473.7448,
796.306,3460.8817,
793.396,3459.2395,
790.485,3464.3356,
787.574,3466.6819,
784.664,3507.6875,
781.753,3512.4411,
778.843,3496.4225,
775.932,3477.1127,
773.022,3474.2113,
770.111,3513.455,
767.200,3503.1827,
764.290,3517.0392,
761.379,3512.401,
758.469,3483.6601,
755.558,3476.496,
752.648,3421.9176,
749.737,3430.0559,
746.826,3398.6313,
743.916,3308.4036,
741.005,3176.7577,
738.095,2987.5904,
735.184,2753.4673,
732.274,2736.4399,
729.363,2891.6058,
726.452,3116.1312,
723.542,3326.5734,
720.631,3349.5931,
717.721,3412.7009,
714.810,3478.8237,
711.899,3506.7883,
708.989,3475.3183,
706.078,3447.8807,
703.168,3427.1589,
700.257,3423.0759,
697.347,3418.8218,
694.436,3377.3176,
691.525,3347.5768,
688.615,3364.3947,
685.704,3371.6496,
682.794,3357.508,
679.883,3342.3689,
676.973,3414.4923,
674.062,3432.9535,
671.151,3421.0984,
668.241,3408.3665,
665.330,3423.4233,
662.420,3387.4803,
659.509,3371.236,
656.598,3379.1075,
653.688,3401.416,
650.777,3420.9612,
647.867,3475.1115,
644.956,3471.6462,
642.046,3434.7615,
639.135,3395.4962,
636.224,3393.3637,
633.314,3441,
630.403,3438.9359,
627.493,3453.7058,
624.582,3500.7176,
621.672,3534.7733,
618.761,3511.047,
615.850,3532.8783,
612.940,3577.6171,
610.029,3605.8141,
607.119,3537.9058,
604.208,3543.1952,
601.297,3558.5939,
598.387,3574.571,
595.476,3581.3656,
592.566,3509.7424,
589.655,3548.3083,
586.745,3563.9739,
583.834,3529.8995,
580.923,3465.1582,
578.013,3470.6513,
575.102,3477.8609,
572.192,3477.123,
569.281,3482.4662,
566.371,3562.2938,
563.460,3532.7352,
560.549,3556.1073,
557.639,3600.6163,
554.728,3609.4352,
551.818,3598.5108,
548.907,3645.4875,
545.996,3678.2914,
543.086,3676.9375,
540.175,3662.1432,
537.265,3674.162,
534.354,3689.6605,
531.444,3721.5817,
528.533,3775.5247,
525.622,3753.0222,
522.712,3769.9681,
519.801,3784.5069,
516.891,3794.8283,
513.980,3842.8347,
511.070,3915.4467,
508.159,3966.0931,
505.248,3998.387,
502.338,4023.6446,
499.427,4041.3968,
496.517,4116.2663,
493.606,4157.3383,
490.695,4138.2231,
487.785,4182.1012,
484.874,4212.3891,
481.964,4233.8458,
479.053,4228.6585,
476.143,4155.702,
473.232,4164.0743,
470.321,4146.7425,
467.411,4138.8271,
464.500,4183.4184,
461.590,4116.0332,
458.679,4154.3556,
455.769,4185.3718,
452.858,4153.9883,
449.947,4181.4898,
447.037,4155.5735,
444.126,4127.3614,
441.216,4126.2955,
438.305,4196.3932,
435.395,4188.4228,
432.484,4179.125,
429.573,4175.0425,
426.663,4157.5592,
423.752,4124.0437,
420.842,4106.4715,
417.931,4113.1139,
415.020,4151.7902,
412.110,4253.356,
409.199,4273.4991,
406.289,4279.2471,
403.378,4350.1532,
400.468,4358.4691,
397.557,4295.3139,
394.646,4221.8125,
391.736,4188.5898,
388.825,4109.3955,
385.915,4081.8675,
383.004,4105.5372,
380.094,4179.7682,
377.183,4290.3822,
374.272,4382.4592,
371.362,4456.7882,
368.451,4510.5779,
365.541,4501.5715,
362.630,4532.4457,
359.719,4543.8468,
356.809,4510.7886,
353.898,4604.3884,
350.988,4611.138,
348.077,4620.1002,
345.167,4679.0437,
342.256,4637.955,
339.345,4638.8794,
336.435,4654.5665,
333.524,4667.8866,
330.614,4723.7733,
327.703,4713.9145,
324.793,4706.686,
321.882,4760.1142,
318.971,4755.6535,
316.061,4782.9355,
313.150,4822.1321,
310.240,4851.0746,
307.329,4867.1324,
304.418,4880.4203,
301.508,4882.2327,
298.597,4856.3181,
295.687,4856.1567,
292.776,4902.5419,
289.866,5014.5447,
286.955,5244.2884,
284.044,5439.0448,
281.134,5628.289,
278.223,5803.5976,
275.313,5895.7045,
272.402,6040.6001,
269.492,6187.2079,
266.581,6311.278,
263.670,6355.3889,
260.760,6457.4525,
257.849,6570.4335,
254.939,6659.9672,
252.028,6747.9864,
249.117,6791.1752,
246.207,6788.5404,
243.296,6732.1735,
240.386,6737.8789,
237.475,6685.3444,
234.565,6590.3198,
231.654,6585.2071,
228.743,6503.5735,
225.833,6401.1346,
222.922,6299.6597,
220.012,6225.347,
217.101,6176.5892,
214.191,6136.0443,
211.280,6085.8494,
208.369,6072.7056,
205.459,6046.9647,
202.548,6020.2643,
199.638,6050.0159,
196.727,6026.1618,
193.816,6026.4007,
190.906,6079.0138,
187.995,6104.3547,
185.085,6136.2949,
182.174,6150.372,
179.264,6107.006,
176.353,6145.698,
173.442,6162.5113,
170.532,6139.3802,
167.621,6055.747,
164.711,5944.8296,
161.800,5792.8702,
158.890,5581.2703,
155.979,5232.8773,
153.068,4792.1786,
150.158,4277.5601,
147.247,3727.6086,
144.337,3093.2121,
141.426,2442.227,
138.516,1803.477,
135.605,1292.7779,
132.694,880.42226,
129.784,562.40462,
126.873,358.59262,
123.963,253.95822,
121.052,184.59502,
118.141,130.33847,
115.231,93.885912,
112.320,80.395908,
109.410,79.53425,
106.499,66.003301,
103.589,57.522455,
100.678,51.223648,
97.767,46.247085,
94.857,41.967066,
91.946,36.497002,
89.036,32.479775,
86.125,40.990238,
83.215,36.753956,
80.304,30.167269,
77.393,27.33459,
74.483,25.81473,
71.572,26.574408,
68.662,28.224523,
65.751,19.040658,
62.840,20.94202,
59.930,24.252138,
57.019,17.201318,
54.109,15.527839,
51.198,15.426609,
48.288,16.164637,
45.377,21.088284,
42.466,20.239465,
39.556,16.585474,
36.645,19.394235,
33.735,21.682745,
30.824,22.683226,
27.914,21.280876,
25.003,23.61555,
22.092,24.156286,
19.182,22.60554,
16.271,37.294833,
13.361,152.28262,
10.450,363.06121,
7.539,717.1071,
4.629,952.66334,
1.718,943.65375,
-1.192,475.86977,
-4.103,211.34038,
-7.013,56.0193,
-9.924,3.125,
