,PL8D1F~1,
Wavenumbers [1/cm],Intensity,
3014.167,4.125,
3011.256,-2.3748926,
3008.346,100.90797,
3005.435,121.77871,
3002.525,123.50252,
2999.614,140.64967,
2996.704,133.67346,
2993.793,142.8773,
2990.882,140.56012,
2987.972,145.16031,
2985.061,157.00185,
2982.151,167.52837,
2979.240,175.75808,
2976.329,168.10862,
2973.419,195.83283,
2970.508,194.44164,
2967.598,194.88604,
2964.687,190.60258,
2961.777,185.68905,
2958.866,208.79365,
2955.955,203.08961,
2953.045,225.22568,
2950.134,233.76349,
2947.224,226.97906,
2944.313,252.52956,
2941.403,249.86314,
2938.492,255.27405,
2935.581,255.30783,
2932.671,257.60569,
2929.760,267.00578,
2926.850,279.70695,
2923.939,273.125,
2921.028,265.41904,
2918.118,283.68419,
2915.207,278.30223,
2912.297,260.20539,
2909.386,277.15419,
2906.476,277.03232,
2903.565,274.60945,
2900.654,263.90154,
2897.744,276.72269,
2894.833,252.95991,
2891.923,273.0449,
2889.012,251.4198,
2886.102,236.89663,
2883.191,206.15143,
2880.280,114.80438,
2877.370,-52.502651,
2874.459,-140.61665,
2871.549,34.61301,
2868.638,220.72697,
2865.727,244.78269,
2862.817,248.49665,
2859.906,255.65775,
2856.996,288.60009,
2854.085,273.87917,
2851.175,292.55272,
2848.264,312.52732,
2845.353,304.71523,
2842.443,294.90968,
2839.532,314.33392,
2836.622,316.33854,
2833.711,322.5991,
2830.801,306.8375,
2827.890,306.14422,
2824.979,312.8909,
2822.069,312.21598,
2819.158,318.98484,
2816.248,320.11342,
2813.337,298.05304,
2810.427,326.98587,
2807.516,333.70781,
2804.605,329.46874,
2801.695,333.83556,
2798.784,338.64246,
2795.874,322.70549,
2792.963,318.62511,
2790.052,323.12457,
2787.142,318.57231,
2784.231,314.96351,
2781.321,311.00504,
2778.410,327.44479,
2775.500,321.40294,
2772.589,325.89411,
2769.678,325.51748,
2766.768,320.63179,
2763.857,335.967,
2760.947,336.63446,
2758.036,340.66642,
2755.126,333.64637,
2752.215,335.8704,
2749.304,334.7419,
2746.394,342.64316,
2743.483,341.52498,
2740.573,333.59176,
2737.662,346.01849,
2734.751,340.75134,
2731.841,346.61218,
2728.930,342.24785,
2726.020,350.57407,
2723.109,336.39334,
2720.199,350.0469,
2717.288,355.91333,
2714.377,358.90008,
2711.467,354.86237,
2708.556,374.2951,
2705.646,372.20949,
2702.735,349.47553,
2699.825,377.86323,
2696.914,355.3145,
2694.003,358.82255,
2691.093,373.10695,
2688.182,363.54278,
2685.272,372.24022,
2682.361,381.18395,
2679.450,369.46247,
2676.540,385.10468,
2673.629,382.79765,
2670.719,373.05938,
2667.808,391.95775,
2664.898,377.16391,
2661.987,378.99164,
2659.076,385.10775,
2656.166,376.07734,
2653.255,385.60629,
2650.345,395.53335,
2647.434,411.35335,
2644.524,400.03626,
2641.613,398.55366,
2638.702,391.26703,
2635.792,390.28153,
2632.881,410.06511,
2629.971,399.95034,
2627.060,413.62594,
2624.149,396.47814,
2621.239,397.14872,
2618.328,407.25216,
2615.418,407.13863,
2612.507,417.87988,
2609.597,420.85953,
2606.686,409.87802,
2603.775,407.52182,
2600.865,402.47655,
2597.954,407.50831,
2595.044,412.15157,
2592.133,411.01677,
2589.223,423.93238,
2586.312,425.49182,
2583.401,434.81844,
2580.491,440.30288,
2577.580,432.13325,
2574.670,432.42047,
2571.759,422.87757,
2568.848,416.0697,
2565.938,435.22023,
2563.027,435.75909,
2560.117,441.48015,
2557.206,435.18035,
2554.296,446.46825,
2551.385,435.86088,
2548.474,434.19935,
2545.564,436.25162,
2542.653,447.67198,
2539.743,451.68045,
2536.832,435.04275,
2533.922,468.98308,
2531.011,454.90044,
2528.100,428.86364,
2525.190,467.14057,
2522.279,457.70292,
2519.369,443.69137,
2516.458,451.13916,
2513.548,446.89801,
2510.637,445.72355,
2507.726,465.1287,
2504.816,453.56243,
2501.905,462.05244,
2498.995,479.10978,
2496.084,467.11109,
2493.173,467.28261,
2490.263,484.05724,
2487.352,492.66593,
2484.442,485.82734,
2481.531,485.64637,
2478.621,494.78383,
2475.710,472.26302,
2472.799,489.13846,
2469.889,488.54883,
2466.978,489.68171,
2464.068,477.6329,
2461.157,490.39254,
2458.247,486.11033,
2455.336,497.37941,
2452.425,513.60615,
2449.515,494.84226,
2446.604,508.88766,
2443.694,509.21792,
2440.783,507.93468,
2437.872,518.72389,
2434.962,509.96371,
2432.051,523.41528,
2429.141,517.88989,
2426.230,521.47309,
2423.320,528.92528,
2420.409,521.28518,
2417.498,528.125,
2414.588,540.3873,
2411.677,542.87399,
2408.767,536.37795,
2405.856,534.31073,
2402.946,534.5477,
2400.035,553.20717,
2397.124,557.55282,
2394.214,540.58341,
2391.303,532.19682,
2388.393,537.60408,
2385.482,499.93153,
2382.571,515.87279,
2379.661,503.47349,
2376.750,546.54365,
2373.840,556.47811,
2370.929,565.03836,
2368.019,569.3904,
2365.108,565.68259,
2362.197,566.94416,
2359.287,576.09993,
2356.376,576.13028,
2353.466,573.00522,
2350.555,557.6552,
2347.645,575.59783,
2344.734,588.42916,
2341.823,602.90942,
2338.913,582.67726,
2336.002,600.60824,
2333.092,595.24008,
2330.181,596.66974,
2327.270,606.68496,
2324.360,590.39386,
2321.449,595.3563,
2318.539,604.67852,
2315.628,614.79686,
2312.718,596.04349,
2309.807,596.90115,
2306.896,621.88087,
2303.986,625.43021,
2301.075,617.25269,
2298.165,635.06776,
2295.254,610.79283,
2292.344,642.07945,
2289.433,619.82773,
2286.522,632.71872,
2283.612,634.7449,
2280.701,645.3761,
2277.791,641.8044,
2274.880,634.125,
2271.969,636.05916,
2269.059,641.35934,
2266.148,654.06824,
2263.238,642.83158,
2260.327,658.53858,
2257.417,647.56277,
2254.506,669.39276,
2251.595,662.4013,
2248.685,670.125,
2245.774,653.00442,
2242.864,675.02277,
2239.953,663.44906,
2237.043,670.7218,
2234.132,659.67565,
2231.221,677.17935,
2228.311,665.85827,
2225.400,675.35016,
2222.490,689.25217,
2219.579,713.38977,
2216.669,707.12977,
2213.758,721.77992,
2210.847,706.74972,
2207.937,701.125,
2205.026,703.56843,
2202.116,731.91162,
2199.205,733.30006,
2196.294,744.48896,
2193.384,745.59899,
2190.473,773.87031,
2187.563,752.21684,
2184.652,775.19152,
2181.742,805.51228,
2178.831,834.55695,
2175.920,888.17784,
2173.010,921.92545,
2170.099,938.85665,
2167.189,1003.3331,
2164.278,1037.5541,
2161.368,1095.4075,
2158.457,1186.5426,
2155.546,1236.8212,
2152.636,1308.3536,
2149.725,1390.7156,
2146.815,1429.1907,
2143.904,1478.2291,
2140.993,1499.2995,
2138.083,1542.6903,
2135.172,1560.5704,
2132.262,1559.6144,
2129.351,1524.9179,
2126.441,1503.6395,
2123.530,1461.2944,
2120.619,1376.0154,
2117.709,1289.5775,
2114.798,1213.5091,
2111.888,1114.5011,
2108.977,1048.8005,
2106.067,1006.1656,
2103.156,920.93984,
2100.245,907.07921,
2097.335,830.8737,
2094.424,806.1676,
2091.514,799.19217,
2088.603,784.05591,
2085.692,786.35542,
2082.782,773.62713,
2079.871,748.6956,
2076.961,778.8002,
2074.050,755.42803,
2071.140,721.48137,
2068.229,728.19399,
2065.318,745.93899,
2062.408,717.82925,
2059.497,707.73215,
2056.587,721.47365,
2053.676,723.67515,
2050.766,732.35519,
2047.855,718.03956,
2044.944,715.65705,
2042.034,723.39095,
2039.123,724.20244,
2036.213,706.20059,
2033.302,722.19011,
2030.391,712.02374,
2027.481,725.44187,
2024.570,690.14042,
2021.660,727.2868,
2018.749,713.51715,
2015.839,696.10728,
2012.928,686.11326,
2010.017,691.25529,
2007.107,693.68577,
2004.196,713.68453,
2001.286,684.70456,
1998.375,673.86713,
1995.465,663.96607,
1992.554,653.98976,
1989.643,647.33238,
1986.733,644.10483,
1983.822,678.41968,
1980.912,667.06502,
1978.001,637.79475,
1975.090,618.15553,
1972.180,614.3311,
1969.269,619.16234,
1966.359,623.26023,
1963.448,607.40108,
1960.538,601.74802,
1957.627,616.39127,
1954.716,624.92391,
1951.806,622.38627,
1948.895,597.6694,
1945.985,641.01062,
1943.074,579.04018,
1940.164,574.32699,
1937.253,564.62968,
1934.342,548.15922,
1931.432,530.18809,
1928.521,547.24418,
1925.611,551.43034,
1922.700,526.33909,
1919.790,522.84752,
1916.879,543.59051,
1913.968,560.10656,
1911.058,564.89675,
1908.147,512.16594,
1905.237,550.18377,
1902.326,522.60795,
1899.415,502.97617,
1896.505,437.90814,
1893.594,451.84456,
1890.684,476.41906,
1887.773,481.082,
1884.863,518.30723,
1881.952,528.57012,
1879.041,526.15096,
1876.131,538.5263,
1873.220,521.07625,
1870.310,503.27301,
1867.399,498.18897,
1864.489,542.76198,
1861.578,509.7788,
1858.667,518.91241,
1855.757,531.3386,
1852.846,525.67369,
1849.936,535.68458,
1847.025,510.05928,
1844.114,528.24966,
1841.204,523.55856,
1838.293,541.62417,
1835.383,530.64851,
1832.472,527.64848,
1829.562,541.70703,
1826.651,521.82524,
1823.740,552.3473,
1820.830,547.29017,
1817.919,548.45439,
1815.009,564.68098,
1812.098,541.09352,
1809.188,541.87693,
1806.277,551.90368,
1803.366,550.34127,
1800.456,564.2791,
1797.545,582.18893,
1794.635,560.41596,
1791.724,549.05694,
1788.813,573.91189,
1785.903,528.6696,
1782.992,498.02957,
1780.082,418.87729,
1777.171,323.45101,
1774.261,320.58049,
1771.350,430.79828,
1768.439,545.61597,
1765.529,557.03332,
1762.618,576.76442,
1759.708,594.95101,
1756.797,581.74621,
1753.887,573.74016,
1750.976,561.10079,
1748.065,573.17262,
1745.155,590.87335,
1742.244,574.2609,
1739.334,596.99087,
1736.423,607.17921,
1733.512,608.76322,
1730.602,608.62897,
1727.691,625.78119,
1724.781,617.7532,
1721.870,647.12043,
1718.960,594.27982,
1716.049,586.99782,
1713.138,627.45481,
1710.228,651.53094,
1707.317,646.16386,
1704.407,613.6811,
1701.496,628.35596,
1698.586,639.36484,
1695.675,659.77488,
1692.764,677.21927,
1689.854,671.42815,
1686.943,678.85519,
1684.033,704.47926,
1681.122,719.87011,
1678.211,691.401,
1675.301,683.14967,
1672.390,742.17285,
1669.480,758.30148,
1666.569,779.94726,
1663.659,766.30466,
1660.748,778.45544,
1657.837,845.64387,
1654.927,824.21872,
1652.016,829.85023,
1649.106,898.90467,
1646.195,891.3478,
1643.285,941.85417,
1640.374,972.87413,
1637.463,963.03454,
1634.553,1067.79,
1631.642,1113.3302,
1628.732,1223.3739,
1625.821,1265.1957,
1622.911,1372.5164,
1620.000,1509.3864,
1617.089,1654.2195,
1614.179,1748.4741,
1611.268,1900.3624,
1608.358,2059.5865,
1605.447,2151.9828,
1602.536,2112.3944,
1599.626,2134.8831,
1596.715,2148.0162,
1593.805,2066.8465,
1590.894,2051.841,
1587.984,2055.4555,
1585.073,1981.2531,
1582.162,1965.6203,
1579.252,1916.8452,
1576.341,1894.9101,
1573.431,1938.3323,
1570.520,1920.5499,
1567.610,1885.0462,
1564.699,1837.6984,
1561.788,1801.2942,
1558.878,1757.3041,
1555.967,1702.8064,
1553.057,1678.0216,
1550.146,1614.2851,
1547.235,1553.6926,
1544.325,1544.3459,
1541.414,1508.0806,
1538.504,1437.1588,
1535.593,1405.5596,
1532.683,1403.5311,
1529.772,1379.1503,
1526.861,1335.6179,
1523.951,1327.5065,
1521.040,1333.747,
1518.130,1259.4444,
1515.219,1222.2439,
1512.309,1265.5845,
1509.398,1269.0282,
1506.487,1218.543,
1503.577,1158.7415,
1500.666,1167.4535,
1497.756,1163.5743,
1494.845,1177.2829,
1491.934,1085.2163,
1489.024,1113.1286,
1486.113,1050.1471,
1483.203,1006.9338,
1480.292,954.60836,
1477.382,966.3312,
1474.471,902.82827,
1471.560,868.33734,
1468.650,857.65881,
1465.739,852.56304,
1462.829,869.02952,
1459.918,850.18551,
1457.008,803.29395,
1454.097,793.67895,
1451.186,805.0457,
1448.276,810.98026,
1445.365,824.51758,
1442.455,807.45902,
1439.544,772.91974,
1436.633,783.66919,
1433.723,798.27075,
1430.812,748.72123,
1427.902,730.87695,
1424.991,720.45157,
1422.081,735.72211,
1419.170,727.62034,
1416.259,732.6055,
1413.349,728.08307,
1410.438,731.72324,
1407.528,692.28179,
1404.617,671.47351,
1401.707,648.74774,
1398.796,644.11796,
1395.885,667.67228,
1392.975,672.35409,
1390.064,655.88108,
1387.154,640.94858,
1384.243,682.32934,
1381.332,616.56766,
1378.422,625.34194,
1375.511,726.51429,
1372.601,808.30162,
1369.690,830.555,
1366.780,885.39932,
1363.869,920.91931,
1360.958,897.43462,
1358.048,967.15521,
1355.137,987.22438,
1352.227,993.30172,
1349.316,1077.1196,
1346.406,1129.8898,
1343.495,1149.7888,
1340.584,1226.9819,
1337.674,1246.3427,
1334.763,1299.7834,
1331.853,1343.3633,
1328.942,1373.5879,
1326.032,1431.7716,
1323.121,1454.4985,
1320.210,1523.3852,
1317.300,1580.3245,
1314.389,1654.1678,
1311.479,1749.1927,
1308.568,1805.3577,
1305.657,1840.9065,
1302.747,1927.8411,
1299.836,1983.6386,
1296.926,2083.4151,
1294.015,2154.203,
1291.105,2307.6976,
1288.194,2385.6345,
1285.283,2505.3775,
1282.373,2545.2266,
1279.462,2594.0848,
1276.552,2672.2905,
1273.641,2714.7454,
1270.731,2695.8951,
1267.820,2647.7625,
1264.909,2634.9935,
1261.999,2664.9891,
1259.088,2716.0679,
1256.178,2706.2782,
1253.267,2638.9134,
1250.356,2531.7593,
1247.446,2425.585,
1244.535,2303.3172,
1241.625,2196.0584,
1238.714,2112.648,
1235.804,2007.6154,
1232.893,1950.6273,
1229.982,1939.0518,
1227.072,1907.3658,
1224.161,1858.8973,
1221.251,1794.2868,
1218.340,1773.1816,
1215.430,1757.8111,
1212.519,1750.6526,
1209.608,1735.5712,
1206.698,1706.0401,
1203.787,1723.8285,
1200.877,1700.0842,
1197.966,1780.1093,
1195.055,1825.9342,
1192.145,1874.4489,
1189.234,1955.5994,
1186.324,2003.0351,
1183.413,2024.4905,
1180.503,2037.427,
1177.592,2022.5995,
1174.681,1995.4332,
1171.771,2024.3832,
1168.860,1992.232,
1165.950,1997.9942,
1163.039,2002.9186,
1160.129,1992.9178,
1157.218,1967.3378,
1154.307,1953.3194,
1151.397,1957.6935,
1148.486,1945.8743,
1145.576,1949.0842,
1142.665,1925.1106,
1139.754,1906.8524,
1136.844,1894.0211,
1133.933,1905.9607,
1131.023,1906.7389,
1128.112,1884.4123,
1125.202,1873.5791,
1122.291,1895.9889,
1119.380,1867.177,
1116.470,1872.4721,
1113.559,1867.7123,
1110.649,1858.9217,
1107.738,1837.443,
1104.828,1842.93,
1101.917,1862.6571,
1099.006,1842.5785,
1096.096,1854.7163,
1093.185,1864.3743,
1090.275,1877.2641,
1087.364,1886.9862,
1084.453,1940.7468,
1081.543,1977.0575,
1078.632,1983.467,
1075.722,2007.8175,
1072.811,2014.0701,
1069.901,1999.2247,
1066.990,1981.15,
1064.079,1950.585,
1061.169,1951.9325,
1058.258,1952.1144,
1055.348,1938.8888,
1052.437,1946.4048,
1049.527,1963.6285,
1046.616,1976.6609,
1043.705,1991.228,
1040.795,1991.294,
1037.884,1995.6996,
1034.974,2008.0838,
1032.063,2019.0788,
1029.153,2029.2915,
1026.242,2088.9735,
1023.331,2083.6255,
1020.421,2067.4859,
1017.510,2073.4511,
1014.600,2105.5403,
1011.689,2136.125,
1008.778,2132.1665,
1005.868,2109.7659,
1002.957,2181.1753,
1000.047,2288.949,
997.136,2358.6026,
994.226,2407.5554,
991.315,2454.6522,
988.404,2482.0185,
985.494,2440.6237,
982.583,2462.8941,
979.673,2471.9782,
976.762,2458.8603,
973.852,2464.0374,
970.941,2471.0842,
968.030,2449.8939,
965.120,2505.1966,
962.209,2522.2474,
959.299,2542.8312,
956.388,2545.0853,
953.477,2546.8794,
950.567,2547.5437,
947.656,2527.5733,
944.746,2538.6176,
941.835,2518.8797,
938.925,2531.2343,
936.014,2516.3512,
933.103,2484.6507,
930.193,2460.935,
927.282,2427.2084,
924.372,2410.2963,
921.461,2371.305,
918.551,2341.8589,
915.640,2323.7508,
912.729,2300.097,
909.819,2258.013,
906.908,2249.5887,
903.998,2245.1482,
901.087,2244.7615,
898.176,2256.1005,
895.266,2275.4252,
892.355,2295.9939,
889.445,2322.0111,
886.534,2342.9968,
883.624,2390.8591,
880.713,2408.0422,
877.802,2374.5967,
874.892,2264.7064,
871.981,2020.5209,
869.071,1910.2464,
866.160,2031.1868,
863.250,2203.6834,
860.339,2312.0744,
857.428,2331.3773,
854.518,2342.2845,
851.607,2244.1004,
848.697,2121.889,
845.786,2068.4164,
842.875,2108.9158,
839.965,2203.8243,
837.054,2248.4971,
834.144,2281.6472,
831.233,2262.1269,
828.323,2255.0599,
825.412,2253.7199,
822.501,2229.7844,
819.591,2183.506,
816.680,2150.0737,
813.770,2108.2939,
810.859,2073.2341,
807.949,2057.6055,
805.038,2060.74,
802.127,2032.7537,
799.217,2023.4165,
796.306,2032.4764,
793.396,2041.5143,
790.485,2038.124,
787.574,2024.8998,
784.664,2071.6462,
781.753,2084.1509,
778.843,2097.887,
775.932,2110.7423,
773.022,2110.3498,
770.111,2098.9037,
767.200,2105.7381,
764.290,2071.7187,
761.379,2059.3042,
758.469,2076.9397,
755.558,2060.8332,
752.648,2051.058,
749.737,2062.1808,
746.826,2034.1584,
743.916,1987.7028,
741.005,1962.0462,
738.095,1881.6704,
735.184,1859.2539,
732.274,1824.1488,
729.363,1838.1451,
726.452,1922.3409,
723.542,1940.1476,
720.631,2020.6371,
717.721,2049.1349,
714.810,2053.267,
711.899,2056.63,
708.989,2063.0854,
706.078,2059.1185,
703.168,2047.195,
700.257,2017.021,
697.347,1991.9503,
694.436,2020.0377,
691.525,2016.8225,
688.615,1999.7733,
685.704,2004.8026,
682.794,2023.6569,
679.883,2021.296,
676.973,2002.8645,
674.062,2033.5814,
671.151,2054.0017,
668.241,2041.7831,
665.330,1998.4065,
662.420,1983.2306,
659.509,2008.062,
656.598,2025.856,
653.688,2038.0168,
650.777,2069.2618,
647.867,2014.3152,
644.956,1973.0249,
642.046,1903.7148,
639.135,1848.5226,
636.224,1914.3399,
633.314,1957.2125,
630.403,1978.1756,
627.493,1998.5676,
624.582,2007.5884,
621.672,1951.3568,
618.761,1928.6066,
615.850,1963.4491,
612.940,2011.4695,
610.029,2033.338,
607.119,1998.5943,
604.208,2003.6452,
601.297,2001.6413,
598.387,1993.8319,
595.476,1989.5363,
592.566,2004.4906,
589.655,1975.3784,
586.745,1960.7288,
583.834,1959.2942,
580.923,1942.035,
578.013,1927.125,
575.102,1942.0534,
572.192,1966.129,
569.281,1982.719,
566.371,1974.8928,
563.460,1988.2344,
560.549,1979.9939,
557.639,1970.4963,
554.728,1984.2874,
551.818,1971.022,
548.907,2013.2216,
545.996,2036.2932,
543.086,2028.6349,
540.175,2035.6427,
537.265,2041.9192,
534.354,2065.6977,
531.444,2091.0262,
528.533,2098.697,
525.622,2064.5553,
522.712,2114.7666,
519.801,2165.4908,
516.891,2183.3689,
513.980,2164.7858,
511.070,2209.6119,
508.159,2251.5706,
505.248,2284.387,
502.338,2311.0001,
499.427,2375.0622,
496.517,2400.6098,
493.606,2428.997,
490.695,2472.125,
487.785,2472.125,
484.874,2488.2806,
481.964,2464.7333,
479.053,2427.5825,
476.143,2462.9088,
473.232,2415.4861,
470.321,2425.8062,
467.411,2450.7935,
464.500,2433.2692,
461.590,2478.4479,
458.679,2494.4268,
455.769,2512.2481,
452.858,2542.0231,
449.947,2512.2298,
447.037,2568.6213,
444.126,2617.2583,
441.216,2635.0937,
438.305,2657.9516,
435.395,2659.8137,
432.484,2667.0433,
429.573,2661.6173,
426.663,2590.9242,
423.752,2322.8954,
420.842,2053.8518,
417.931,1875.5891,
415.020,1898.3398,
412.110,2348.3355,
409.199,2599.6775,
406.289,2686.9273,
403.378,2676.8253,
400.468,2588.374,
397.557,2616.1673,
394.646,2703.8706,
391.736,2797.8353,
388.825,2788.7845,
385.915,2807.4127,
383.004,2833.8347,
380.094,2854.9677,
377.183,2891.0865,
374.272,2925.5501,
371.362,2951.7172,
368.451,2965.4441,
365.541,2970.6979,
362.630,2992.8821,
359.719,3005.9815,
356.809,2993.2252,
353.898,2945.3021,
350.988,2955.4519,
348.077,2989.9358,
345.167,3025.7087,
342.256,3017.491,
339.345,2986.4276,
336.435,2983.3324,
333.524,3040.8901,
330.614,3033.4386,
327.703,3056.2819,
324.793,3068.2666,
321.882,3034.2494,
318.971,3085.5469,
316.061,3122.6576,
313.150,3151.2083,
310.240,3177.1824,
307.329,3221.7179,
304.418,3221.3428,
301.508,3185.9465,
298.597,3132.6365,
295.687,3161.987,
292.776,3176.875,
289.866,3192.5623,
286.955,3275.2996,
284.044,3309.2625,
281.134,3331.7525,
278.223,3350.3884,
275.313,3365.8624,
272.402,3372.6104,
269.492,3296.2287,
266.581,3131.1699,
263.670,3201.7472,
260.760,3269.6619,
257.849,3341.354,
254.939,3422.0811,
252.028,3372.4559,
249.117,3364.5457,
246.207,3384.7544,
243.296,3410.3757,
240.386,3474.5062,
237.475,3490.605,
234.565,3462.6296,
231.654,3453.1346,
228.743,3438.4669,
225.833,3415.4047,
222.922,3383.3096,
220.012,3365.8243,
217.101,3341.9685,
214.191,3324.2178,
211.280,3327.8551,
208.369,3289.7746,
205.459,3274.7183,
202.548,3283.3841,
199.638,3302.2509,
196.727,3266.3661,
193.816,3239.2322,
190.906,3245.09,
187.995,3272.6029,
185.085,3283.0707,
182.174,3284.3209,
179.264,3285.0436,
176.353,3331.9019,
173.442,3356.6748,
170.532,3345.8923,
167.621,3275.2367,
164.711,3234.0512,
161.800,3166.6924,
158.890,3027.785,
155.979,2901.3004,
153.068,2749.2594,
150.158,2557.6325,
147.247,2272.6054,
144.337,1928.6324,
141.426,1549.7311,
138.516,1141.82,
135.605,813.59532,
132.694,553.82807,
129.784,361.08017,
126.873,253.09556,
123.963,167.38915,
121.052,106.37698,
118.141,74.251395,
115.231,58.492452,
112.320,47.888641,
109.410,39.53425,
106.499,26.003301,
103.589,28.727545,
100.678,30.952026,
97.767,25.264526,
94.857,21.660055,
91.946,21.334333,
89.036,22.56051,
86.125,19.014484,
83.215,19.186841,
80.304,19.646135,
77.393,18.229795,
74.483,18.125,
71.572,16.675592,
68.662,14.125,
65.751,14.125,
62.840,11.71649,
59.930,10.810576,
57.019,17.156314,
54.109,10.95907,
51.198,9.1410928,
48.288,16.0797,
45.377,10.452676,
42.466,5.2394646,
39.556,2.2761858,
36.645,9.2980879,
33.735,10.086503,
30.824,8.2414521,
27.914,5.4367511,
25.003,13.219287,
22.092,17.479191,
19.182,16.491126,
16.271,27.682968,
13.361,97.450986,
10.450,235.80185,
7.539,518.61958,
4.629,786.77952,
1.718,968.48355,
-1.192,966.39212,
-4.103,590.58526,
-7.013,241.10913,
-9.924,-3.875,
