,PLAA27~1,
Raman shift [1/cm],Intensity,
3014.167,3,
3011.256,-3.3501825,
3008.346,173.2201,
3005.435,180.92226,
3002.525,185.71756,
2999.614,184.91037,
2996.704,192.71752,
2993.793,202.11463,
2990.882,213.38929,
2987.972,223.03027,
2985.061,215.25614,
2982.151,242.91432,
2979.240,230.89923,
2976.329,247.02184,
2973.419,248.21515,
2970.508,261.08332,
2967.598,250.29036,
2964.687,274.08967,
2961.777,275.62397,
2958.866,277.98812,
2955.955,304.62388,
2953.045,303.6152,
2950.134,300.8834,
2947.224,326.40215,
2944.313,313.19088,
2941.403,331.55976,
2938.492,342.14905,
2935.581,354.8601,
2932.671,339.27896,
2929.760,345.22694,
2926.850,365.42519,
2923.939,363.23831,
2921.028,353.58808,
2918.118,365.44081,
2915.207,372.58861,
2912.297,384.94922,
2909.386,386.80292,
2906.476,379.93821,
2903.565,387.71112,
2900.654,370.72901,
2897.744,385.64798,
2894.833,364.59782,
2891.923,374,
2889.012,373.99422,
2886.102,374.27434,
2883.191,360.00189,
2880.280,353.13876,
2877.370,350.93607,
2874.459,364.59116,
2871.549,368.75013,
2868.638,386.54638,
2865.727,388.55765,
2862.817,382.41312,
2859.906,398.77208,
2856.996,399.98641,
2854.085,388.03569,
2851.175,380.62046,
2848.264,386.71567,
2845.353,393.46082,
2842.443,375.38886,
2839.532,381.11943,
2836.622,387.81446,
2833.711,370.5259,
2830.801,376.39559,
2827.890,382.12235,
2824.979,378.62993,
2822.069,391.96588,
2819.158,382.91913,
2816.248,369.26447,
2813.337,380.88659,
2810.427,382.86777,
2807.516,399.4675,
2804.605,382.65626,
2801.695,394.69737,
2798.784,392.29569,
2795.874,396.55935,
2792.963,391.28532,
2790.052,374.00172,
2787.142,387.88173,
2784.231,392.64598,
2781.321,396.55998,
2778.410,391.6599,
2775.500,383.27794,
2772.589,392.96101,
2769.678,385.46416,
2766.768,394.92817,
2763.857,381.00386,
2760.947,405.45272,
2758.036,400.54142,
2755.126,422.90812,
2752.215,415.59547,
2749.304,420.4892,
2746.394,408.72985,
2743.483,406.74999,
2740.573,412.54869,
2737.662,397.88314,
2734.751,407.39786,
2731.841,417.10806,
2728.930,425,
2726.020,416.10185,
2723.109,427.61825,
2720.199,415.66553,
2717.288,427.91241,
2714.377,421.77508,
2711.467,448.60659,
2708.556,450.12758,
2705.646,434.4084,
2702.735,424.51805,
2699.825,446.40184,
2696.914,459.90501,
2694.003,440.69755,
2691.093,458.1071,
2688.182,441.72592,
2685.272,445.12376,
2682.361,435,
2679.450,444.90943,
2676.540,448.79676,
2673.629,450.94612,
2670.719,453.1608,
2667.808,441,
2664.898,446.15564,
2661.987,468.76688,
2659.076,454.30605,
2656.166,448.06491,
2653.255,465.03232,
2650.345,467.80762,
2647.434,473.57131,
2644.524,467.45563,
2641.613,482.14331,
2638.702,472.28406,
2635.792,478.75074,
2632.881,476.46423,
2629.971,459.80525,
2627.060,497.66875,
2624.149,479.62188,
2621.239,478.75148,
2618.328,487.95761,
2615.418,488.65909,
2612.507,493.2411,
2609.597,494.90818,
2606.686,500.85742,
2603.775,500.64286,
2600.865,502.35492,
2597.954,511.85006,
2595.044,496.59877,
2592.133,512,
2589.223,520.02422,
2586.312,525.09551,
2583.401,517.7336,
2580.491,520.91828,
2577.580,538.94884,
2574.670,511.32085,
2571.759,528.80821,
2568.848,533.53037,
2565.938,532,
2563.027,527.60912,
2560.117,523.17758,
2557.206,544.8893,
2554.296,541,
2551.385,538.37197,
2548.474,542.03718,
2545.564,546.93669,
2542.653,513.78858,
2539.743,540.40758,
2536.832,552.53084,
2533.922,539.47308,
2531.011,571.19981,
2528.100,563.13933,
2525.190,548.62828,
2522.279,545,
2519.369,550.13176,
2516.458,562.55595,
2513.548,568.66356,
2510.637,567.89331,
2507.726,548.81412,
2504.816,543.43743,
2501.905,555.98537,
2498.995,550.13466,
2496.084,567.69338,
2493.173,571.97384,
2490.263,557.65195,
2487.352,579.83307,
2484.442,575.7152,
2481.531,572.89364,
2478.621,588.65883,
2475.710,601.01534,
2472.799,594.12117,
2469.889,576.21054,
2466.978,588.88657,
2464.068,590.95768,
2461.157,604.18762,
2458.247,581.44115,
2455.336,603.0607,
2452.425,598.16979,
2449.515,619.47194,
2446.604,621.1867,
2443.694,615.46549,
2440.783,605.99662,
2437.872,637.30717,
2434.962,622.67741,
2432.051,627.6357,
2429.141,629.82931,
2426.230,614.30382,
2423.320,640.21439,
2420.409,636.3782,
2417.498,631.01685,
2414.588,625.36503,
2411.677,623.28687,
2408.767,630.49409,
2405.856,643.5404,
2402.946,654.52368,
2400.035,644.80751,
2397.124,657.01069,
2394.214,659.16081,
2391.303,650.75135,
2388.393,671.16981,
2385.482,671.26437,
2382.571,660.63251,
2379.661,675.11626,
2376.750,675.26356,
2373.840,672.43126,
2370.929,681.8917,
2368.019,691.08373,
2365.108,700.44241,
2362.197,678.8739,
2359.287,685.56324,
2356.376,696.98767,
2353.466,693,
2350.555,696.55513,
2347.645,687.1987,
2344.734,712.46091,
2341.823,676.76283,
2338.913,724.49399,
2336.002,690.84218,
2333.092,691.64342,
2330.181,721.10737,
2327.270,699.59515,
2324.360,715.80659,
2321.449,720.35374,
2318.539,728.19268,
2315.628,725.14348,
2312.718,739.43173,
2309.807,755.77036,
2306.896,736.48043,
2303.986,724.21424,
2301.075,737.12759,
2298.165,726.65343,
2295.254,730.78457,
2292.344,758.68465,
2289.433,755.65636,
2286.522,751.97322,
2283.612,748.92984,
2280.701,743.67265,
2277.791,759.75955,
2274.880,762.13185,
2271.969,779.62139,
2269.059,771.73026,
2266.148,789.02504,
2263.238,772.20851,
2260.327,805.34461,
2257.417,784.89778,
2254.506,795.45016,
2251.595,801.42909,
2248.685,792.89811,
2245.774,804.41733,
2242.864,790.61098,
2239.953,790.46197,
2237.043,801.5968,
2234.132,815.32975,
2231.221,820.36685,
2228.311,835.74611,
2225.400,839.63411,
2222.490,830.52776,
2219.579,853.86379,
2216.669,862.531,
2213.758,864.47975,
2210.847,869.80604,
2207.937,853.6922,
2205.026,895,
2202.116,902.34181,
2199.205,931.66189,
2196.294,961.98395,
2193.384,960.36898,
2190.473,965.15376,
2187.563,999.96133,
2184.652,995.46408,
2181.742,1023.5692,
2178.831,1054.9923,
2175.920,1106.3042,
2173.010,1147.5011,
2170.099,1170.3314,
2167.189,1251.1722,
2164.278,1284.5377,
2161.368,1359.1405,
2158.457,1426.0632,
2155.546,1478.3472,
2152.636,1534.5371,
2149.725,1594.1073,
2146.815,1631.0323,
2143.904,1691.6171,
2140.993,1730.9048,
2138.083,1737.1306,
2135.172,1781.8153,
2132.262,1755.1813,
2129.351,1714.6723,
2126.441,1687.1456,
2123.530,1630.8439,
2120.619,1519.3674,
2117.709,1434.2134,
2114.798,1335.4766,
2111.888,1264.9136,
2108.977,1207.6689,
2106.067,1160.6984,
2103.156,1115.9268,
2100.245,1069.9799,
2097.335,1034.7487,
2094.424,1019.1379,
2091.514,1023.5482,
2088.603,991.64513,
2085.692,989.54281,
2082.782,963.20896,
2079.871,973.89381,
2076.961,976.12916,
2074.050,969.70909,
2071.140,956.43738,
2068.229,922.17056,
2065.318,933.32075,
2062.408,937.86383,
2059.497,951.20834,
2056.587,929.88411,
2053.676,932.24925,
2050.766,946.99925,
2047.855,893.17087,
2044.944,902.1923,
2042.034,928.68794,
2039.123,935.09764,
2036.213,913.7689,
2033.302,919.80429,
2030.391,946.82986,
2027.481,960,
2024.570,945.67181,
2021.660,936.4139,
2018.749,948.73407,
2015.839,943.74869,
2012.928,950.17282,
2010.017,938.54506,
2007.107,945.90654,
2004.196,968.59533,
2001.286,954.93293,
1998.375,928.60827,
1995.465,936.65268,
1992.554,914.45904,
1989.643,899.41476,
1986.733,930.1807,
1983.822,897.85894,
1980.912,898.36645,
1978.001,899.23747,
1975.090,894.18779,
1972.180,916.37763,
1969.269,938.96266,
1966.359,930.32417,
1963.448,910.85072,
1960.538,894.63886,
1957.627,898.24149,
1954.716,899.97127,
1951.806,917.24839,
1948.895,917.79156,
1945.985,899.21242,
1943.074,929.74553,
1940.164,909.55777,
1937.253,908.25234,
1934.342,898,
1931.432,910.70032,
1928.521,901.81692,
1925.611,884.07151,
1922.700,899.99447,
1919.790,902.41621,
1916.879,915.95376,
1913.968,899.02213,
1911.058,887.74474,
1908.147,869.33576,
1905.237,879.09568,
1902.326,917.80448,
1899.415,858.79877,
1896.505,845.13257,
1893.594,865.44518,
1890.684,880.90198,
1887.773,914.96459,
1884.863,906.92027,
1881.952,897.4624,
1879.041,906.53894,
1876.131,883.56864,
1873.220,874.51326,
1870.310,912.98648,
1867.399,901.2399,
1864.489,925.05282,
1861.578,879.24159,
1858.667,899.38624,
1855.757,891.79356,
1852.846,901.01025,
1849.936,905.79079,
1847.025,911.81994,
1844.114,940.47298,
1841.204,944.11539,
1838.293,919.01164,
1835.383,931.12748,
1832.472,914.38261,
1829.562,945.02059,
1826.651,979.78644,
1823.740,953.60914,
1820.830,940.68502,
1817.919,938.37125,
1815.009,935.4313,
1812.098,952.05511,
1809.188,969.00772,
1806.277,934.79675,
1803.366,967.451,
1800.456,938.0776,
1797.545,984.36204,
1794.635,924.03108,
1791.724,967.07755,
1788.813,1009.9961,
1785.903,1001.2829,
1782.992,1002.0745,
1780.082,984.6404,
1777.171,993.99303,
1774.261,970.55505,
1771.350,999.14076,
1768.439,1026.637,
1765.529,1018.0917,
1762.618,1021.5506,
1759.708,1024.087,
1756.797,1024.7727,
1753.887,1031.5904,
1750.976,1051.9725,
1748.065,1062.8433,
1745.155,1040.3679,
1742.244,1017.068,
1739.334,1023.64,
1736.423,1081.284,
1733.512,1063.7072,
1730.602,1066.9524,
1727.691,1079.1413,
1724.781,1088.8658,
1721.870,1077.319,
1718.960,1102.7781,
1716.049,1150.9487,
1713.138,1113.6852,
1710.228,1121.6653,
1707.317,1125.7691,
1704.407,1146.6631,
1701.496,1148.0885,
1698.586,1155.3919,
1695.675,1140.093,
1692.764,1191.0697,
1689.854,1182.5197,
1686.943,1211.9545,
1684.033,1176.9189,
1681.122,1200.5752,
1678.211,1249.5336,
1675.301,1296.8551,
1672.390,1280.1017,
1669.480,1314.5054,
1666.569,1377.292,
1663.659,1399.7387,
1660.748,1385.1762,
1657.837,1445.5905,
1654.927,1472.3514,
1652.016,1487.6075,
1649.106,1512.3672,
1646.195,1528.031,
1643.285,1570.8659,
1640.374,1609.8815,
1637.463,1698.3243,
1634.553,1716.7241,
1631.642,1765.4235,
1628.732,1804.8355,
1625.821,1945.0792,
1622.911,2065.3181,
1620.000,2202.2614,
1617.089,2318.6716,
1614.179,2458.9955,
1611.268,2598.7579,
1608.358,2712.6622,
1605.447,2810.4007,
1602.536,2783.384,
1599.626,2907.9507,
1596.715,2837.3159,
1593.805,2823.634,
1590.894,2778.9665,
1587.984,2746.1511,
1585.073,2743.7016,
1582.162,2789.9187,
1579.252,2715.5333,
1576.341,2709.817,
1573.431,2672.2749,
1570.520,2673.23,
1567.610,2633.7836,
1564.699,2640.0259,
1561.788,2572.6486,
1558.878,2426.2958,
1555.967,2365.7327,
1553.057,2364.5517,
1550.146,2343.8764,
1547.235,2291.6288,
1544.325,2262.7379,
1541.414,2217.7954,
1538.504,2156.8513,
1535.593,2139.843,
1532.683,2105.5733,
1529.772,2058.8625,
1526.861,2041.8952,
1523.951,1984.8096,
1521.040,1949.0731,
1518.130,1963.3554,
1515.219,1919.8008,
1512.309,1892.982,
1509.398,1887.6143,
1506.487,1848.5353,
1503.577,1861.1756,
1500.666,1867.3285,
1497.756,1860.8558,
1494.845,1846.2396,
1491.934,1827.7102,
1489.024,1739.1609,
1486.113,1762.8893,
1483.203,1756.1183,
1480.292,1716.817,
1477.382,1684.9443,
1474.471,1709.6952,
1471.560,1686.345,
1468.650,1647.3523,
1465.739,1637.562,
1462.829,1621.0955,
1459.918,1602.9226,
1457.008,1610.1848,
1454.097,1623.8486,
1451.186,1617.6828,
1448.276,1605.2621,
1445.365,1628.7543,
1442.455,1674.987,
1439.544,1635.8927,
1436.633,1571.0308,
1433.723,1638.0121,
1430.812,1606.4536,
1427.902,1562.1353,
1424.991,1567.8219,
1422.081,1529.466,
1419.170,1532.0484,
1416.259,1506.2679,
1413.349,1533.2306,
1410.438,1537.702,
1407.528,1547.8748,
1404.617,1522.1208,
1401.707,1497.9401,
1398.796,1524.3776,
1395.885,1557.4803,
1392.975,1563.1251,
1390.064,1568.1772,
1387.154,1561.6536,
1384.243,1520.9981,
1381.332,1479.0866,
1378.422,1532.6373,
1375.511,1622.5683,
1372.601,1693.1178,
1369.690,1735.8606,
1366.780,1762.5929,
1363.869,1835.5624,
1360.958,1855.0581,
1358.048,1890.5653,
1355.137,1936.4503,
1352.227,1975.9609,
1349.316,2026.8851,
1346.406,2068.8738,
1343.495,2080.9791,
1340.584,2105.2496,
1337.674,2137.1088,
1334.763,2165.223,
1331.853,2223.6385,
1328.942,2198.4266,
1326.032,2261.0653,
1323.121,2301.9338,
1320.210,2318.991,
1317.300,2306.4735,
1314.389,2371.057,
1311.479,2443.4369,
1308.568,2458.7268,
1305.657,2505.2289,
1302.747,2571.9621,
1299.836,2629.6486,
1296.926,2627.0076,
1294.015,2777.7766,
1291.105,2845.6379,
1288.194,2961.8303,
1285.283,2996.16,
1282.373,3075.57,
1279.462,3137.0193,
1276.552,3187.2364,
1273.641,3248.7395,
1270.731,3275.1194,
1267.820,3264.5316,
1264.909,3276.6702,
1261.999,3266.0679,
1259.088,3240.5286,
1256.178,3186.7562,
1253.267,3118.9259,
1250.356,3046.8197,
1247.446,2940.0317,
1244.535,2816.1029,
1241.625,2724.5853,
1238.714,2661.9774,
1235.804,2581.8691,
1232.893,2510.6348,
1229.982,2463.7615,
1227.072,2397.6738,
1224.161,2361.9014,
1221.251,2298.6728,
1218.340,2278.3522,
1215.430,2266.4388,
1212.519,2208.102,
1209.608,2168.845,
1206.698,2215.213,
1203.787,2237.0553,
1200.877,2196.786,
1197.966,2241.744,
1195.055,2279.8364,
1192.145,2316.0537,
1189.234,2399.9623,
1186.324,2474.9124,
1183.413,2492.9594,
1180.503,2490.4667,
1177.592,2494.4137,
1174.681,2432.6199,
1171.771,2429.2582,
1168.860,2397.107,
1165.950,2371.4239,
1163.039,2333.1751,
1160.129,2323.7188,
1157.218,2297.1944,
1154.307,2261.6608,
1151.397,2251.3078,
1148.486,2234.853,
1145.576,2215.9207,
1142.665,2191.0591,
1139.754,2184.9319,
1136.844,2151.0858,
1133.933,2123.5104,
1131.023,2100.3092,
1128.112,2081.4291,
1125.202,2080.0724,
1122.291,2096.6267,
1119.380,2100.8614,
1116.470,2086.741,
1113.559,2119.023,
1110.649,2114.5934,
1107.738,2124.682,
1104.828,2132.5102,
1101.917,2126.7339,
1099.006,2131.6909,
1096.096,2104.9027,
1093.185,2152.3148,
1090.275,2128.4848,
1087.364,2144.6421,
1084.453,2139.8135,
1081.543,2114.4152,
1078.632,2095.1196,
1075.722,2089.8716,
1072.811,2086.4893,
1069.901,2107.4475,
1066.990,2100.1084,
1064.079,2123.8595,
1061.169,2145.9414,
1058.258,2158.6583,
1055.348,2178.2281,
1052.437,2220.0033,
1049.527,2271.6713,
1046.616,2289.0479,
1043.705,2263.2525,
1040.795,2302.8878,
1037.884,2318.8738,
1034.974,2307.2552,
1032.063,2313.6305,
1029.153,2336.8575,
1026.242,2327.343,
1023.331,2336.9994,
1020.421,2367.5812,
1017.510,2372.1561,
1014.600,2382.9172,
1011.689,2409.4208,
1008.778,2428.8492,
1005.868,2493.0734,
1002.957,2612.6626,
1000.047,2703.072,
997.136,2747.0324,
994.226,2769.2614,
991.315,2775.302,
988.404,2751.8935,
985.494,2709.9041,
982.583,2705.6213,
979.673,2699.8785,
976.762,2705.0452,
973.852,2711.768,
970.941,2717.2602,
968.030,2726.3526,
965.120,2733.9821,
962.209,2729.7194,
959.299,2733.2495,
956.388,2740.0397,
953.477,2739.8897,
950.567,2730.0786,
947.656,2717.7745,
944.746,2708.4294,
941.835,2747.6809,
938.925,2736.6004,
936.014,2728.0233,
933.103,2722.2319,
930.193,2703.8051,
927.282,2685.3502,
924.372,2654.9083,
921.461,2581.7784,
918.551,2553.5144,
915.640,2538.6766,
912.729,2513.4126,
909.819,2492.7801,
906.908,2513.8407,
903.998,2518.1815,
901.087,2504.3604,
898.176,2514.6106,
895.266,2561.6615,
892.355,2622.6124,
889.445,2641.9155,
886.534,2647.0092,
883.624,2654.7283,
880.713,2705.4631,
877.802,2736.0622,
874.892,2708.9192,
871.981,2713,
869.071,2713,
866.160,2713.69,
863.250,2693.0319,
860.339,2674.358,
857.428,2666.0085,
854.518,2627.9759,
851.607,2627.1439,
848.697,2619.434,
845.786,2573.9637,
842.875,2547.9333,
839.965,2566.4319,
837.054,2540.9721,
834.144,2538.4858,
831.233,2540.6665,
828.323,2545.462,
825.412,2532.5799,
822.501,2497.4042,
819.591,2494.0986,
816.680,2422.6858,
813.770,2432.5661,
810.859,2415.1569,
807.949,2378.6854,
805.038,2388.4115,
802.127,2367.0102,
799.217,2350.0922,
796.306,2346.1351,
793.396,2347,
790.485,2344.2625,
787.574,2333.9689,
784.664,2333.1488,
781.753,2368.5622,
778.843,2360.5157,
775.932,2327.8273,
773.022,2326.0458,
770.111,2403.7157,
767.200,2362.5599,
764.290,2374.0045,
761.379,2380.3962,
758.469,2355.7683,
755.558,2335.9514,
752.648,2334.3222,
749.737,2319.6386,
746.826,2275.6348,
743.916,2216.9673,
741.005,2163.6461,
738.095,2080.8347,
735.184,1986.623,
732.274,1954.5777,
729.363,2016.5215,
726.452,2148.4251,
723.542,2217.2235,
720.631,2223.2936,
717.721,2259.5164,
714.810,2293.6136,
711.899,2299.4158,
708.989,2271.1734,
706.078,2275.8078,
703.168,2255.7473,
700.257,2252.3143,
697.347,2262.0005,
694.436,2243.6945,
691.525,2232.4412,
688.615,2204.2146,
685.704,2195.0437,
682.794,2200.8936,
679.883,2194.3965,
676.973,2203.2116,
674.062,2219.0378,
671.151,2230.5066,
668.241,2236.1912,
665.330,2238.979,
662.420,2217.4132,
659.509,2242.2068,
656.598,2247.7485,
653.688,2232.3099,
650.777,2229.3789,
647.867,2211.0634,
644.956,2223.7171,
642.046,2244.7796,
639.135,2259.3712,
636.224,2257.0875,
633.314,2274.5542,
630.403,2272.4967,
627.493,2270.3044,
624.582,2274.5297,
621.672,2276.9057,
618.761,2318.7967,
615.850,2336.4079,
612.940,2348.8799,
610.029,2367.4467,
607.119,2376.1327,
604.208,2358.5397,
601.297,2361.4689,
598.387,2356.2352,
595.476,2320.4168,
592.566,2356.622,
589.655,2368.1831,
586.745,2340.1882,
583.834,2288.5816,
580.923,2247.8957,
578.013,2230.6316,
575.102,2255.8266,
572.192,2268.7106,
569.281,2260.1548,
566.371,2305.547,
563.460,2309.2945,
560.549,2298.2799,
557.639,2307.4108,
554.728,2362.6551,
551.818,2357.1929,
548.907,2338.327,
545.996,2342.1628,
543.086,2374.5559,
540.175,2414.2668,
537.265,2411.93,
534.354,2435.5862,
531.444,2461.836,
528.533,2465.9314,
525.622,2493.0895,
522.712,2493.5392,
519.801,2510.2396,
516.891,2547.2256,
513.980,2568.1316,
511.070,2631.9826,
508.159,2694.295,
505.248,2734.5007,
502.338,2737.5588,
499.427,2790.8153,
496.517,2842.899,
493.606,2869.6446,
490.695,2871.5261,
487.785,2918.4833,
484.874,2888.519,
481.964,2860.1097,
479.053,2842.9327,
476.143,2817.5899,
473.232,2846.215,
470.321,2852.6477,
467.411,2837.1229,
464.500,2808.8727,
461.590,2843.331,
458.679,2885.4674,
455.769,2909.1644,
452.858,2899.3414,
449.947,2864.2006,
447.037,2896.4394,
444.126,2906.8424,
441.216,2889.4665,
438.305,2938.2301,
435.395,2978.4375,
432.484,2982.2472,
429.573,2963,
426.663,2963,
423.752,2992.989,
420.842,3010.1102,
417.931,3015.6464,
415.020,3017.9215,
412.110,3040.68,
409.199,3077.8508,
406.289,3111.9357,
403.378,3123.9974,
400.468,3123.2414,
397.557,3121.9717,
394.646,3122.6161,
391.736,3125.7686,
388.825,3087.3028,
385.915,3082.3863,
383.004,3099.1362,
380.094,3129.764,
377.183,3183.9423,
374.272,3269.5615,
371.362,3342.2447,
368.451,3375.9148,
365.541,3407.4373,
362.630,3396.8816,
359.719,3401.1258,
356.809,3448.0938,
353.898,3433.1179,
350.988,3431.7124,
348.077,3418.6083,
345.167,3382.8164,
342.256,3418.6757,
339.345,3405.0855,
336.435,3387.3311,
333.524,3396.3523,
330.614,3407.5297,
327.703,3400.7319,
324.793,3403.6318,
321.882,3440.0234,
318.971,3449.6882,
316.061,3506.7146,
313.150,3562.5381,
310.240,3561.0539,
307.329,3578.8659,
304.418,3609.2536,
301.508,3638.1815,
298.597,3642.624,
295.687,3657.8993,
292.776,3702.9169,
289.866,3790.8747,
286.955,3956.3492,
284.044,4090.0549,
281.134,4222.5033,
278.223,4354.5204,
275.313,4460.6276,
272.402,4561.4219,
269.492,4654.1212,
266.581,4738.8841,
263.670,4835.1927,
260.760,4896.4325,
257.849,4936.4952,
254.939,4963.6489,
252.028,5008.8784,
249.117,4973.008,
246.207,4927.994,
243.296,4997.5375,
240.386,4957.9846,
237.475,4920.3218,
234.565,4877.6834,
231.654,4735.989,
228.743,4707.1507,
225.833,4656.4725,
222.922,4537.8109,
220.012,4512.3115,
217.101,4444.6234,
214.191,4382.5629,
211.280,4381.108,
208.369,4313.0459,
205.459,4275.209,
202.548,4275.6463,
199.638,4319.9109,
196.727,4270.8022,
193.816,4240.944,
190.906,4269.781,
187.995,4235.0279,
185.085,4231.9843,
182.174,4266.8772,
179.264,4358.6685,
176.353,4352.3397,
173.442,4364.0284,
170.532,4393.3554,
167.621,4327.7466,
164.711,4253.2387,
161.800,4158.9912,
158.890,4033.0389,
155.979,3833.2265,
153.068,3524.0343,
150.158,3135.1169,
147.247,2759.6279,
144.337,2300.7088,
141.426,1825.1673,
138.516,1361.3386,
135.605,966.63167,
132.694,663.17428,
129.784,438.89614,
126.873,284.42809,
123.963,198.36927,
121.052,141.1358,
118.141,101.15729,
115.231,77.551178,
112.320,57.832738,
109.410,43.590934,
106.499,41.454469,
103.589,39.319237,
100.678,35.555405,
97.767,29.156966,
94.857,29,
91.946,26.581335,
89.036,22.548408,
86.125,19.711587,
83.215,16.345398,
80.304,14,
77.393,14,
74.483,24.482159,
71.572,25.651775,
68.662,17.376593,
65.751,11.018533,
62.840,9.963404,
59.930,10.812714,
57.019,10.107632,
54.109,9.4028392,
51.198,8.3967814,
48.288,7,
45.377,7,
42.466,8.236658,
39.556,10.230237,
36.645,11.634618,
33.735,8.8845092,
30.824,6,
27.914,6,
25.003,14.716925,
22.092,18.062573,
19.182,14.068649,
16.271,16.167119,
13.361,78.532865,
10.450,193.76858,
7.539,372.53731,
4.629,353.94305,
1.718,188.22964,
-1.192,-153.37118,
-4.103,-179.98525,
-7.013,-117.62022,
-9.924,4.2194735E-17,
