,PLB1A0~1,
Wavenumbers [1/cm],Intensity,
3014.167,5.375,
3011.256,-1.7250215,
3008.346,197.16221,
3005.435,237.9121,
3002.525,251.98015,
2999.614,252.70229,
2996.704,257.92346,
2993.793,244.6227,
2990.882,255.978,
2987.972,258.41031,
2985.061,256.95134,
2982.151,268.39183,
2979.240,271.17347,
2976.329,282.38046,
2973.419,286.48257,
2970.508,290.14167,
2967.598,291.28303,
2964.687,298.86821,
2961.777,290.99897,
2958.866,296.36906,
2955.955,311.20464,
2953.045,315.55845,
2950.134,315.76858,
2947.224,311.34653,
2944.313,323.85791,
2941.403,329.94617,
2938.492,331.39669,
2935.581,319.54192,
2932.671,319.81708,
2929.760,338.39424,
2926.850,332.10658,
2923.939,330.13669,
2921.028,329.76917,
2918.118,339.03369,
2915.207,327.78639,
2912.297,327.375,
2909.386,326.16332,
2906.476,327.01825,
2903.565,302.77721,
2900.654,295.51761,
2897.744,279.11098,
2894.833,244.35464,
2891.923,227.6186,
2889.012,182.71604,
2886.102,130.1926,
2883.191,-37.483397,
2880.280,-432.68257,
2877.370,-1247.949,
2874.459,-1481.5916,
2871.549,-735.40924,
2868.638,-70.773737,
2865.727,71.886447,
2862.817,128.31883,
2859.906,200.61715,
2856.996,245.35689,
2854.085,256.41703,
2851.175,289.80272,
2848.264,284.73283,
2845.353,311.61224,
2842.443,326.36804,
2839.532,326.16608,
2836.622,339.46484,
2833.711,345.41897,
2830.801,341.88603,
2827.890,338.39422,
2824.979,336.79496,
2822.069,338.50009,
2819.158,356.59603,
2816.248,369.12211,
2813.337,359.41645,
2810.427,367.72762,
2807.516,362.74187,
2804.605,379.99757,
2801.695,350.76974,
2798.784,366.34008,
2795.874,353.52012,
2792.963,343.66053,
2790.052,362.37007,
2787.142,349.79608,
2784.231,349.53649,
2781.321,358.24928,
2778.410,350.15039,
2775.500,338.31155,
2772.589,369.98968,
2769.678,355.19755,
2766.768,381.21776,
2763.857,354.90294,
2760.947,372.40022,
2758.036,379.76356,
2755.126,357.375,
2752.215,359.5023,
2749.304,366.60881,
2746.394,377.89316,
2743.483,373.475,
2740.573,377.03652,
2737.662,371.71523,
2734.751,376.93324,
2731.841,380.05083,
2728.930,365.84528,
2726.020,375.48727,
2723.109,368.39575,
2720.199,347.96244,
2717.288,352.48084,
2714.377,373.62878,
2711.467,388.85082,
2708.556,381.32153,
2705.646,369.40311,
2702.735,395.68426,
2699.825,385.09141,
2696.914,404.04183,
2694.003,385.788,
2691.093,385.55311,
2688.182,392.46759,
2685.272,378.77329,
2682.361,381.01037,
2679.450,374.54374,
2676.540,374.55792,
2673.629,388.02071,
2670.719,388.38239,
2667.808,388.13182,
2664.898,400.67364,
2661.987,394.1748,
2659.076,396.84913,
2656.166,405.97237,
2653.255,413.85629,
2650.345,401.0465,
2647.434,417.97517,
2644.524,426.69156,
2641.613,434.48939,
2638.702,438.34344,
2635.792,406.65616,
2632.881,404.48814,
2629.971,416.33482,
2627.060,413.20594,
2624.149,429.61875,
2621.239,415.10277,
2618.328,427.84126,
2615.418,438.70682,
2612.507,438.75445,
2609.597,431.10953,
2606.686,424.97142,
2603.775,445.33134,
2600.865,431.08148,
2597.954,441.71659,
2595.044,459.45471,
2592.133,445.04383,
2589.223,440.24236,
2586.312,442.20415,
2583.401,441.82391,
2580.491,436.56732,
2577.580,437.38985,
2574.670,443.60763,
2571.759,430.86987,
2568.848,435.4303,
2565.938,430.70824,
2563.027,441.54547,
2560.117,437.73948,
2557.206,445.51153,
2554.296,438.748,
2551.385,449.31704,
2548.474,456.48615,
2545.564,466.0901,
2542.653,477.21728,
2539.743,460.53519,
2536.832,470.02922,
2533.922,482.17,
2531.011,470.74988,
2528.100,469.57708,
2525.190,476.44303,
2522.279,456.60949,
2519.369,461.97874,
2516.458,441.69299,
2513.548,444.60199,
2510.637,476.43648,
2507.726,483.3081,
2504.816,492.43701,
2501.905,473.95488,
2498.995,489.375,
2496.084,485.69554,
2493.173,485.66474,
2490.263,513.11628,
2487.352,484.29153,
2484.442,490.06448,
2481.531,506.21546,
2478.621,497.2328,
2475.710,502.33666,
2472.799,497.375,
2469.889,501.25312,
2466.978,508.26157,
2464.068,507.45965,
2461.157,507.02753,
2458.247,504.36033,
2455.336,514.96992,
2452.425,530.85615,
2449.515,537.12968,
2446.604,534.66994,
2443.694,524.65376,
2440.783,532.94933,
2437.872,538.63025,
2434.962,536.18146,
2432.051,530.85686,
2429.141,548.81622,
2426.230,534.28768,
2423.320,547.47486,
2420.409,553.7532,
2417.498,553.77668,
2414.588,560.73238,
2411.677,558.01642,
2408.767,552.92815,
2405.856,564.49882,
2402.946,568.53586,
2400.035,580.36562,
2397.124,557.47661,
2394.214,552.3214,
2391.303,541.90549,
2388.393,496.52841,
2385.482,431.84246,
2382.571,350.00751,
2379.661,394.63025,
2376.750,519.14795,
2373.840,576.8656,
2370.929,577.38583,
2368.019,597.18227,
2365.108,599.5373,
2362.197,602.58321,
2359.287,607.76163,
2356.376,651.30103,
2353.466,623.39043,
2350.555,618.58497,
2347.645,631.58425,
2344.734,617.73439,
2341.823,646.778,
2338.913,656.46751,
2336.002,645.04958,
2333.092,650.74292,
2330.181,635.81237,
2327.270,639.93496,
2324.360,655.7783,
2321.449,652.55866,
2318.539,648.54627,
2315.628,639.63639,
2312.718,662.40585,
2309.807,653.71657,
2306.896,657.36717,
2303.986,669.60241,
2301.075,662.22616,
2298.165,673.30822,
2295.254,649.06438,
2292.344,668.47871,
2289.433,677.73409,
2286.522,689.50889,
2283.612,695.7551,
2280.701,672.14186,
2277.791,699.61545,
2274.880,703.23504,
2271.969,693.82767,
2269.059,699.75376,
2266.148,737.74562,
2263.238,711.59124,
2260.327,710.9268,
2257.417,717.66333,
2254.506,721.03884,
2251.595,729.375,
2248.685,738.94997,
2245.774,735.16633,
2242.864,742.08821,
2239.953,744.40963,
2237.043,724.7782,
2234.132,736.375,
2231.221,741.34918,
2228.311,750.33375,
2225.400,761.60016,
2222.490,773.83112,
2219.579,792.69119,
2216.669,793.36546,
2213.758,801.89788,
2210.847,789.25411,
2207.937,771.94505,
2205.026,815.04235,
2202.116,802.66798,
2199.205,826.56206,
2196.294,851.67295,
2193.384,837.37596,
2190.473,861.55224,
2187.563,864.4185,
2184.652,878.04397,
2181.742,909.98933,
2178.831,937.4451,
2175.920,966.44969,
2173.010,1007.0025,
2170.099,1065.3031,
2167.189,1119.7194,
2164.278,1177.0594,
2161.368,1249.0874,
2158.457,1315.4871,
2155.546,1379.2827,
2152.636,1444.9706,
2149.725,1518.4689,
2146.815,1557.4073,
2143.904,1641.1854,
2140.993,1673.1262,
2138.083,1695.375,
2135.172,1703.8036,
2132.262,1707.368,
2129.351,1723.2544,
2126.441,1658.6952,
2123.530,1593.5556,
2120.619,1512.568,
2117.709,1444.9817,
2114.798,1371.1399,
2111.888,1260.6896,
2108.977,1174.9578,
2106.067,1117.4896,
2103.156,1063.2631,
2100.245,1018.3361,
2097.335,956.375,
2094.424,949.19452,
2091.514,923.15723,
2088.603,912.62848,
2085.692,915.65004,
2082.782,904.41125,
2079.871,869.44502,
2076.961,866.18127,
2074.050,844.31439,
2071.140,875.45601,
2068.229,835.02084,
2065.318,843.27802,
2062.408,851.24567,
2059.497,830.58334,
2056.587,829.82855,
2053.676,837.35778,
2050.766,815.3765,
2047.855,809.57435,
2044.944,816.24199,
2042.034,811.34604,
2039.123,801.43561,
2036.213,812.23947,
2033.302,806.41866,
2030.391,809.25601,
2027.481,811.91163,
2024.570,801.94665,
2021.660,822.01503,
2018.749,789.53921,
2015.839,773.21752,
2012.928,796.09983,
2010.017,766.42712,
2007.107,782.47224,
2004.196,802.6964,
2001.286,783.89446,
1998.375,761.06594,
1995.465,754.375,
1992.554,749.11622,
1989.643,728.10084,
1986.733,728.39167,
1983.822,741.29671,
1980.912,704.90921,
1978.001,686.06146,
1975.090,701.31395,
1972.180,720.54788,
1969.269,696.12781,
1966.359,689.15888,
1963.448,666.34593,
1960.538,650.69443,
1957.627,662.74962,
1954.716,660.48991,
1951.806,629.57371,
1948.895,631.5896,
1945.985,617.12827,
1943.074,610.33807,
1940.164,612.17301,
1937.253,624.8833,
1934.342,634.24666,
1931.432,626.30245,
1928.521,605.39918,
1925.611,594.97886,
1922.700,572.63191,
1919.790,568.95879,
1916.879,573.096,
1913.968,558.39344,
1911.058,574.5732,
1908.147,574.45235,
1905.237,547.23524,
1902.326,490.37801,
1899.415,409.26888,
1896.505,376.85086,
1893.594,405.89952,
1890.684,477.32251,
1887.773,515.77129,
1884.863,548.24971,
1881.952,553.30759,
1879.041,535.00168,
1876.131,574.35145,
1873.220,537.30401,
1870.310,513.66651,
1867.399,554.68728,
1864.489,538.9981,
1861.578,553.7212,
1858.667,548.54864,
1855.757,553.98001,
1852.846,546.11347,
1849.936,548.14176,
1847.025,569.0806,
1844.114,559.51143,
1841.204,556.45542,
1838.293,578.36502,
1835.383,583.8285,
1832.472,581.59587,
1829.562,584.84662,
1826.651,562.75901,
1823.740,619.80425,
1820.830,609.87862,
1817.919,592.04561,
1815.009,588.66253,
1812.098,592.86319,
1809.188,613.07263,
1806.277,603.61845,
1803.366,581.40645,
1800.456,640.67133,
1797.545,611.83597,
1794.635,619.21304,
1791.724,628.30718,
1788.813,571.7678,
1785.903,529.91196,
1782.992,413.52834,
1780.082,155.79905,
1777.171,-132.6384,
1774.261,-112.90859,
1771.350,185.67108,
1768.439,527.44877,
1765.529,635.65004,
1762.618,654.24001,
1759.708,658.375,
1756.797,670.20833,
1753.887,677.5543,
1750.976,668.29909,
1748.065,701.47023,
1745.155,710.68478,
1742.244,717.60414,
1739.334,713.0503,
1736.423,692.53764,
1733.512,700.92789,
1730.602,716.84724,
1727.691,719.60734,
1724.781,732.7468,
1721.870,743.6179,
1718.960,764.28634,
1716.049,751.59551,
1713.138,735.55006,
1710.228,772.53836,
1707.317,781.02871,
1704.407,789.46057,
1701.496,800.40203,
1698.586,788.43922,
1695.675,803.28205,
1692.764,866.85864,
1689.854,822.54033,
1686.943,836.80166,
1684.033,848.1018,
1681.122,879.83124,
1678.211,906.12755,
1675.301,966.19,
1672.390,971.45276,
1669.480,997.76808,
1666.569,1046.2734,
1663.659,1038.6527,
1660.748,1056.3584,
1657.837,1106.5937,
1654.927,1118.6008,
1652.016,1210.9133,
1649.106,1192.424,
1646.195,1195.8855,
1643.285,1258.1953,
1640.374,1294.8593,
1637.463,1365.3478,
1634.553,1418.4637,
1631.642,1425.7105,
1628.732,1547.7068,
1625.821,1603.4941,
1622.911,1784.3494,
1620.000,1875.2285,
1617.089,2026.3302,
1614.179,2139.1883,
1611.268,2373.4523,
1608.358,2414.783,
1605.447,2534.2331,
1602.536,2505.9633,
1599.626,2533.7328,
1596.715,2453.7833,
1593.805,2423.0167,
1590.894,2396.5969,
1587.984,2356.9991,
1585.073,2303.7293,
1582.162,2304.5587,
1579.252,2221.2717,
1576.341,2219.1973,
1573.431,2191.2649,
1570.520,2189.2544,
1567.610,2134.7467,
1564.699,2122.6253,
1561.788,2078.1924,
1558.878,2030.3817,
1555.967,1953.2905,
1553.057,1876.3582,
1550.146,1819.4187,
1547.235,1795.833,
1544.325,1749.2635,
1541.414,1685.6719,
1538.504,1650.6128,
1535.593,1644.7834,
1532.683,1601.5168,
1529.772,1531.2815,
1526.861,1505.3401,
1523.951,1494.1387,
1521.040,1493.1156,
1518.130,1499.3098,
1515.219,1490.1758,
1512.309,1441.0596,
1509.398,1380.2343,
1506.487,1375.2258,
1503.577,1337.3463,
1500.666,1328.6888,
1497.756,1302.1116,
1494.845,1237.6546,
1491.934,1220.3026,
1489.024,1198.1652,
1486.113,1180.6851,
1483.203,1170.4933,
1480.292,1143.9197,
1477.382,1115.9358,
1474.471,1029.0328,
1471.560,1004.375,
1468.650,973.62768,
1465.739,957.45353,
1462.829,940.26093,
1459.918,921.64013,
1457.008,910.80571,
1454.097,925.32348,
1451.186,933.23574,
1448.276,925.91996,
1445.365,948.98242,
1442.455,941.98885,
1439.544,907.86907,
1436.633,892.0165,
1433.723,908.0464,
1430.812,804.73407,
1427.902,859.21715,
1424.991,852.58281,
1422.081,838.61284,
1419.170,828.7344,
1416.259,867.87815,
1413.349,802.60614,
1410.438,821.06156,
1407.528,814.91282,
1404.617,773.19284,
1401.707,763.97381,
1398.796,735.14083,
1395.885,696.0955,
1392.975,704.91681,
1390.064,722.55875,
1387.154,765.49759,
1384.243,813.71896,
1381.332,797.1296,
1378.422,845.74195,
1375.511,891.64421,
1372.601,924.62996,
1369.690,941.09056,
1366.780,933.07854,
1363.869,984.1343,
1360.958,1036.7256,
1358.048,1083.6339,
1355.137,1135.916,
1352.227,1188.6235,
1349.316,1241.8712,
1346.406,1309.7517,
1343.495,1371.8767,
1340.584,1385.1954,
1337.674,1452.6246,
1334.763,1446.5161,
1331.853,1450.2251,
1328.942,1597.1366,
1326.032,1643.9217,
1323.121,1722.9895,
1320.210,1733.7247,
1317.300,1813.1391,
1314.389,1904.2089,
1311.479,1984.0542,
1308.568,2068.0529,
1305.657,2118.5134,
1302.747,2185.0203,
1299.836,2287.5201,
1296.926,2383.8533,
1294.015,2437.1741,
1291.105,2593.4698,
1288.194,2699.0418,
1285.283,2794.1233,
1282.373,2892.3513,
1279.462,2980.6878,
1276.552,3036.6349,
1273.641,3063.3467,
1270.731,3047.8541,
1267.820,2953.6154,
1264.909,2868.673,
1261.999,2966.4402,
1259.088,2995.6281,
1256.178,2999.0879,
1253.267,2937.2322,
1250.356,2862.1629,
1247.446,2756.1668,
1244.535,2634.9645,
1241.625,2529.2159,
1238.714,2446.1547,
1235.804,2374.8654,
1232.893,2308.2672,
1229.982,2231.2029,
1227.072,2255.6464,
1224.161,2193.4967,
1221.251,2193.2871,
1218.340,2146.1979,
1215.430,2099.1063,
1212.519,2106.013,
1209.608,2108.9231,
1206.698,2044.7149,
1203.787,1981.2996,
1200.877,1954.4486,
1197.966,2052.4569,
1195.055,2153.7921,
1192.145,2192.9153,
1189.234,2269.7958,
1186.324,2308.466,
1183.413,2346.4715,
1180.503,2387.9789,
1177.592,2364.5969,
1174.681,2324.0223,
1171.771,2335.0041,
1168.860,2318.9285,
1165.950,2293.9926,
1163.039,2283.4862,
1160.129,2294.9417,
1157.218,2301.4906,
1154.307,2286.8732,
1151.397,2263.2041,
1148.486,2254.522,
1145.576,2268.8286,
1142.665,2187.1406,
1139.754,2234.8881,
1136.844,2217.262,
1133.933,2222.5567,
1131.023,2229.7098,
1128.112,2226.9459,
1125.202,2227.8195,
1122.291,2206.9909,
1119.380,2183.8947,
1116.470,2236.8464,
1113.559,2234.8693,
1110.649,2257.2591,
1107.738,2225.9021,
1104.828,2198.6097,
1101.917,2209.9369,
1099.006,2199.375,
1096.096,2199.8588,
1093.185,2207.7608,
1090.275,2205.1379,
1087.364,2237.3089,
1084.453,2273.7486,
1081.543,2309.6567,
1078.632,2333.4348,
1075.722,2334.0078,
1072.811,2346.4919,
1069.901,2362.2106,
1066.990,2349.6334,
1064.079,2328.6816,
1061.169,2313.7474,
1058.258,2321.9265,
1055.348,2344.4904,
1052.437,2354.211,
1049.527,2354.7177,
1046.616,2389.4708,
1043.705,2372.5643,
1040.795,2425.1174,
1037.884,2468.4898,
1034.974,2465.3402,
1032.063,2452.1978,
1029.153,2479.7518,
1026.242,2474.5621,
1023.331,2494.3737,
1020.421,2510.9228,
1017.510,2507.9709,
1014.600,2506.4502,
1011.689,2501.117,
1008.778,2446.9172,
1005.868,2310.5989,
1002.957,2335.5492,
1000.047,2560.6871,
997.136,2754.3796,
994.226,2877.4358,
991.315,2918.1522,
988.404,2891.9679,
985.494,2935.5886,
982.583,2900.4698,
979.673,2874.8889,
976.762,2887.9236,
973.852,2903.259,
970.941,2918.8977,
968.030,2953.9762,
965.120,2957.4466,
962.209,2974.4974,
959.299,2963.21,
956.388,2969.6942,
953.477,2985.5404,
950.567,2996.7278,
947.656,3007.8314,
944.746,3041.8137,
941.835,3023.9395,
938.925,3000.2915,
936.014,2987.8459,
933.103,2992.0838,
930.193,2996.984,
927.282,2964.0295,
924.372,2902.3002,
921.461,2859.0278,
918.551,2819.6521,
915.640,2788.4766,
912.729,2768.618,
909.819,2749.701,
906.908,2683.9919,
903.998,2712.9849,
901.087,2737.9242,
898.176,2770.2804,
895.266,2808.7058,
892.355,2833.1344,
889.445,2810.4742,
886.534,2877.1647,
883.624,2946.8929,
880.713,2920.7876,
877.802,2768.284,
874.892,2468.6186,
871.981,1976.1273,
869.071,1753.9075,
866.160,1997.5685,
863.250,2415.8318,
860.339,2734.7871,
857.428,2822.6182,
854.518,2774.5145,
851.607,2537.3748,
848.697,2231.5654,
845.786,2123.3112,
842.875,2256.3674,
839.965,2539.7746,
837.054,2797.4959,
834.144,2808.2697,
831.233,2825.7072,
828.323,2837.3316,
825.412,2823.667,
822.501,2779.9706,
819.591,2744.4354,
816.680,2716.1314,
813.770,2685.5679,
810.859,2673.6312,
807.949,2667.5554,
805.038,2644.9723,
802.127,2649.9111,
799.217,2672.7367,
796.306,2651.4288,
793.396,2617.6955,
790.485,2617.9061,
787.574,2687.1882,
784.664,2682.2675,
781.753,2729.6858,
778.843,2770.5279,
775.932,2781.2764,
773.022,2767.4038,
770.111,2780.485,
767.200,2782.1363,
764.290,2770.2396,
761.379,2750.7406,
758.469,2736.4677,
755.558,2743.6213,
752.648,2718.3686,
749.737,2748.6256,
746.826,2744.5302,
743.916,2708.3229,
741.005,2681.2745,
738.095,2671.532,
735.184,2641.0576,
732.274,2634.634,
729.363,2646.7721,
726.452,2663.7138,
723.542,2676.6641,
720.631,2743.8899,
717.721,2766.0935,
714.810,2788.3124,
711.899,2817.672,
708.989,2797.4989,
706.078,2797.375,
703.168,2776.1223,
700.257,2768.5636,
697.347,2771.0713,
694.436,2748.4623,
691.525,2751.6775,
688.615,2747.3437,
685.704,2749.1236,
682.794,2758.6516,
679.883,2769.9877,
676.973,2783.611,
674.062,2790.8416,
671.151,2772.3352,
668.241,2750.8547,
665.330,2767.8834,
662.420,2757.4999,
659.509,2745.851,
656.598,2761.5797,
653.688,2797.4265,
650.777,2823.8079,
647.867,2807.0851,
644.956,2681.4024,
642.046,2533.8203,
639.135,2438.7113,
636.224,2467.3021,
633.314,2652.2897,
630.403,2721.2498,
627.493,2757.4991,
624.582,2794.2001,
621.672,2806.872,
618.761,2824.8536,
615.850,2837.5378,
612.940,2855.6702,
610.029,2876.613,
607.119,2860.0308,
604.208,2851.2749,
601.297,2856.3513,
598.387,2860.6488,
595.476,2849.8894,
592.566,2834.1481,
589.655,2822.3045,
586.745,2813.0353,
583.834,2812.8646,
580.923,2832.1618,
578.013,2796.8487,
575.102,2791.9637,
572.192,2783.9419,
569.281,2772.6546,
566.371,2824.3078,
563.460,2859.7101,
560.549,2862.1421,
557.639,2850.3007,
554.728,2852.0558,
551.818,2926.1858,
548.907,2927.1397,
545.996,2939.9248,
543.086,2975.5428,
540.175,2976.3214,
537.265,2945.231,
534.354,2949.9308,
531.444,2986.9957,
528.533,3040.1543,
525.622,3037.0505,
522.712,3053.9708,
519.801,3091.7247,
516.891,3140.9482,
513.980,3173.4686,
511.070,3210.888,
508.159,3241.6123,
505.248,3268.6384,
502.338,3299.199,
499.427,3395.678,
496.517,3440.6073,
493.606,3466.8157,
490.695,3491.9426,
487.785,3510.4176,
484.874,3512.7288,
481.964,3516.5278,
479.053,3516.8593,
476.143,3493.8204,
473.232,3493.0944,
470.321,3486.0764,
467.411,3472.8033,
464.500,3456.5883,
461.590,3465.0115,
458.679,3486.085,
455.769,3544.8539,
452.858,3639.2955,
449.947,3638.5315,
447.037,3648.0832,
444.126,3673.5992,
441.216,3708.7562,
438.305,3722.471,
435.395,3724.375,
432.484,3710.6222,
429.573,3656.2296,
426.663,3505.7217,
423.752,2818.2734,
420.842,1971.8716,
417.931,1345.6953,
415.020,1459.449,
412.110,2539.5779,
409.199,3197.9444,
406.289,3428.3608,
403.378,3289.7987,
400.468,3119.6999,
397.557,3224.7614,
394.646,3505.1996,
391.736,3858.872,
388.825,3905.6343,
385.915,3946.5169,
383.004,3983.7955,
380.094,4017.0679,
377.183,4011.0481,
374.272,4053.3402,
371.362,4073.304,
368.451,4034.4722,
365.541,4068.9968,
362.630,4084.9299,
359.719,4091.2629,
356.809,4095.4592,
353.898,4129.9039,
350.988,4134.4926,
348.077,4129.7942,
345.167,4127.5046,
342.256,4110.3221,
339.345,4089.9635,
336.435,4091.6426,
333.524,4132.7843,
330.614,4177.4936,
327.703,4173.4058,
324.793,4166.9444,
321.882,4197.4183,
318.971,4215.2609,
316.061,4273.1363,
313.150,4338.2297,
310.240,4373.1092,
307.329,4352.9359,
304.418,4415.9597,
301.508,4510.0396,
298.597,4542.618,
295.687,4553.5019,
292.776,4587.3752,
289.866,4649.6148,
286.955,4745.6491,
284.044,4800.4875,
281.134,4871.0313,
278.223,4955.3329,
275.313,4989.2283,
272.402,4952.8073,
269.492,4843.7461,
266.581,4669.3858,
263.670,4571.6068,
260.760,4740.3135,
257.849,4983.2487,
254.939,5163.0499,
252.028,5207.358,
249.117,5269.0577,
246.207,5375.0841,
243.296,5574.9302,
240.386,5673.428,
237.475,5723.9797,
234.565,5749.613,
231.654,5814.6172,
228.743,5839.307,
225.833,5886.0968,
222.922,5977.5006,
220.012,6044.5277,
217.101,6160.1017,
214.191,6265.4617,
211.280,6292.3779,
208.369,6356.2738,
205.459,6415.5203,
202.548,6470.7817,
199.638,6536.8158,
196.727,6612.6063,
193.816,6686.9722,
190.906,6756.27,
187.995,6838.8088,
185.085,6896.6921,
182.174,6951.5098,
179.264,7033.1824,
176.353,7060.3168,
173.442,7049.7092,
170.532,7007.9985,
167.621,6961.8561,
164.711,6774.361,
161.800,6495.7046,
158.890,6142.3183,
155.979,5749.4682,
153.068,5344.7047,
150.158,4896.2289,
147.247,4272.3284,
144.337,3574.0628,
141.426,2851.1199,
138.516,2122.7584,
135.605,1512.624,
132.694,1036.3624,
129.784,677.17748,
126.873,424.73665,
123.963,283.46192,
121.052,193.27844,
118.141,137.59408,
115.231,110.37333,
112.320,88.784102,
109.410,72.056961,
106.499,59.950322,
103.589,51.772455,
100.678,44.930405,
97.767,38.531966,
94.857,34.910055,
91.946,33.375,
89.036,32.471817,
86.125,26.798175,
83.215,28.029602,
80.304,27.980673,
77.393,20.898974,
74.483,22.340405,
71.572,23.375,
68.662,22.82086,
65.751,17.169251,
62.840,13.448192,
59.930,12.124145,
57.019,14.944473,
54.109,20.152287,
51.198,20.057298,
48.288,12.403312,
45.377,15.920203,
42.466,14.901684,
39.556,11.605237,
36.645,13.009618,
33.735,17.009739,
30.824,20.154113,
27.914,19.452938,
25.003,15.016538,
22.092,17.541473,
19.182,29.290315,
16.271,57.26992,
13.361,212.51363,
10.450,542.46354,
7.539,1309.9121,
4.629,1988.0083,
1.718,2357.9041,
-1.192,2102.0521,
-4.103,1310.3958,
-7.013,571.38068,
-9.924,1.375,
