,PL4524~1,
Raman shift [1/cm],Intensity,
3014.167,7.75,
3011.256,-1.1499785,
3008.346,62.480361,
3005.435,77.248231,
3002.525,72.712528,
2999.614,96.808409,
2996.704,73.661342,
2993.793,80.006912,
2990.882,85.482767,
2987.972,98.694505,
2985.061,93.956905,
2982.151,88.539905,
2979.240,96.649235,
2976.329,95.490444,
2973.419,87.811102,
2970.508,106.98333,
2967.598,115.51104,
2964.687,111.22758,
2961.777,118.99794,
2958.866,121.75297,
2955.955,117.75,
2953.045,128.03412,
2950.134,124.65377,
2947.224,115.17703,
2944.313,127.05342,
2941.403,141.13138,
2938.492,129.72831,
2935.581,128.90581,
2932.671,141.90879,
2929.760,138.42308,
2926.850,139.80226,
2923.939,132.10981,
2921.028,135.06179,
2918.118,136.99182,
2915.207,144.09801,
2912.297,140.74154,
2909.386,149.56022,
2906.476,147.30057,
2903.565,160.97667,
2900.654,147.36173,
2897.744,141.87572,
2894.833,151.33764,
2891.923,155.6154,
2889.012,157.50144,
2886.102,157.58243,
2883.191,145.76416,
2880.280,144.73565,
2877.370,156.25583,
2874.459,139.69337,
2871.549,148.32912,
2868.638,141.56651,
2865.727,157.43461,
2862.817,160.93583,
2859.906,165.0406,
2856.996,153.74094,
2854.085,156.63025,
2851.175,153.29522,
2848.264,154.87766,
2845.353,140.79313,
2842.443,140.35418,
2839.532,145.28726,
2836.622,150.47461,
2833.711,144.06084,
2830.801,156.94412,
2827.890,150.56294,
2824.979,143.76206,
2822.069,149.00019,
2819.158,164.66913,
2816.248,154.75,
2813.337,150.18293,
2810.427,151.48553,
2807.516,151.85797,
2804.605,163.68509,
2801.695,148.35526,
2798.784,173.53231,
2795.874,154.75528,
2792.963,155.53585,
2790.052,144.753,
2787.142,164.06569,
2784.231,140.2671,
2781.321,158.93282,
2778.410,154.21953,
2775.500,159.38897,
2772.589,153.78899,
2769.678,165.92745,
2766.768,162.63348,
2763.857,168.38199,
2760.947,162.69326,
2758.036,171.53992,
2755.126,170.94017,
2752.215,164.83628,
2749.304,171.83452,
2746.394,168.90324,
2743.483,169.59998,
2740.573,167.42697,
2737.662,178.09023,
2734.751,178.28405,
2731.841,160.47893,
2728.930,167.322,
2726.020,172.19387,
2723.109,162.88417,
2720.199,170.25934,
2717.288,170.85584,
2714.377,170.23328,
2711.467,171.91374,
2708.556,182.31379,
2705.646,173.60913,
2702.735,186.09537,
2699.825,188.94633,
2696.914,191.08365,
2694.003,175.08983,
2691.093,192.83906,
2688.182,188.27741,
2685.272,183.35171,
2682.361,185.44978,
2679.450,180.17804,
2676.540,184.97356,
2673.629,192.0998,
2670.719,185.39233,
2667.808,191.45819,
2664.898,189.59436,
2661.987,185.11681,
2659.076,186.38578,
2656.166,196.21754,
2653.255,192.30612,
2650.345,189.18194,
2647.434,188.77887,
2644.524,202.06656,
2641.613,211.23586,
2638.702,217.68688,
2635.792,196.34422,
2632.881,199.10108,
2629.971,186.30023,
2627.060,205.58281,
2624.149,206.53438,
2621.239,205.75593,
2618.328,211.70761,
2615.418,212.07727,
2612.507,211.02669,
2609.597,191.49451,
2606.686,201.33434,
2603.775,216.23413,
2600.865,214.45985,
2597.954,210.51043,
2595.044,203.76771,
2592.133,213.20237,
2589.223,207.48472,
2586.312,215.97108,
2583.401,223.60765,
2580.491,221.92788,
2577.580,224.72359,
2574.670,214.00801,
2571.759,224.44692,
2568.848,206.10904,
2565.938,214.32139,
2563.027,216.45684,
2560.117,215.83412,
2557.206,225.07841,
2554.296,227.23513,
2551.385,230.44406,
2548.474,227.89795,
2545.564,222.78166,
2542.653,224.83389,
2539.743,227.30545,
2536.832,232.56683,
2533.922,234.75,
2531.011,236.39986,
2528.100,237.55138,
2525.190,236.33115,
2522.279,227.31278,
2519.369,235.42945,
2516.458,229.9738,
2513.548,237.41356,
2510.637,216.36483,
2507.726,230.12176,
2504.816,242.00028,
2501.905,238.0689,
2498.995,240.57084,
2496.084,232.53743,
2493.173,238.43477,
2490.263,243.1771,
2487.352,249.3744,
2484.442,240.18041,
2481.531,246.12227,
2478.621,240.46559,
2475.710,248.773,
2472.799,251.50337,
2469.889,255.11289,
2466.978,251.81193,
2464.068,247.79232,
2461.157,258.01754,
2458.247,252.4559,
2455.336,257.38797,
2452.425,249.8349,
2449.515,253.48597,
2446.604,256.98734,
2443.694,247.93584,
2440.783,266.42117,
2437.872,243.29697,
2434.962,255.38595,
2432.051,253.13897,
2429.141,267.00282,
2426.230,268.88038,
2423.320,263.10684,
2420.409,273.48081,
2417.498,279.92136,
2414.588,279.39262,
2411.677,268.25202,
2408.767,279.22047,
2405.856,280.19281,
2402.946,285.64276,
2400.035,284.64906,
2397.124,268.76069,
2394.214,279.994,
2391.303,289.42954,
2388.393,282.04533,
2385.482,291.1772,
2382.571,283.76281,
2379.661,281.3546,
2376.750,296.16865,
2373.840,306.10311,
2370.929,291.91245,
2368.019,301.77528,
2365.108,287.02749,
2362.197,305.13905,
2359.287,297.96838,
2356.376,293.75352,
2353.466,299.34074,
2350.555,300.95997,
2347.645,305.67052,
2344.734,297.14168,
2341.823,307.51783,
2338.913,302.76942,
2336.002,308.96299,
2333.092,305.88775,
2330.181,317.52237,
2327.270,304.57508,
2324.360,310.55659,
2321.449,317.68878,
2318.539,303.36464,
2315.628,319.22723,
2312.718,309.90197,
2309.807,304.84301,
2306.896,319.24609,
2303.986,313.39931,
2301.075,321.94144,
2298.165,322.76908,
2295.254,312.92234,
2292.344,332.22723,
2289.433,313.03954,
2286.522,313.04455,
2283.612,320.98979,
2280.701,328.40469,
2277.791,333.30918,
2274.880,325.95994,
2271.969,344.32613,
2269.059,354.19142,
2266.148,350.10225,
2263.238,350.54923,
2260.327,341.75,
2257.417,341.27556,
2254.506,341.36824,
2251.595,350.60087,
2248.685,349.12118,
2245.774,357.563,
2242.864,360.10163,
2239.953,354.84648,
2237.043,364.85358,
2234.132,364.80711,
2231.221,374.01359,
2228.311,371.40078,
2225.400,348.31291,
2222.490,365.89328,
2219.579,367.32331,
2216.669,380.27623,
2213.758,372.79313,
2210.847,379.81044,
2207.937,380.79072,
2205.026,391.75,
2202.116,400.40285,
2199.205,425.98741,
2196.294,421.00602,
2193.384,427.11802,
2190.473,459.2054,
2187.563,444.83217,
2184.652,461.14755,
2181.742,462.77335,
2178.831,469.03402,
2175.920,472.24181,
2173.010,483.37528,
2170.099,461.35267,
2167.189,466.84328,
2164.278,481.36407,
2161.368,491.03568,
2158.457,493.02088,
2155.546,511.00676,
2152.636,520.26597,
2149.725,527.07214,
2146.815,525.85011,
2143.904,551.05854,
2140.993,570.81879,
2138.083,558.99625,
2135.172,552.67443,
2132.262,569.88644,
2129.351,550.58434,
2126.441,538.33251,
2123.530,548.43573,
2120.619,521.43804,
2117.709,514.14775,
2114.798,472.42682,
2111.888,466.46212,
2108.977,469.6639,
2106.067,459.16622,
2103.156,448.83148,
2100.245,434.74498,
2097.335,428.31544,
2094.424,434.48431,
2091.514,414.1747,
2088.603,405.85139,
2085.692,410.8429,
2082.782,403.73401,
2079.871,416.82234,
2076.961,411.39578,
2074.050,419.3803,
2071.140,430.46275,
2068.229,421.57292,
2065.318,424.55326,
2062.408,428.90129,
2059.497,417.54762,
2056.587,411.78496,
2053.676,403.21707,
2050.766,417.44133,
2047.855,418.69304,
2044.944,419.67627,
2042.034,436.38003,
2039.123,424.66919,
2036.213,413.65443,
2033.302,411.92388,
2030.391,407.3095,
2027.481,426.06687,
2024.570,430.37866,
2021.660,427.86826,
2018.749,409.92771,
2015.839,437.32874,
2012.928,425.88759,
2010.017,436.82817,
2007.107,436.61169,
2004.196,443.72619,
2001.286,431.87369,
1998.375,392.74014,
1995.465,410.21428,
1992.554,425.7617,
1989.643,436.40436,
1986.733,394.60614,
1983.822,413.69978,
1980.912,434.33388,
1978.001,422.12291,
1975.090,418.35916,
1972.180,416.68085,
1969.269,418.18391,
1966.359,398.29029,
1963.448,396.51619,
1960.538,390.01188,
1957.627,396.66642,
1954.716,390.95109,
1951.806,387.43906,
1948.895,415.66909,
1945.985,389.79248,
1943.074,398.87175,
1940.164,394.99023,
1937.253,378.01532,
1934.342,380.827,
1931.432,391.48186,
1928.521,397.94516,
1925.611,394.98383,
1922.700,409.37016,
1919.790,387.05088,
1916.879,387.40125,
1913.968,406.72664,
1911.058,387.68393,
1908.147,386.61715,
1905.237,386.74265,
1902.326,399.97961,
1899.415,410.98778,
1896.505,372.91858,
1893.594,380.28361,
1890.684,397.55396,
1887.773,388.86214,
1884.863,405.8844,
1881.952,416.75,
1879.041,385.7339,
1876.131,388.78006,
1873.220,384.77652,
1870.310,403.24324,
1867.399,400.81397,
1864.489,371.17838,
1861.578,383.52459,
1858.667,402.07035,
1855.757,405.16647,
1852.846,394.28844,
1849.936,422.19143,
1847.025,413.22935,
1844.114,389.84417,
1841.204,410.14161,
1838.293,413.23753,
1835.383,414.73851,
1832.472,394.92391,
1829.562,427.54975,
1826.651,437.39067,
1823.740,434.38985,
1820.830,424.17509,
1817.919,442.73817,
1815.009,440.90013,
1812.098,440.64764,
1809.188,418.23842,
1806.277,432.39589,
1803.366,415.81654,
1800.456,420.68427,
1797.545,438.68607,
1794.635,453.23493,
1791.724,427.3713,
1788.813,451.75129,
1785.903,448.94966,
1782.992,436.40726,
1780.082,455.21844,
1777.171,441.08512,
1774.261,434.24473,
1771.350,419.85225,
1768.439,449.07129,
1765.529,465.65832,
1762.618,450.60436,
1759.708,437.19563,
1756.797,458.41667,
1753.887,491.16108,
1750.976,493.08443,
1748.065,480.37673,
1745.155,480.22094,
1742.244,476.79077,
1739.334,473.06529,
1736.423,485.46774,
1733.512,484.2012,
1730.602,498.95439,
1727.691,501.67936,
1724.781,509.40234,
1721.870,516.5786,
1718.960,523.50562,
1716.049,512.16538,
1713.138,536.25487,
1710.228,536.39852,
1707.317,480.90657,
1704.407,517.77146,
1701.496,519.10381,
1698.586,546.46953,
1695.675,471.08618,
1692.764,533.91397,
1689.854,513.83266,
1686.943,529.17666,
1684.033,535.60098,
1681.122,552.46113,
1678.211,569.5882,
1675.301,546.82092,
1672.390,572.80084,
1669.480,589.95857,
1666.569,615.36912,
1663.659,586.82794,
1660.748,652.34773,
1657.837,682.40008,
1654.927,666.25799,
1652.016,645.53131,
1649.106,636.43175,
1646.195,626.36343,
1643.285,731.67903,
1640.374,685.75,
1637.463,686.6147,
1634.553,734.22289,
1631.642,765.67399,
1628.732,759.36625,
1625.821,862.76439,
1622.911,884.62603,
1620.000,926.22085,
1617.089,985.55597,
1614.179,1029.5092,
1611.268,1110.6642,
1608.358,1109.9373,
1605.447,1154.0646,
1602.536,1202.4125,
1599.626,1199.3105,
1596.715,1229.6084,
1593.805,1143.3168,
1590.894,1163.5735,
1587.984,1195.4649,
1585.073,1119.7732,
1582.162,1104.0802,
1579.252,1093.1121,
1576.341,1091.5511,
1573.431,1083.1351,
1570.520,1082.2788,
1567.610,1076.044,
1564.699,1091.8757,
1561.788,1063.5391,
1558.878,1012.5636,
1555.967,967.34142,
1553.057,971.24981,
1550.146,943.64827,
1547.235,914.43706,
1544.325,931.67468,
1541.414,893.20422,
1538.504,903.78208,
1535.593,947.5248,
1532.683,922.50878,
1529.772,910.92492,
1526.861,920.16397,
1523.951,933.44073,
1521.040,956.60142,
1518.130,957.9097,
1515.219,944.34906,
1512.309,961.14184,
1509.398,905.80146,
1506.487,883.26934,
1503.577,903.93281,
1500.666,855.54812,
1497.756,878.81793,
1494.845,891.79002,
1491.934,892.65551,
1489.024,863.78072,
1486.113,818.24365,
1483.203,852.05304,
1480.292,849.96191,
1477.382,816.42007,
1474.471,817.19117,
1471.560,787.09503,
1468.650,776.79982,
1465.739,766.86167,
1462.829,760.75,
1459.918,782.29715,
1457.008,803.81159,
1454.097,793.88526,
1451.186,749.88733,
1448.276,742.11239,
1445.365,788.99882,
1442.455,767.91701,
1439.544,755.5829,
1436.633,769.8076,
1433.723,742.99623,
1430.812,751.45447,
1427.902,748.58434,
1424.991,783.65155,
1422.081,756.30821,
1419.170,744.24534,
1416.259,763.81164,
1413.349,751.37946,
1410.438,734.55353,
1407.528,751.63722,
1404.617,743.78764,
1401.707,735.0494,
1398.796,694.90746,
1395.885,676.16759,
1392.975,698.43657,
1390.064,639.79714,
1387.154,586.0016,
1384.243,528.84938,
1381.332,428.95127,
1378.422,476.06355,
1375.511,579.10946,
1372.601,671.06389,
1369.690,755.90002,
1366.780,744.98895,
1363.869,730.75875,
1360.958,764.0619,
1358.048,763.17071,
1355.137,818.08893,
1352.227,886.61279,
1349.316,879.19684,
1346.406,872.31216,
1343.495,909.75,
1340.584,906.00026,
1337.674,887.14199,
1334.763,876.74924,
1331.853,955.56389,
1328.942,959.63946,
1326.032,979.3249,
1323.121,965.96685,
1320.210,991.7142,
1317.300,1005.9793,
1314.389,1003.7222,
1311.479,994.44909,
1308.568,988.41948,
1305.657,1016.9789,
1302.747,1065.3128,
1299.836,1060.841,
1296.926,1126.5619,
1294.015,1144.029,
1291.105,1162.3608,
1288.194,1207.0834,
1285.283,1229.9221,
1282.373,1257.5312,
1279.462,1284.4752,
1276.552,1272.5216,
1273.641,1258.6566,
1270.731,1285.6306,
1267.820,1286.8702,
1264.909,1237.3873,
1261.999,1237.0136,
1259.088,1299.0378,
1256.178,1253.932,
1253.267,1226.5701,
1250.356,1214.6547,
1247.446,1234.0456,
1244.535,1237.3616,
1241.625,1211.4278,
1238.714,1196.4204,
1235.804,1200.4151,
1232.893,1177.8748,
1229.982,1176.6342,
1227.072,1114.1677,
1224.161,1125.7196,
1221.251,1095.2471,
1218.340,1023.5035,
1215.430,983.59304,
1212.519,1004.9156,
1209.608,1034.915,
1206.698,1023.1115,
1203.787,1010.137,
1200.877,1046.5331,
1197.966,1075.3062,
1195.055,1089.5487,
1192.145,1136.0793,
1189.234,1171.5114,
1186.324,1213.2984,
1183.413,1234.3338,
1180.503,1231.1108,
1177.592,1242.9522,
1174.681,1262.9486,
1171.771,1237.3063,
1168.860,1261.4198,
1165.950,1226.6607,
1163.039,1212.8612,
1160.129,1233.7543,
1157.218,1217.06,
1154.307,1202.5274,
1151.397,1231.233,
1148.486,1208.8537,
1145.576,1186.6729,
1142.665,1184.8971,
1139.754,1187.1909,
1136.844,1199.6551,
1133.933,1204.75,
1131.023,1189.1708,
1128.112,1176.3922,
1125.202,1169.0496,
1122.291,1122.8834,
1119.380,1144.6547,
1116.470,1134.9469,
1113.559,1153.8545,
1110.649,1168.263,
1107.738,1149.174,
1104.828,1131.2466,
1101.917,1130.3119,
1099.006,1120.451,
1096.096,1122.2987,
1093.185,1098.5926,
1090.275,1165.538,
1087.364,1157.7357,
1084.453,1181.0603,
1081.543,1206.8736,
1078.632,1208.5705,
1075.722,1216.4425,
1072.811,1222.3849,
1069.901,1203.1731,
1066.990,1209.025,
1064.079,1191.0151,
1061.169,1179.5408,
1058.258,1182.8318,
1055.348,1197.099,
1052.437,1206.3866,
1049.527,1164.9248,
1046.616,1195.3339,
1043.705,1185.647,
1040.795,1200.2666,
1037.884,1214.2902,
1034.974,1219.6121,
1032.063,1212.0196,
1029.153,1181.3852,
1026.242,1211.6587,
1023.331,1199.4175,
1020.421,1215.5717,
1017.510,1233.2747,
1014.600,1250.9003,
1011.689,1275.2976,
1008.778,1295.8856,
1005.868,1262.2983,
1002.957,1323.3834,
1000.047,1350.95,
997.136,1363.0359,
994.226,1358.7194,
991.315,1343.2698,
988.404,1328.8044,
985.494,1317.6184,
982.583,1267.0816,
979.673,1269.9931,
976.762,1253.7885,
973.852,1265.3866,
970.941,1298.3428,
968.030,1292.6863,
965.120,1252.6963,
962.209,1239.9082,
959.299,1279.5367,
956.388,1279.9511,
953.477,1267.161,
950.567,1270.1028,
947.656,1276.75,
944.746,1276.75,
941.835,1297.8051,
938.925,1315.253,
936.014,1326.8083,
933.103,1339.5181,
930.193,1359.1434,
927.282,1377.6795,
924.372,1321.0238,
921.461,1304.9132,
918.551,1285.4839,
915.640,1278.4244,
912.729,1274.0157,
909.819,1246.4181,
906.908,1259.0544,
903.998,1260.5454,
901.087,1276.0261,
898.176,1249.9148,
895.266,1238.0941,
892.355,1301.5036,
889.445,1337.5921,
886.534,1334.4105,
883.624,1328.3673,
880.713,1316.5636,
877.802,1311.5713,
874.892,1320.0369,
871.981,1325.3554,
869.071,1308.6472,
866.160,1324.3789,
863.250,1309.6851,
860.339,1297.6994,
857.428,1308.5847,
854.518,1288.0499,
851.607,1332.9816,
848.697,1342.8135,
845.786,1333.8896,
842.875,1320.2059,
839.965,1315.1627,
837.054,1330.8896,
834.144,1343.3208,
831.233,1335.7507,
828.323,1338.1686,
825.412,1344.7841,
822.501,1343.7926,
819.591,1349.5774,
816.680,1315.2948,
813.770,1303.6175,
810.859,1293.1764,
807.949,1290.1915,
805.038,1306.0664,
802.127,1275.6106,
799.217,1304.0564,
796.306,1296.0201,
793.396,1291.4829,
790.485,1306.9606,
787.574,1308.653,
784.664,1332.4362,
781.753,1342.7889,
778.843,1343.2996,
775.932,1335.5032,
773.022,1323.3696,
770.111,1320.9169,
767.200,1307.8077,
764.290,1297.3933,
761.379,1293.1439,
758.469,1289.7739,
755.558,1274.5798,
752.648,1268.8776,
749.737,1238.3745,
746.826,1184.5199,
743.916,1103.6131,
741.005,983.08137,
738.095,764.6865,
735.184,567.13567,
732.274,526.09667,
729.363,668.43066,
726.452,941.97207,
723.542,1170.221,
720.631,1227.0933,
717.721,1281.9949,
714.810,1324.1704,
711.899,1340.3044,
708.989,1329.8144,
706.078,1309.7174,
703.168,1295.0345,
700.257,1293.7009,
697.347,1304.2279,
694.436,1315.9426,
691.525,1286.2018,
688.615,1303.6486,
685.704,1324.6571,
682.794,1328.6011,
679.883,1312.9755,
676.973,1340.2221,
674.062,1336.1788,
671.151,1352.6665,
668.241,1373.1261,
665.330,1348.0693,
662.420,1333.6921,
659.509,1323.7658,
656.598,1350.0425,
653.688,1392.9706,
650.777,1403.345,
647.867,1391.4,
644.956,1391.8458,
642.046,1385.458,
639.135,1375.2173,
636.224,1380.6187,
633.314,1354.4187,
630.403,1356.6182,
627.493,1351.9959,
624.582,1337.0454,
621.672,1347.3414,
618.761,1363.7087,
615.850,1369.852,
612.940,1368.0177,
610.029,1359.8565,
607.119,1342.4846,
604.208,1346.4301,
601.297,1344.7619,
598.387,1344.4762,
595.476,1350.7788,
592.566,1319.2961,
589.655,1320.8768,
586.745,1302.6176,
583.834,1271.5542,
580.923,1263.5841,
578.013,1236.1184,
575.102,1265.4597,
572.192,1290.9636,
569.281,1290.7026,
566.371,1307.1377,
563.460,1370.1257,
560.549,1377.7207,
557.639,1367.8812,
554.728,1394.5238,
551.818,1422.6151,
548.907,1428.75,
545.996,1426.8061,
543.086,1415.3619,
540.175,1376.4296,
537.265,1402.7212,
534.354,1403.7162,
531.444,1383.4397,
528.533,1358.6262,
525.622,1385.0084,
522.712,1408.9526,
519.801,1420.3681,
516.891,1425.3842,
513.980,1453.2588,
511.070,1429.6891,
508.159,1436.8975,
505.248,1453.996,
502.338,1446.4052,
499.427,1468.7883,
496.517,1468.5278,
493.606,1467.4514,
490.695,1477.8525,
487.785,1500.1765,
484.874,1475.9624,
481.964,1443.3083,
479.053,1422.7949,
476.143,1439.6901,
473.232,1457.2963,
470.321,1460.344,
467.411,1448.1392,
464.500,1422.3621,
461.590,1407.0473,
458.679,1429.1641,
455.769,1451.3801,
452.858,1455.7723,
449.947,1484.8017,
447.037,1485.2892,
444.126,1480.2712,
441.216,1478.8083,
438.305,1484.9038,
435.395,1470.6704,
432.484,1453.5815,
429.573,1442.7025,
426.663,1451.0641,
423.752,1469.1855,
420.842,1479.0334,
417.931,1480.0262,
415.020,1473.9594,
412.110,1510.3307,
409.199,1512.9921,
406.289,1494.8626,
403.378,1473.8371,
400.468,1499.5409,
397.557,1506.2076,
394.646,1472.6979,
391.736,1383.7218,
388.825,1320.3664,
385.915,1279.3979,
383.004,1254.8958,
380.094,1248.1629,
377.183,1354.262,
374.272,1447.2553,
371.362,1494.5691,
368.451,1481.4825,
365.541,1510.0028,
362.630,1520.4812,
359.719,1535.7726,
356.809,1565.1642,
353.898,1538.9562,
350.988,1555.0769,
348.077,1563.4241,
345.167,1536.5447,
342.256,1552.2331,
339.345,1563.1272,
336.435,1559.3119,
333.524,1535.5486,
330.614,1560.8839,
327.703,1567.7232,
324.793,1571.648,
321.882,1585.7338,
318.971,1579.0428,
316.061,1586.5163,
313.150,1593.5167,
310.240,1583.1271,
307.329,1642.7795,
304.418,1633.4654,
301.508,1577.6023,
298.597,1516.8881,
295.687,1466.3749,
292.776,1466.0001,
289.866,1530.3133,
286.955,1694.3104,
284.044,1810.0949,
281.134,1904.852,
278.223,1992.1027,
275.313,2110.7364,
272.402,2154.3389,
269.492,2192.4645,
266.581,2249.3234,
263.670,2299.3157,
260.760,2315.3171,
257.849,2342.4127,
254.939,2415.801,
252.028,2378.3862,
249.117,2361.9227,
246.207,2355.3936,
243.296,2338.5567,
240.386,2336.097,
237.475,2296.1787,
234.565,2233.9003,
231.654,2241.2042,
228.743,2253.1066,
225.833,2238.7975,
222.922,2188.75,
220.012,2188.75,
217.101,2154.3999,
214.191,2118.9686,
211.280,2119.696,
208.369,2065.2521,
205.459,2031.1642,
202.548,2020.2514,
199.638,2023.154,
196.727,2060.6278,
193.816,2075.107,
190.906,2046.7912,
187.995,2076.4762,
185.085,2066.4172,
182.174,2029.0587,
179.264,1974.8513,
176.353,1997.5851,
173.442,2035.1409,
170.532,2064.3493,
167.621,1992.2517,
164.711,1903.3751,
161.800,1814.9447,
158.890,1739.3733,
155.979,1611.1324,
153.068,1513.7929,
150.158,1412.2427,
147.247,1162.3953,
144.337,940.01585,
141.426,733.26364,
138.516,538.98612,
135.605,392.32975,
132.694,272.56824,
129.784,178.48546,
126.873,115.55404,
123.963,78.279984,
121.052,57.483686,
118.141,51.77247,
115.231,38.959734,
112.320,34.597272,
109.410,34.386447,
106.499,27.264895,
103.589,26.310254,
100.678,24.577026,
97.767,18.889526,
94.857,22.214945,
91.946,23.346889,
89.036,21.508123,
86.125,13.706865,
83.215,15.466442,
80.304,16.834539,
77.393,11.169179,
74.483,12.715405,
71.572,14.474704,
68.662,15.75,
65.751,15.75,
62.840,11.896384,
59.930,9.622862,
57.019,16.673682,
54.109,11.181231,
51.198,8.8612649,
48.288,13.710363,
45.377,8.7867164,
42.466,11.284413,
39.556,17.059289,
36.645,12.846147,
33.735,12.269248,
30.824,13.412661,
27.914,15.516187,
25.003,15.75,
22.092,16.395809,
19.182,18.276306,
16.271,34.364579,
13.361,117.03389,
10.450,284.84962,
7.539,651.46519,
4.629,1109.2101,
1.718,1380.7562,
-1.192,1159.0642,
-4.103,719.35776,
-7.013,314.81178,
-9.924,-3.25,
