,PL28BD~1,
Raman shift [1/cm],Intensity,
3014.167,1.5,
3011.256,-0.5,
3008.346,260.21951,
3005.435,297.5,
3002.525,295.91499,
2999.614,325.62991,
2996.704,347.81856,
2993.793,351.2523,
2990.882,363.05718,
2987.972,360.6009,
2985.061,374.73645,
2982.151,368.38067,
2979.240,409.5,
2976.329,405.74317,
2973.419,409.08434,
2970.508,434.06659,
2967.598,457.68755,
2964.687,441.02242,
2961.777,464.96179,
2958.866,478.49258,
2955.955,490.77655,
2953.045,493.05034,
2950.134,516.11812,
2947.224,535.87009,
2944.313,544.90456,
2941.403,559.61952,
2938.492,561.38348,
2935.581,581.95152,
2932.671,582.26398,
2929.760,598.22307,
2926.850,590.70902,
2923.939,579.21021,
2921.028,607.10583,
2918.118,626.84131,
2915.207,633.3797,
2912.297,618.55078,
2909.386,638.30292,
2906.476,649.98032,
2903.565,647.24222,
2900.654,639.44136,
2897.744,627.88974,
2894.833,649.428,
2891.923,643.7981,
2889.012,639.45954,
2886.102,643.35269,
2883.191,650.49811,
2880.280,629.46172,
2877.370,620.72678,
2874.459,610.96548,
2871.549,651.35562,
2868.638,701.18451,
2865.727,686.73463,
2862.817,672.21391,
2859.906,672.95584,
2856.996,689.93886,
2854.085,692.0567,
2851.175,696.52113,
2848.264,677.36267,
2845.353,680.6294,
2842.443,669.72924,
2839.532,668.55956,
2836.622,655.04492,
2833.711,654.60361,
2830.801,664.59338,
2827.890,648.12588,
2824.979,655.06798,
2822.069,653.60235,
2819.158,663.64016,
2816.248,658.77605,
2813.337,677.79879,
2810.427,663.54408,
2807.516,663.34172,
2804.605,661.56491,
2801.695,675.19737,
2798.784,680.20431,
2795.874,658.64512,
2792.963,659.71436,
2790.052,665.49914,
2787.142,673.55246,
2784.231,654.08075,
2781.321,660.30566,
2778.410,647.89466,
2775.500,656.26586,
2772.589,645.15367,
2769.678,662.45895,
2766.768,669.26697,
2763.857,687.60019,
2760.947,667.13554,
2758.036,696.97139,
2755.126,696.49359,
2752.215,695.41796,
2749.304,693.45682,
2746.394,691.94551,
2743.483,709.6,
2740.573,698.07959,
2737.662,705.29733,
2734.751,713.4758,
2731.841,700.58058,
2728.930,708.17371,
2726.020,713.83681,
2723.109,709.40733,
2720.199,722.59677,
2717.288,726.62408,
2714.377,735.78722,
2711.467,742.71319,
2708.556,746.27642,
2705.646,755.88029,
2702.735,753.18558,
2699.825,770.03272,
2696.914,739.35633,
2694.003,772.3618,
2691.093,743.75029,
2688.182,772.88371,
2685.272,760.37624,
2682.361,766.16485,
2679.450,753.12965,
2676.540,750.72356,
2673.629,757.8498,
2670.719,771.05454,
2667.808,765.37544,
2664.898,767.53891,
2661.987,775.03342,
2659.076,786.3556,
2656.166,797.40057,
2653.255,769.31293,
2650.345,794.10073,
2647.434,826.15618,
2644.524,804.78544,
2641.613,812.41389,
2638.702,817.31063,
2635.792,795.99851,
2632.881,813.85108,
2629.971,809.77511,
2627.060,801.99782,
2624.149,813.52813,
2621.239,828.29299,
2618.328,840.8391,
2615.418,841.86363,
2612.507,839.66992,
2609.597,817.43812,
2606.686,836.22692,
2603.775,859.98413,
2600.865,854.38731,
2597.954,882.54172,
2595.044,865.81267,
2592.133,878.44912,
2589.223,902.22317,
2586.312,873.59551,
2583.401,877.90517,
2580.491,902.67788,
2577.580,877.4901,
2574.670,875.37432,
2571.759,882.74743,
2568.848,867.32866,
2565.938,897.26185,
2563.027,901.57275,
2560.117,904.7617,
2557.206,914.02029,
2554.296,927.38787,
2551.385,927.73991,
2548.474,910.87026,
2545.564,922.05682,
2542.653,909.81543,
2539.743,918.48768,
2536.832,935.35795,
2533.922,947.61038,
2531.011,953.95005,
2528.100,962.09585,
2525.190,961.01312,
2522.279,962.60894,
2519.369,950.53737,
2516.458,942.81799,
2513.548,961.0995,
2510.637,958.56148,
2507.726,957.62639,
2504.816,960.81342,
2501.905,942.96402,
2498.995,983.00703,
2496.084,972.0715,
2493.173,976.73609,
2490.263,982.22998,
2487.352,1017.0827,
2484.442,1005.2216,
2481.531,991.07455,
2478.621,988.87443,
2475.710,1020.5613,
2472.799,1028.7466,
2469.889,1033.8629,
2466.978,1012.5209,
2464.068,1016.8651,
2461.157,1021.1949,
2458.247,1031.2206,
2455.336,1030.1595,
2452.425,1035.8491,
2449.515,1023.8306,
2446.604,1039.0899,
2443.694,1048.7097,
2440.783,1056.6903,
2437.872,1061.6978,
2434.962,1048.3802,
2432.051,1065.1357,
2429.141,1073.7351,
2426.230,1074.826,
2423.320,1099.5,
2420.409,1100.6346,
2417.498,1112.073,
2414.588,1083.3481,
2411.677,1106.1056,
2408.767,1098.2825,
2405.856,1113.5357,
2402.946,1109.8628,
2400.035,1096.4084,
2397.124,1105.6551,
2394.214,1136.2292,
2391.303,1139.0027,
2388.393,1135.7953,
2385.482,1135.3678,
2382.571,1166.8291,
2379.661,1169.6163,
2376.750,1155.872,
2373.840,1172.7374,
2370.929,1152.8032,
2368.019,1186.7401,
2365.108,1190.2696,
2362.197,1179.2507,
2359.287,1167.3401,
2356.376,1200.4331,
2353.466,1201.137,
2350.555,1193.8701,
2347.645,1205.1967,
2344.734,1208.1359,
2341.823,1211.4337,
2338.913,1221.7507,
2336.002,1215.7151,
2333.092,1243.8566,
2330.181,1248.3439,
2327.270,1220.4252,
2324.360,1243.0117,
2321.449,1277.5306,
2318.539,1261.711,
2315.628,1252.6847,
2312.718,1237.7181,
2309.807,1276.6613,
2306.896,1284.4374,
2303.986,1273.117,
2301.075,1283.9468,
2298.165,1285.2886,
2295.254,1298.2415,
2292.344,1276.446,
2289.433,1298.6314,
2286.522,1315.5582,
2283.612,1311.2309,
2280.701,1338.1367,
2277.791,1328.4217,
2274.880,1349.644,
2271.969,1351.9156,
2269.059,1349.8869,
2266.148,1364.8456,
2263.238,1339.3147,
2260.327,1400.6033,
2257.417,1389.9233,
2254.506,1394.0954,
2251.595,1400.9218,
2248.685,1399.8712,
2245.774,1408.313,
2242.864,1420.3703,
2239.953,1415.9966,
2237.043,1415.2928,
2234.132,1433.5571,
2231.221,1438.5,
2228.311,1432.4111,
2225.400,1446.2881,
2222.490,1470.3436,
2219.579,1450.0038,
2216.669,1471.8355,
2213.758,1501.2817,
2210.847,1529.1297,
2207.937,1542.2557,
2205.026,1561.6093,
2202.116,1611.811,
2199.205,1617.9748,
2196.294,1615.318,
2193.384,1642.4725,
2190.473,1675.2336,
2187.563,1706.7707,
2184.652,1769.5788,
2181.742,1831.3663,
2178.831,1892.7335,
2175.920,1953.4618,
2173.010,2045.7795,
2170.099,2134.2257,
2167.189,2239.1601,
2164.278,2346.2005,
2161.368,2463.4969,
2158.457,2588.655,
2155.546,2698.5289,
2152.636,2806.2072,
2149.725,2930.8825,
2146.815,3033.5635,
2143.904,3116.3959,
2140.993,3111.156,
2138.083,3126.8647,
2135.172,3134.937,
2132.262,3105.5731,
2129.351,3060.8447,
2126.441,2977.5192,
2123.530,2859.2541,
2120.619,2733.9502,
2117.709,2605.1212,
2114.798,2459.6186,
2111.888,2307.5152,
2108.977,2176.3874,
2106.067,2076.8633,
2103.156,2025.9461,
2100.245,1930.4987,
2097.335,1915.254,
2094.424,1813.2343,
2091.514,1782.5563,
2088.603,1747.5323,
2085.692,1736.5,
2082.782,1750.6365,
2079.871,1744.9994,
2076.961,1732.2104,
2074.050,1709.9182,
2071.140,1702.6836,
2068.229,1718.513,
2065.318,1694.0795,
2062.408,1682.4697,
2059.497,1673.0774,
2056.587,1707.3482,
2053.676,1673.8698,
2050.766,1661.577,
2047.855,1640.2437,
2044.944,1636.8205,
2042.034,1671.737,
2039.123,1672.8401,
2036.213,1668.6355,
2033.302,1667.9347,
2030.391,1679.5846,
2027.481,1679.7805,
2024.570,1681.0285,
2021.660,1691.8496,
2018.749,1695.8419,
2015.839,1704.5,
2012.928,1703.5805,
2010.017,1705.6944,
2007.107,1701.8458,
2004.196,1673.3095,
2001.286,1683.6272,
1998.375,1686.4537,
1995.465,1689.5795,
1992.554,1665.2061,
1989.643,1686.6013,
1986.733,1662.3395,
1983.822,1661.1928,
1980.912,1671.0445,
1978.001,1672.3219,
1975.090,1664.5534,
1972.180,1651.7061,
1969.269,1675.7845,
1966.359,1678.4188,
1963.448,1691.0324,
1960.538,1666.6626,
1957.627,1656.8251,
1954.716,1707.9775,
1951.806,1661.4936,
1948.895,1681.1376,
1945.985,1674.8791,
1943.074,1639.9501,
1940.164,1647.9613,
1937.253,1653.5909,
1934.342,1660.8246,
1931.432,1650.8912,
1928.521,1648.7591,
1925.611,1638.4546,
1922.700,1638.0829,
1919.790,1674.673,
1916.879,1633.9875,
1913.968,1610.5246,
1911.058,1626.8213,
1908.147,1649.6183,
1905.237,1668.1617,
1902.326,1638.4555,
1899.415,1653.7646,
1896.505,1655.0602,
1893.594,1637.1402,
1890.684,1624.3366,
1887.773,1638.5599,
1884.863,1683.115,
1881.952,1676.7852,
1879.041,1641.5358,
1876.131,1624.5418,
1873.220,1643.4204,
1870.310,1627.935,
1867.399,1669.7963,
1864.489,1677.5264,
1861.578,1650.9782,
1858.667,1630.0209,
1855.757,1662.0585,
1852.846,1692.6693,
1849.936,1659.4059,
1847.025,1687.972,
1844.114,1686.3283,
1841.204,1708.8357,
1838.293,1706.5349,
1835.383,1711.1855,
1832.472,1735.4652,
1829.562,1758.5805,
1826.651,1751.3542,
1823.740,1745.4119,
1820.830,1768.1065,
1817.919,1748.44,
1815.009,1730.5127,
1812.098,1773.3819,
1809.188,1746.6086,
1806.277,1788.5041,
1803.366,1799.2005,
1800.456,1780.0711,
1797.545,1757.6205,
1794.635,1776.307,
1791.724,1772.7231,
1788.813,1825.8954,
1785.903,1810.3275,
1782.992,1800.8666,
1780.082,1804.1783,
1777.171,1837.1611,
1774.261,1831.8303,
1771.350,1852.168,
1768.439,1850.1606,
1765.529,1871.8658,
1762.618,1890.3313,
1759.708,1873.0215,
1756.797,1871.9394,
1753.887,1896.2697,
1750.976,1874.9653,
1748.065,1885.3786,
1745.155,1933.5191,
1742.244,1925.3388,
1739.334,1948.1047,
1736.423,1942.5972,
1733.512,1935.6829,
1730.602,1976.8929,
1727.691,2005.0856,
1724.781,1993.7685,
1721.870,1981.4523,
1718.960,1995.9446,
1716.049,2022.9913,
1713.138,2057.4249,
1710.228,2039.002,
1707.317,2054.076,
1704.407,2059.1952,
1701.496,2073.1732,
1698.586,2080.9679,
1695.675,2092.7285,
1692.764,2104.8607,
1689.854,2170.5552,
1686.943,2144.5118,
1684.033,2217.6124,
1681.122,2204.7549,
1678.211,2238.1764,
1675.301,2277.3797,
1672.390,2312.6316,
1669.480,2357.1658,
1666.569,2439.8174,
1663.659,2465.8229,
1660.748,2545.7892,
1657.837,2560.9593,
1654.927,2583.5852,
1652.016,2670.3542,
1649.106,2666.9971,
1646.195,2767.8667,
1643.285,2825.2546,
1640.374,2900.1655,
1637.463,2886.1033,
1634.553,2974.9039,
1631.642,3070.0418,
1628.732,3211.4895,
1625.821,3377.568,
1622.911,3480.9139,
1620.000,3693.7913,
1617.089,3880.7587,
1614.179,4099.2676,
1611.268,4270.1426,
1608.358,4437.5869,
1605.447,4617.1014,
1602.536,4662.9117,
1599.626,4721.6159,
1596.715,4750.0976,
1593.805,4799.0053,
1590.894,4656.5474,
1587.984,4637.3661,
1585.073,4656.218,
1582.162,4589.3696,
1579.252,4566.4987,
1576.341,4575.7149,
1573.431,4529.16,
1570.520,4530.0232,
1567.610,4487.5581,
1564.699,4432.3484,
1561.788,4350.5992,
1558.878,4287.6791,
1555.967,4248.3767,
1553.057,4181.6385,
1550.146,4084.7438,
1547.235,4021.0676,
1544.325,3977.2234,
1541.414,3913.9156,
1538.504,3887.2346,
1535.593,3864.8244,
1532.683,3829.7436,
1529.772,3796.313,
1526.861,3718.2788,
1523.951,3654.4183,
1521.040,3646.9534,
1518.130,3627.1456,
1515.219,3544.3415,
1512.309,3492.7477,
1509.398,3489.6331,
1506.487,3469.5239,
1503.577,3436.9158,
1500.666,3405.3954,
1497.756,3407.0841,
1494.845,3342.0203,
1491.934,3354.3929,
1489.024,3321.6682,
1486.113,3277.8481,
1483.203,3226.5389,
1480.292,3222.197,
1477.382,3179.6628,
1474.471,3088.9252,
1471.560,3117.4736,
1468.650,3115.6352,
1465.739,3061.9467,
1462.829,3059.5822,
1459.918,3051.2954,
1457.008,3069.0543,
1454.097,3088.3245,
1451.186,3067.0048,
1448.276,3066.4518,
1445.365,3072.143,
1442.455,3057.3741,
1439.544,3030.6527,
1436.633,3078.1107,
1433.723,3038.8739,
1430.812,3036.6237,
1427.902,2975.0941,
1424.991,2958.0344,
1422.081,2911.6261,
1419.170,2974.0326,
1416.259,2916.4547,
1413.349,2866.5142,
1410.438,2857.5993,
1407.528,2854.6375,
1404.617,2874.2237,
1401.707,2872.5419,
1398.796,2867.4126,
1395.885,2880.1536,
1392.975,2897.0214,
1390.064,2916.4366,
1387.154,2871.227,
1384.243,2781.7765,
1381.332,2795.508,
1378.422,2786.0695,
1375.511,2913.4717,
1372.601,3096.1278,
1369.690,3247.7984,
1366.780,3337.823,
1363.869,3330.0733,
1360.958,3360.7732,
1358.048,3439.6446,
1355.137,3516.8236,
1352.227,3568.8008,
1349.316,3653.8791,
1346.406,3757.6511,
1343.495,3773.4756,
1340.584,3814.4986,
1337.674,3908.9656,
1334.763,3932.9932,
1331.853,4024.7891,
1328.942,4087.2046,
1326.032,4114.8905,
1323.121,4173.5904,
1320.210,4235.1189,
1317.300,4231.12,
1314.389,4272.5984,
1311.479,4332.432,
1308.568,4385.2724,
1305.657,4485.6717,
1302.747,4526.1175,
1299.836,4550.5591,
1296.926,4685.7384,
1294.015,4819.9597,
1291.105,4824.6195,
1288.194,4993.0348,
1285.283,5108.5323,
1282.373,5236.8512,
1279.462,5299.9901,
1276.552,5326.7993,
1273.641,5376.0356,
1270.731,5410.6776,
1267.820,5375.9481,
1264.909,5284.7863,
1261.999,5327.3709,
1259.088,5241.6316,
1256.178,5265.6195,
1253.267,5223.7011,
1250.356,5113.33,
1247.446,4950.7413,
1244.535,4865.5268,
1241.625,4808.0002,
1238.714,4699.1661,
1235.804,4615.3108,
1232.893,4538.1271,
1229.982,4523.5018,
1227.072,4375.9359,
1224.161,4349.5304,
1221.251,4253.4364,
1218.340,4171.6185,
1215.430,4117.5238,
1212.519,4066.0706,
1209.608,4029.7912,
1206.698,4019.8189,
1203.787,4000.5754,
1200.877,4038.1806,
1197.966,4113.7099,
1195.055,4180.6404,
1192.145,4313.2176,
1189.234,4420.3256,
1186.324,4522.5063,
1183.413,4566.0178,
1180.503,4558.2451,
1177.592,4570.3384,
1174.681,4553.3219,
1171.771,4460.3158,
1168.860,4365.6483,
1165.950,4352.4686,
1163.039,4305.4054,
1160.129,4225.3348,
1157.218,4180.6156,
1154.307,4164.1431,
1151.397,4118.2996,
1148.486,4050.7017,
1145.576,4038.5726,
1142.665,3994.177,
1139.754,3996.1954,
1136.844,3948.4788,
1133.933,3918.7024,
1131.023,3896.4487,
1128.112,3900.2826,
1125.202,3939.9831,
1122.291,3934.2304,
1119.380,3883.8551,
1116.470,3920.0388,
1113.559,3967.0287,
1110.649,3965.7482,
1107.738,3964.9298,
1104.828,3939.7086,
1101.917,3922.2407,
1099.006,3977.7166,
1096.096,3950.9838,
1093.185,3958.8858,
1090.275,3982.1596,
1087.364,3922.3183,
1084.453,3911.0613,
1081.543,3940.3995,
1078.632,3973.9161,
1075.722,4005.6881,
1072.811,4008.92,
1069.901,4042.9772,
1066.990,4017.2084,
1064.079,4048.6088,
1061.169,4109.5795,
1058.258,4129.678,
1055.348,4111.5577,
1052.437,4125.6833,
1049.527,4172.9364,
1046.616,4184.2311,
1043.705,4228.6628,
1040.795,4215.9598,
1037.884,4206.5574,
1034.974,4237.5696,
1032.063,4274.5849,
1029.153,4253.227,
1026.242,4259.2817,
1023.331,4301.164,
1020.421,4341.5667,
1017.510,4357.1808,
1014.600,4384.7217,
1011.689,4438.4594,
1008.778,4488.6314,
1005.868,4519.7896,
1002.957,4663.4688,
1000.047,4879.1481,
997.136,5024.9157,
994.226,5077.3923,
991.315,5047.1411,
988.404,4959.6112,
985.494,4876.1766,
982.583,4817.0742,
979.673,4736.7986,
976.762,4675.2739,
973.852,4668.1804,
970.941,4679.2375,
968.030,4657.0087,
965.120,4682.3496,
962.209,4646.5429,
959.299,4685.8279,
956.388,4705.6199,
953.477,4698.6905,
950.567,4701.3555,
947.656,4742.951,
944.746,4761.6413,
941.835,4750.3528,
938.925,4776.4542,
936.014,4792.0058,
933.103,4792.5,
930.193,4777.9177,
927.282,4716.0629,
924.372,4652.6423,
921.461,4651.1276,
918.551,4616.9012,
915.640,4588.8002,
912.729,4563.153,
909.819,4500.3896,
906.908,4507.129,
903.998,4497.9556,
901.087,4506.3206,
898.176,4551.63,
895.266,4593.8652,
892.355,4612.4466,
889.445,4719.0335,
886.534,4746.2159,
883.624,4775.0491,
880.713,4777.8239,
877.802,4770.5422,
874.892,4774.3385,
871.981,4781.7503,
869.071,4750.0046,
866.160,4756.2293,
863.250,4779.8471,
860.339,4796.142,
857.428,4771.2038,
854.518,4669.9925,
851.607,4721.5807,
848.697,4685.7919,
845.786,4695.6,
842.875,4721.4027,
839.965,4723.2477,
837.054,4749.5372,
834.144,4752.8522,
831.233,4754.8332,
828.323,4724.8365,
825.412,4688.9925,
822.501,4682.6277,
819.591,4699.9821,
816.680,4622.7755,
813.770,4572.8014,
810.859,4528.7793,
807.949,4490.3341,
805.038,4464.4314,
802.127,4405.9893,
799.217,4427.3341,
796.306,4418.3377,
793.396,4404.8893,
790.485,4394.5498,
787.574,4355.4617,
784.664,4407.1287,
781.753,4431.2616,
778.843,4438.5,
775.932,4428.315,
773.022,4419.7013,
770.111,4511.2701,
767.200,4446.6979,
764.290,4432.0124,
761.379,4444.9835,
758.469,4444.9903,
755.558,4401.3298,
752.648,4395.6276,
749.737,4363.8189,
746.826,4316.7294,
743.916,4225.0966,
741.005,4062.9014,
738.095,3915.9517,
735.184,3658.2399,
732.274,3612.4603,
729.363,3781.569,
726.452,4055.5893,
723.542,4216.6586,
720.631,4273.666,
717.721,4334.3276,
714.810,4378.3977,
711.899,4392.6188,
708.989,4384.5496,
706.078,4391.7117,
703.168,4357.0667,
700.257,4329.7869,
697.347,4314.5011,
694.436,4278.4782,
691.525,4277.6744,
688.615,4264.9218,
685.704,4263.112,
682.794,4270.0319,
679.883,4269.5092,
676.973,4291.9476,
674.062,4312.4521,
671.151,4310.5417,
668.241,4307.4594,
665.330,4340.4201,
662.420,4296.4899,
659.509,4265.9123,
656.598,4280.3305,
653.688,4333.9034,
650.777,4394.4199,
647.867,4362.5668,
644.956,4376.5511,
642.046,4360.4781,
639.135,4323.9018,
636.224,4340.5637,
633.314,4353.2667,
630.403,4375.4187,
627.493,4398.4859,
624.582,4419.7971,
621.672,4443.557,
618.761,4435.3807,
615.850,4458.3964,
612.940,4503.4074,
610.029,4543.45,
607.119,4507.127,
604.208,4509.1801,
601.297,4507.0133,
598.387,4509.9524,
595.476,4525.306,
592.566,4491.4621,
589.655,4498.4578,
586.745,4486.4054,
583.834,4453.1558,
580.923,4423.3484,
578.013,4398.2369,
575.102,4403.5454,
572.192,4435.7235,
569.281,4478.4842,
566.371,4483.9626,
563.460,4521.1843,
560.549,4536.9873,
557.639,4566.2363,
554.728,4641.9379,
551.818,4601.3615,
548.907,4629.0648,
545.996,4666.1076,
543.086,4690.1842,
540.175,4702.6425,
537.265,4723.0555,
534.354,4712.9408,
531.444,4709.1542,
528.533,4745.3277,
525.622,4756.9669,
522.712,4778.3094,
519.801,4816.4679,
516.891,4874.933,
513.980,4956.2341,
511.070,4998.013,
508.159,5050.2277,
505.248,5120.0413,
502.338,5206.2681,
499.427,5232.5104,
496.517,5279.6616,
493.606,5301.0782,
490.695,5283.3559,
487.785,5289.5142,
484.874,5299.5471,
481.964,5345.1973,
479.053,5388.7106,
476.143,5331.1134,
473.232,5292.2492,
470.321,5293.0973,
467.411,5298.8761,
464.500,5270.7133,
461.590,5279.1365,
458.679,5332.6774,
455.769,5353.7058,
452.858,5309.534,
449.947,5319.4651,
447.037,5389.4572,
444.126,5417.2333,
441.216,5382.0918,
438.305,5339.4237,
435.395,5318.4204,
432.484,5309.2497,
429.573,5314.2451,
426.663,5343.1304,
423.752,5312.7213,
420.842,5258.7683,
417.931,5237.3563,
415.020,5328.3592,
412.110,5373.9336,
409.199,5426.1748,
406.289,5472.6173,
403.378,5497.4923,
400.468,5495.2243,
397.557,5446.6841,
394.646,5389.1101,
391.736,5353.4235,
388.825,5288.5597,
385.915,5235.4396,
383.004,5244.3339,
380.094,5346.1067,
377.183,5436.4038,
374.272,5514.6925,
371.362,5589.5214,
368.451,5662.8221,
365.541,5684.5877,
362.630,5737.4767,
359.719,5769.3968,
356.809,5756.7591,
353.898,5827.1461,
350.988,5861.6896,
348.077,5879.7274,
345.167,5891.6296,
342.256,5874.4471,
339.345,5902.4488,
336.435,5933.1656,
333.524,5938.0872,
330.614,5956.7161,
327.703,5982.5228,
324.793,6013.1006,
321.882,6046.5379,
318.971,6062.1502,
316.061,6100.7054,
313.150,6152.8214,
310.240,6208.4801,
307.329,6276.2466,
304.418,6308.8833,
301.508,6311.1831,
298.597,6291.1918,
295.687,6317.9441,
292.776,6357.7501,
289.866,6450.5486,
286.955,6716.4898,
284.044,6998.0123,
281.134,7198.7461,
278.223,7333.5587,
275.313,7566.405,
272.402,7733.4233,
269.492,7879.9694,
266.581,8020.9081,
263.670,8138.5369,
260.760,8292.1258,
257.849,8433.835,
254.939,8526.3042,
252.028,8628.8383,
249.117,8706.7872,
246.207,8730.3919,
243.296,8641.0834,
240.386,8702.0231,
237.475,8693.0134,
234.565,8597.6788,
231.654,8465.4794,
228.743,8370.1819,
225.833,8265.3138,
222.922,8141.4705,
220.012,8183.7267,
217.101,8126.8369,
214.191,8031.644,
211.280,7958.8977,
208.369,7953.5,
205.459,7913.575,
202.548,7855.6309,
199.638,7867.967,
196.727,7868.7714,
193.816,7891.5818,
190.906,7947.1445,
187.995,7937.0081,
185.085,8000.1727,
182.174,8041.0039,
179.264,7917.4109,
176.353,7953.4808,
173.442,7966.9977,
170.532,7940.1559,
167.621,7928.6203,
164.711,7735.2445,
161.800,7495.4232,
158.890,7296.0587,
155.979,6840.7526,
153.068,6256.1097,
150.158,5565.7794,
147.247,4803.3141,
144.337,3962.1023,
141.426,3110.1157,
138.516,2277.0881,
135.605,1653.006,
132.694,1128.2583,
129.784,715.87727,
126.873,492.04163,
123.963,338.94574,
121.052,234.55357,
118.141,176.72751,
115.231,138.1292,
112.320,111.48547,
109.410,93.363829,
106.499,76.984259,
103.589,67.337201,
100.678,60.598648,
97.767,55.622085,
94.857,49.956088,
91.946,43.06578,
89.036,38.080571,
86.125,48.009445,
83.215,45.190796,
80.304,40.021135,
77.393,38.604795,
74.483,28.017841,
71.572,25.761169,
68.662,31.361465,
65.751,29.948563,
62.840,28.054894,
59.930,26.312714,
57.019,25.607632,
54.109,26.097161,
51.198,24.991954,
48.288,21.556624,
45.377,28.590405,
42.466,28.202245,
39.556,23.615119,
36.645,24.317309,
33.735,26.576994,
30.824,27.395565,
27.914,23.889689,
25.003,23.5,
22.092,22.854191,
19.182,21.957657,
16.271,35.94746,
13.361,162.03698,
10.450,383.38824,
7.539,708.10488,
4.629,846.71412,
1.718,760.22945,
-1.192,312.66265,
-4.103,116.95136,
-7.013,20.203463,
-9.924,3.5,
