,PL856E~1,
Raman shift [1/cm],Intensity,
3014.167,-0.625,
3011.256,-1.8250429,
3008.346,87.581181,
3005.435,104.8379,
3002.525,118.50755,
2999.614,112.56332,
2996.704,112.96778,
2993.793,120.10887,
2990.882,127.85594,
2987.972,118.48094,
2985.061,133.1681,
2982.151,136.82375,
2979.240,142.0727,
2976.329,144.60725,
2973.419,159.08283,
2970.508,166.94159,
2967.598,155.75733,
2964.687,168.6284,
2961.777,171.65702,
2958.866,175.37055,
2955.955,168.47457,
2953.045,170.84257,
2950.134,174.94934,
2947.224,181.02978,
2944.313,199.77956,
2941.403,199.72035,
2938.492,191.52405,
2935.581,195.78359,
2932.671,218.7698,
2929.760,196.11731,
2926.850,196.53177,
2923.939,222.45444,
2921.028,205.8807,
2918.118,211.97702,
2915.207,224.2547,
2912.297,219.38346,
2909.386,218.56478,
2906.476,220.01825,
2903.565,225.11722,
2900.654,235.05647,
2897.744,218.31214,
2894.833,216.26154,
2891.923,223.6186,
2889.012,219.75072,
2886.102,214.95879,
2883.191,217.37122,
2880.280,182.35107,
2877.370,159.74131,
2874.459,153.31216,
2871.549,174.25673,
2868.638,207.24096,
2865.727,225.97886,
2862.817,219.18917,
2859.906,218.83084,
2856.996,224.36594,
2854.085,249.2616,
2851.175,234.63705,
2848.264,227.02684,
2845.353,219.61224,
2842.443,221.19102,
2839.532,210.47946,
2836.622,211.16146,
2833.711,209.63403,
2830.801,224.26691,
2827.890,234.20716,
2824.979,221.31305,
2822.069,220.42049,
2819.158,227.79549,
2816.248,231.13368,
2813.337,232.87989,
2810.427,216.24277,
2807.516,225.26703,
2804.605,232.33173,
2801.695,218.71709,
2798.784,227.34008,
2795.874,227.52012,
2792.963,221.51777,
2790.052,229.37286,
2787.142,228.33542,
2784.231,219.50388,
2781.321,226.6893,
2778.410,227.64024,
2775.500,236.92637,
2772.589,248.41247,
2769.678,239.4091,
2766.768,229.33032,
2763.857,232.27096,
2760.947,244.38761,
2758.036,238.75075,
2755.126,246.75534,
2752.215,246.2477,
2749.304,240.8858,
2746.394,249.55037,
2743.483,260.825,
2740.573,235.53418,
2737.662,251.15163,
2734.751,250.375,
2731.841,237.88782,
2728.930,256.04871,
2726.020,257.81887,
2723.109,249.39575,
2720.199,245.25615,
2717.288,258.28741,
2714.377,252.15008,
2711.467,244.16181,
2708.556,251.02384,
2705.646,254.375,
2702.735,263.54768,
2699.825,264.48407,
2696.914,267.47047,
2694.003,262.53109,
2691.093,266.35695,
2688.182,262.90241,
2685.272,255.01227,
2682.361,265.13373,
2679.450,272.91408,
2676.540,258.65954,
2673.629,268.39296,
2670.719,261.01733,
2667.808,247.10453,
2664.898,273.99854,
2661.987,263.24164,
2659.076,267.61207,
2656.166,290.29283,
2653.255,279.55698,
2650.345,282.8868,
2647.434,278.66108,
2644.524,292.375,
2641.613,297.86086,
2638.702,272.81687,
2635.792,276.53153,
2632.881,279.57134,
2629.971,292.97237,
2627.060,288.54156,
2624.149,287.07813,
2621.239,292.6413,
2618.328,285.92603,
2615.418,301.36137,
2612.507,296.82563,
2609.597,291.28318,
2606.686,300.4794,
2603.775,291.57739,
2600.865,309.3136,
2597.954,309.0396,
2595.044,304.68767,
2592.133,305.70617,
2589.223,311.39922,
2586.312,310.54585,
2583.401,314.06844,
2580.491,314.47116,
2577.580,328.3552,
2574.670,312.77742,
2571.759,305.02654,
2568.848,320.36955,
2565.938,320.04162,
2563.027,325.64319,
2560.117,321.83294,
2557.206,334.83994,
2554.296,314.91962,
2551.385,319.74697,
2548.474,317.78244,
2545.564,336.77354,
2542.653,318.30117,
2539.743,325.81955,
2536.832,320.55817,
2533.922,331.42231,
2531.011,334.10002,
2528.100,334.44121,
2525.190,330.63156,
2522.279,326.79708,
2519.369,336.58247,
2516.458,333.25956,
2513.548,329.99316,
2510.637,337.94462,
2507.726,336.68356,
2504.816,348.93757,
2501.905,349.375,
2498.995,332.15135,
2496.084,340.08229,
2493.173,333.13825,
2490.263,348.13886,
2487.352,353.66713,
2484.442,358.09663,
2481.531,347.63569,
2478.621,375.62156,
2475.710,340.41334,
2472.799,347.10144,
2469.889,350.9207,
2466.978,358.03471,
2464.068,360.41732,
2461.157,357.64254,
2458.247,351.65443,
2455.336,356.67246,
2452.425,375.3137,
2449.515,367.12968,
2446.604,369.60538,
2443.694,380.8635,
2440.783,377.70721,
2437.872,377.15621,
2434.962,374.2644,
2432.051,383.83799,
2429.141,388.93378,
2426.230,381.02691,
2423.320,390.9609,
2420.409,393.58634,
2417.498,390.03228,
2414.588,380.46243,
2411.677,381.55429,
2408.767,385.36319,
2405.856,388.47259,
2402.946,385.1069,
2400.035,414.53935,
2397.124,398.83488,
2394.214,404.86021,
2391.303,383.72866,
2388.393,400.00994,
2385.482,394.99187,
2382.571,405.53953,
2379.661,408.23543,
2376.750,405.00804,
2373.840,394.8844,
2370.929,411.18007,
2368.019,394.85525,
2365.108,430.375,
2362.197,435.75037,
2359.287,432.98837,
2356.376,407.41727,
2353.466,425.79968,
2350.555,418.18996,
2347.645,412.82269,
2344.734,421.40728,
2341.823,439.12625,
2338.913,425.17055,
2336.002,443.29609,
2333.092,440.31746,
2330.181,435.83026,
2327.270,447.54992,
2324.360,440.08965,
2321.449,434.09951,
2318.539,442.67162,
2315.628,459.18036,
2312.718,465.07544,
2309.807,454.85319,
2306.896,459.86326,
2303.986,457.11528,
2301.075,458.14096,
2298.165,447.7979,
2295.254,435.59043,
2292.344,455.53267,
2289.433,457.71864,
2286.522,463.96872,
2283.612,458.40432,
2280.701,470.81891,
2277.791,474.61358,
2274.880,463.00887,
2271.969,492.01698,
2269.059,499.93358,
2266.148,502.56365,
2263.238,470.98892,
2260.327,490.75423,
2257.417,480.71445,
2254.506,485.89356,
2251.595,505.94225,
2248.685,498.32696,
2245.774,503.38583,
2242.864,489.15304,
2239.953,496.96127,
2237.043,486.54393,
2234.132,500.48923,
2231.221,504.69022,
2228.311,518.0322,
2225.400,514.62831,
2222.490,523.56067,
2219.579,522.66548,
2216.669,527.83446,
2213.758,529.85212,
2210.847,541.68984,
2207.937,556.88639,
2205.026,547.15226,
2202.116,572.64992,
2199.205,610.14959,
2196.294,602.63905,
2193.384,609.55853,
2190.473,631.1027,
2187.563,611.64568,
2184.652,662.10358,
2181.742,646.26309,
2178.831,665.3049,
2175.920,670.69013,
2173.010,698.97591,
2170.099,713.77381,
2167.189,718.15256,
2164.278,688.6956,
2161.368,706.65947,
2158.457,734.49314,
2155.546,734.57211,
2152.636,746.31113,
2149.725,763.19378,
2146.815,783.74099,
2143.904,766.68725,
2140.993,799.63422,
2138.083,804.53916,
2135.172,803.79523,
2132.262,818.38204,
2129.351,801.7404,
2126.441,787.42352,
2123.530,746.7005,
2120.619,763.95346,
2117.709,693.95713,
2114.798,692.54801,
2111.888,660.31351,
2108.977,652.99753,
2106.067,656.06636,
2103.156,628.85978,
2100.245,629.36935,
2097.335,614.11323,
2094.424,578.18833,
2091.514,605.08464,
2088.603,595.47639,
2085.692,586.87318,
2082.782,575.30677,
2079.871,574.01794,
2076.961,601.50224,
2074.050,589.76288,
2071.140,595.76593,
2068.229,589.27994,
2065.318,580.21323,
2062.408,583.47407,
2059.497,601.35713,
2056.587,597.50287,
2053.676,587.75898,
2050.766,576.14481,
2047.855,579.48892,
2044.944,579.51764,
2042.034,562.43291,
2039.123,586.67466,
2036.213,586.91279,
2033.302,597.35317,
2030.391,595.9345,
2027.481,581.21657,
2024.570,584.96051,
2021.660,572.26194,
2018.749,572.13481,
2015.839,592.3166,
2012.928,599.29446,
2010.017,594.25882,
2007.107,579.88715,
2004.196,587.47025,
2001.286,591.97924,
1998.375,602.813,
1995.465,572.76429,
1992.554,588.79243,
1989.643,540.24144,
1986.733,565.17763,
1983.822,573.30927,
1980.912,543.20724,
1978.001,563.5531,
1975.090,556.57805,
1972.180,541.85906,
1969.269,566.43548,
1966.359,583.40186,
1963.448,571.26139,
1960.538,551.52179,
1957.627,565.20783,
1954.716,565.43245,
1951.806,544.31888,
1948.895,564.79804,
1945.985,581.57925,
1943.074,572.8401,
1940.164,546.24034,
1937.253,547.54011,
1934.342,551.34933,
1931.432,528.16995,
1928.521,535.45445,
1925.611,544.49191,
1922.700,537.83495,
1919.790,533.79121,
1916.879,531.5145,
1913.968,572.32459,
1911.058,521.83746,
1908.147,526.78083,
1905.237,525.70594,
1902.326,553.88169,
1899.415,532.62379,
1896.505,533.9773,
1893.594,529.36894,
1890.684,538.27698,
1887.773,546.92643,
1884.863,558.56407,
1881.952,544.33266,
1879.041,538.88798,
1876.131,554.03382,
1873.220,546.91478,
1870.310,542.59025,
1867.399,529.58292,
1864.489,542.06345,
1861.578,535.68259,
1858.667,550.42888,
1855.757,550.21868,
1852.846,513.93906,
1849.936,552.28191,
1847.025,568.8397,
1844.114,578.07376,
1841.204,550.5708,
1838.293,546.37833,
1835.383,559.13049,
1832.472,573.74717,
1829.562,577.29141,
1826.651,579.05878,
1823.740,550.98414,
1820.830,571.24141,
1817.919,603.17754,
1815.009,610.9437,
1812.098,606.88681,
1809.188,563.22781,
1806.277,557.4414,
1803.366,584.90919,
1800.456,560.4526,
1797.545,610.70138,
1794.635,588.76107,
1791.724,616.39444,
1788.813,608.77809,
1785.903,610.16769,
1782.992,580.96069,
1780.082,573.47121,
1777.171,569.70744,
1774.261,568.20004,
1771.350,581.6645,
1768.439,605.46124,
1765.529,608.64627,
1762.618,616.76753,
1759.708,618.51614,
1756.797,617.97349,
1753.887,613.88666,
1750.976,629.85797,
1748.065,641.15841,
1745.155,621.96219,
1742.244,624.30705,
1739.334,615.68089,
1736.423,641.16935,
1733.512,662.37909,
1730.602,663.13095,
1727.691,662.375,
1724.781,634.05824,
1721.870,655.3466,
1718.960,660.73054,
1716.049,651.98525,
1713.138,713.64469,
1710.228,686.08193,
1707.317,700.72014,
1704.407,733.02211,
1701.496,678.94749,
1698.586,690.00672,
1695.675,743.77468,
1692.764,690.57169,
1689.854,717.0325,
1686.943,779.25029,
1684.033,748.21943,
1681.122,788.66132,
1678.211,740.84135,
1675.301,796.20233,
1672.390,781.41089,
1669.480,794.11302,
1666.569,884.52438,
1663.659,819.20795,
1660.748,869.68351,
1657.837,885.09069,
1654.927,873.87446,
1652.016,935.76752,
1649.106,911.93806,
1646.195,934.90248,
1643.285,957.67383,
1640.374,1013.9813,
1637.463,1042.9335,
1634.553,1074.5425,
1631.642,1152.4944,
1628.732,1163.8194,
1625.821,1238.3999,
1622.911,1276.1609,
1620.000,1351.4175,
1617.089,1406.2805,
1614.179,1486.0907,
1611.268,1601.0252,
1608.358,1650.1743,
1605.447,1675.9466,
1602.536,1736.0839,
1599.626,1757.8537,
1596.715,1690.3973,
1593.805,1737.0349,
1590.894,1724.8809,
1587.984,1759.617,
1585.073,1715.1768,
1582.162,1681.3284,
1579.252,1622.3671,
1576.341,1616.7835,
1573.431,1596.4461,
1570.520,1588.0819,
1567.610,1611.9636,
1564.699,1538.4466,
1561.788,1500.3328,
1558.878,1455.0437,
1555.967,1467.0869,
1553.057,1446.3754,
1550.146,1424.7605,
1547.235,1393.0877,
1544.325,1366.2852,
1541.414,1358.5946,
1538.504,1354.8612,
1535.593,1365.0871,
1532.683,1373.1592,
1529.772,1366.7875,
1526.861,1361.7657,
1523.951,1383.6018,
1521.040,1402.1079,
1518.130,1374.3312,
1515.219,1398.1357,
1512.309,1375.366,
1509.398,1380.3084,
1506.487,1371.801,
1503.577,1306.6653,
1500.666,1332.4503,
1497.756,1288.0354,
1494.845,1226.4967,
1491.934,1301.3152,
1489.024,1283.0278,
1486.113,1239.7231,
1483.203,1219.4998,
1480.292,1215.678,
1477.382,1238.0059,
1474.471,1185.0542,
1471.560,1132.543,
1468.650,1124.8412,
1465.739,1132.4989,
1462.829,1151.4891,
1459.918,1142.4853,
1457.008,1120.7903,
1454.097,1132.937,
1451.186,1152.9591,
1448.276,1136.1404,
1445.365,1089.0859,
1442.455,1062.3143,
1439.544,1096.6829,
1436.633,1082.1317,
1433.723,1060.8644,
1430.812,1081.607,
1427.902,1035.6152,
1424.991,1087.7422,
1422.081,1067.3555,
1419.170,1088.7046,
1416.259,1091.5649,
1413.349,1119.3189,
1410.438,1102.4832,
1407.528,1088.1563,
1404.617,1070.5225,
1401.707,1047.7163,
1398.796,1042.0953,
1395.885,1028.7725,
1392.975,967.31104,
1390.064,884.2449,
1387.154,811.73767,
1384.243,712.82113,
1381.332,660.91629,
1378.422,694.83347,
1375.511,800.68972,
1372.601,922.17914,
1369.690,988.95168,
1366.780,1019.7599,
1363.869,1061.6989,
1360.958,1101.1234,
1358.048,1089.4559,
1355.137,1130.2002,
1352.227,1216.2314,
1349.316,1243.9325,
1346.406,1212.5605,
1343.495,1210.0458,
1340.584,1279.982,
1337.674,1287.1606,
1334.763,1287.1745,
1331.853,1334.4633,
1328.942,1326.5909,
1326.032,1402.0433,
1323.121,1395.6641,
1320.210,1378.718,
1317.300,1403.8866,
1314.389,1452.6394,
1311.479,1464.0839,
1308.568,1437.5504,
1305.657,1414.4177,
1302.747,1396.4845,
1299.836,1439.2006,
1296.926,1460.9987,
1294.015,1495.933,
1291.105,1584.5486,
1288.194,1663.4694,
1285.283,1728.3472,
1282.373,1767.6249,
1279.462,1769.4928,
1276.552,1794.824,
1273.641,1810.219,
1270.731,1775.3153,
1267.820,1774.0654,
1264.909,1746.2435,
1261.999,1772.8438,
1259.088,1730.8862,
1256.178,1724.9492,
1253.267,1720.539,
1250.356,1699.0574,
1247.446,1677.6405,
1244.535,1660.4554,
1241.625,1631.1899,
1238.714,1596.7046,
1235.804,1583.7537,
1232.893,1573.6262,
1229.982,1567.8844,
1227.072,1553.3994,
1224.161,1523.7979,
1221.251,1450.6247,
1218.340,1381.3804,
1215.430,1372.3405,
1212.519,1391.2609,
1209.608,1390.5787,
1206.698,1382.5028,
1203.787,1398.8172,
1200.877,1392.6596,
1197.966,1429.5251,
1195.055,1489.3959,
1192.145,1505.3857,
1189.234,1564.4687,
1186.324,1608.4672,
1183.413,1648.9639,
1180.503,1688.3985,
1177.592,1675.415,
1174.681,1624.8236,
1171.771,1662.9726,
1168.860,1688.8722,
1165.950,1652.6731,
1163.039,1630.8037,
1160.129,1598.8315,
1157.218,1615.4687,
1154.307,1641.5022,
1151.397,1617.7255,
1148.486,1599.2827,
1145.576,1554.2616,
1142.665,1574.6836,
1139.754,1606.4793,
1136.844,1611.9744,
1133.933,1584.9822,
1131.023,1538.0492,
1128.112,1518.159,
1125.202,1537.6842,
1122.291,1529.3669,
1119.380,1508.5222,
1116.470,1523.5252,
1113.559,1493.6718,
1110.649,1480.4459,
1107.738,1460.1572,
1104.828,1453.9453,
1101.917,1472.9965,
1099.006,1479.7154,
1096.096,1451.654,
1093.185,1505.2121,
1090.275,1520.7048,
1087.364,1554.9367,
1084.453,1587.9363,
1081.543,1607.6337,
1078.632,1607.4803,
1075.722,1597.2646,
1072.811,1616.3893,
1069.901,1588.445,
1066.990,1570.2084,
1064.079,1556.8478,
1061.169,1545.1951,
1058.258,1547.4212,
1055.348,1562.4904,
1052.437,1567.6193,
1049.527,1542.8044,
1046.616,1528.0343,
1043.705,1525.6042,
1040.795,1518.99,
1037.884,1549.7652,
1034.974,1550.9742,
1032.063,1505.9131,
1029.153,1538.4522,
1026.242,1555.7514,
1023.331,1557.2083,
1020.421,1561.5576,
1017.510,1560.0133,
1014.600,1568.7941,
1011.689,1589.7913,
1008.778,1612.9047,
1005.868,1668.4136,
1002.957,1672.7154,
1000.047,1750.543,
997.136,1782.3116,
994.226,1787.498,
991.315,1763.0607,
988.404,1697.078,
985.494,1689.7804,
982.583,1663.2272,
979.673,1635.9623,
976.762,1642.0526,
973.852,1647.5129,
970.941,1641.375,
968.030,1638.9703,
965.120,1625.4502,
962.209,1643.3536,
959.299,1640.709,
956.388,1672.5328,
953.477,1676.7685,
950.567,1645.1593,
947.656,1652.6113,
944.746,1692.5404,
941.835,1712.1909,
938.925,1709.7945,
936.014,1717.5032,
933.103,1727.6688,
930.193,1731.3689,
927.282,1749.6335,
924.372,1717.5005,
921.461,1684.6554,
918.551,1681.9271,
915.640,1669.1024,
912.729,1640.8864,
909.819,1630.263,
906.908,1621.8387,
903.998,1597.5141,
901.087,1595.8305,
898.176,1591.6943,
895.266,1592.31,
892.355,1620.5262,
889.445,1680.1142,
886.534,1671.1914,
883.624,1661.9738,
880.713,1675.7271,
877.802,1689.2485,
874.892,1673.4473,
871.981,1629.2369,
869.071,1623.389,
866.160,1641.0039,
863.250,1646.2298,
860.339,1645.1649,
857.428,1644.5488,
854.518,1628.8564,
851.607,1645.4978,
848.697,1647.6872,
845.786,1636.4767,
842.875,1640.7065,
839.965,1665.7584,
837.054,1658.8588,
834.144,1701.9539,
831.233,1725.7072,
828.323,1721.0107,
825.412,1702.2577,
822.501,1690.1197,
819.591,1694.2517,
816.680,1663.1249,
813.770,1658.5075,
810.859,1659.0213,
807.949,1653.5164,
805.038,1644.271,
802.127,1651.6792,
799.217,1619.5778,
796.306,1600.9966,
793.396,1587.5887,
790.485,1580.4289,
787.574,1601.0253,
784.664,1644.4912,
781.753,1664.4527,
778.843,1678.7064,
775.932,1683.3627,
773.022,1673.6142,
770.111,1668.7087,
767.200,1649.3422,
764.290,1658.3998,
761.379,1652.0448,
758.469,1614.9117,
755.558,1574.4511,
752.648,1543.4962,
749.737,1526.9304,
746.826,1462.6311,
743.916,1351.2575,
741.005,1203.811,
738.095,906.66407,
735.184,588.21136,
732.274,510.61013,
729.363,717.21484,
726.452,1116.8992,
723.542,1418.8029,
720.631,1483.541,
717.721,1559.6695,
714.810,1632.0226,
711.899,1663.8997,
708.989,1614.6773,
706.078,1640.818,
703.168,1639.4811,
700.257,1612.5087,
697.347,1586.1571,
694.436,1603.2877,
691.525,1600.0725,
688.615,1620.758,
685.704,1634.6701,
682.794,1636.8431,
679.883,1639.7807,
676.973,1671.0341,
674.062,1649.2994,
671.151,1628.5534,
668.241,1627.14,
665.330,1642.2616,
662.420,1639.8654,
659.509,1641.9147,
656.598,1664.5797,
653.688,1707.5578,
650.777,1758.78,
647.867,1770.725,
644.956,1765.9452,
642.046,1728.6217,
639.135,1681.1173,
636.224,1676.4029,
633.314,1681.9604,
630.403,1688.1047,
627.493,1676.012,
624.582,1650.6687,
621.672,1647.5007,
618.761,1639.7756,
615.850,1631.3141,
612.940,1640.0364,
610.029,1666.375,
607.119,1666.375,
604.208,1626.6143,
601.297,1593.4254,
598.387,1590.42,
595.476,1620.9925,
592.566,1574.5555,
589.655,1563.7834,
586.745,1544.1483,
583.834,1520.375,
580.923,1520.157,
578.013,1484.0592,
575.102,1494.4506,
572.192,1545.4607,
569.281,1616.2802,
566.371,1649.1504,
563.460,1650.2586,
560.549,1666.917,
557.639,1682.1522,
554.728,1676.9718,
551.818,1733.9349,
548.907,1721.3891,
545.996,1707.7077,
543.086,1717.75,
540.175,1747.3385,
537.265,1717.5067,
534.354,1721.9308,
531.444,1729.1793,
528.533,1706.2579,
525.622,1718.6731,
522.712,1695.8914,
519.801,1695.414,
516.891,1726.8527,
513.980,1753.953,
511.070,1747.9228,
508.159,1745.3301,
505.248,1754.3866,
502.338,1778.3524,
499.427,1777.5806,
496.517,1772.8498,
493.606,1774.0859,
490.695,1779.6305,
487.785,1752.6879,
484.874,1797.488,
481.964,1812.3319,
479.053,1787.653,
476.143,1755.3985,
473.232,1764.8855,
470.321,1749.4254,
467.411,1738.5054,
464.500,1768.375,
461.590,1768.375,
458.679,1789.2862,
455.769,1801.0189,
452.858,1787.7048,
449.947,1771.6622,
447.037,1781.117,
444.126,1799.3568,
441.216,1812.9355,
438.305,1793.1253,
435.395,1791.0306,
432.484,1793.042,
429.573,1787.0324,
426.663,1751.3058,
423.752,1728.1498,
420.842,1722.5718,
417.931,1730.4689,
415.020,1744.8777,
412.110,1840.4847,
409.199,1878.798,
406.289,1871.5519,
403.378,1838.4006,
400.468,1845.9606,
397.557,1855.0589,
394.646,1818.0104,
391.736,1698.7814,
388.825,1649.0022,
385.915,1578.4947,
383.004,1558.5004,
380.094,1634.4461,
377.183,1694.6442,
374.272,1794.9632,
371.362,1888.3325,
368.451,1942.0073,
365.541,1919.4912,
362.630,1936.8633,
359.719,1959.6306,
356.809,1965.5626,
353.898,1935.6107,
350.988,1930.0874,
348.077,1935.8599,
345.167,1946.4941,
342.256,1988.3299,
339.345,1957.8604,
336.435,1936.4754,
333.524,1978.0462,
330.614,1967.614,
327.703,1974.1297,
324.793,1992.6555,
321.882,2019.3389,
318.971,2004.4701,
316.061,2041.37,
313.150,2088.8393,
310.240,2099.971,
307.329,2103.2335,
304.418,2096.6238,
301.508,2061.7749,
298.597,1965.5207,
295.687,1884.233,
292.776,1898.1253,
289.866,2012.6151,
286.955,2232.0166,
284.044,2393.6699,
281.134,2575.6476,
278.223,2763.0574,
275.313,2808.7424,
272.402,2906.6723,
269.492,3003.6445,
266.581,3079.001,
263.670,3129.7284,
260.760,3179.8971,
257.849,3216.9943,
254.939,3230.2042,
252.028,3286.1111,
249.117,3281.3358,
246.207,3235.4115,
243.296,3177.5806,
240.386,3164.8451,
237.475,3116.8093,
234.565,3046.4103,
231.654,3052.9838,
228.743,3015.25,
225.833,2982.1065,
222.922,2971.6955,
220.012,2957.1244,
217.101,2929.3114,
214.191,2893.7913,
211.280,2855.2358,
208.369,2822.7712,
205.459,2776.435,
202.548,2727.2469,
199.638,2720.716,
196.727,2726.8658,
193.816,2712.2065,
190.906,2664.7147,
187.995,2645.8901,
185.085,2653.5607,
182.174,2673.4886,
179.264,2688.6666,
176.353,2647.4428,
173.442,2626.2755,
170.532,2626.4186,
167.621,2583.881,
164.711,2551.8779,
161.800,2490.1204,
158.890,2363.4484,
155.979,2286.8497,
153.068,2106.2513,
150.158,1847.3106,
147.247,1611.8223,
144.337,1325.7241,
141.426,1038.9526,
138.516,774.41975,
135.605,559.70022,
132.694,380.4071,
129.784,239.62622,
126.873,158.81655,
123.963,110.50707,
121.052,75.043431,
118.141,46.487351,
115.231,43.532719,
112.320,39.409549,
109.410,34.693224,
106.499,31.132448,
103.589,23.651946,
100.678,19.461487,
97.767,22.305237,
94.857,26.532934,
91.946,25.150113,
89.036,19.020225,
86.125,10.509762,
83.215,15.807885,
80.304,18.304644,
77.393,6.2657554,
74.483,8.6506748,
71.572,9.2879437,
68.662,7.790605,
65.751,12.029311,
62.840,10.96649,
59.930,8.7495724,
57.019,10.159736,
54.109,12.763643,
51.198,14.676609,
48.288,15.335363,
45.377,10.411716,
42.466,12.497193,
39.556,18.259881,
36.645,17.557691,
33.735,16.855752,
30.824,15.491452,
27.914,12.686751,
25.003,17.978737,
22.092,27.187282,
19.182,40.1759,
16.271,64.658055,
13.361,222.30675,
10.450,552.41557,
7.539,1290.5349,
4.629,1910.9247,
1.718,2203.1145,
-1.192,1846.8736,
-4.103,1112.8855,
-7.013,465.28806,
-9.924,0.375,
