,PL9BEC~1,
Raman shift [1/cm],Intensity,
3014.167,-3.375,
3011.256,-0.67506442,
3008.346,81.739886,
3005.435,94.66387,
3002.525,95.832494,
2999.614,104.96135,
2996.704,100.30644,
2993.793,106.8727,
2990.882,109.75476,
2987.972,96.66536,
2985.061,106.3984,
2982.151,128.88048,
2979.240,127.37309,
2976.329,133.11681,
2973.419,132.70202,
2970.508,141.57493,
2967.598,150.24267,
2964.687,145.49049,
2961.777,139.56508,
2958.866,157.62055,
2955.955,153.75997,
2953.045,148.37669,
2950.134,157.59292,
2947.224,158.30825,
2944.313,181.17557,
2941.403,175.41058,
2938.492,183.16699,
2935.581,168.21641,
2932.671,185.46621,
2929.760,182.53652,
2926.850,173.67726,
2923.939,195.22312,
2921.028,193.14844,
2918.118,212.54439,
2915.207,205.27054,
2912.297,202.62923,
2909.386,195.22354,
2906.476,201.88061,
2903.565,196.72129,
2900.654,205.84846,
2897.744,192.58728,
2894.833,192.92391,
2891.923,198.4359,
2889.012,188.95448,
2886.102,196.18852,
2883.191,184.63255,
2880.280,161.73983,
2877.370,142.42154,
2874.459,129.38606,
2871.549,151.76991,
2868.638,186.49096,
2865.727,206.1019,
2862.817,202.78143,
2859.906,201.99252,
2856.996,208.64311,
2854.085,207.26576,
2851.175,208.625,
2848.264,209.90933,
2845.353,197.79754,
2842.443,195.64241,
2839.532,199.25175,
2836.622,187.92839,
2833.711,195.93584,
2830.801,195.33015,
2827.890,194.9799,
2824.979,194.77303,
2822.069,193.96616,
2819.158,212.60343,
2816.248,199.10763,
2813.337,212.26403,
2810.427,204.01481,
2807.516,207.46672,
2804.605,219.64664,
2801.695,214.00656,
2798.784,219.59008,
2795.874,210.2002,
2792.963,195.69617,
2790.052,217.61899,
2787.142,203.40135,
2784.231,206.625,
2781.321,208.49928,
2778.410,202.89024,
2775.500,206.04948,
2772.589,200.20222,
2769.678,209.73078,
2766.768,209.94344,
2763.857,213.783,
2760.947,217.14076,
2758.036,210.30647,
2755.126,208.14637,
2752.215,216.7523,
2749.304,216.0081,
2746.394,212.37698,
2743.483,229.22497,
2740.573,221.31742,
2737.662,233.93418,
2734.751,219.85798,
2731.841,225.19277,
2728.930,233.70558,
2726.020,225.2934,
2723.109,229.28475,
2720.199,226.64367,
2717.288,232.18704,
2714.377,231.9791,
2711.467,217.36237,
2708.556,236.27384,
2705.646,235.39964,
2702.735,230.80284,
2699.825,243.58137,
2696.914,239.14863,
2694.003,237.85427,
2691.093,229.9463,
2688.182,236.55315,
2685.272,238.14705,
2682.361,229.47216,
2679.450,243.02822,
2676.540,252.34046,
2673.629,237.62949,
2670.719,247.82926,
2667.808,243.20863,
2664.898,246.06664,
2661.987,242.19168,
2659.076,248.73491,
2656.166,250.78523,
2653.255,248.21344,
2650.345,254.92083,
2647.434,253.82534,
2644.524,266.23891,
2641.613,262.19634,
2638.702,270.46719,
2635.792,261.09459,
2632.881,253.47026,
2629.971,266.58482,
2627.060,264.12344,
2624.149,272.03126,
2621.239,265.12204,
2618.328,262.41306,
2615.418,261.275,
2612.507,271.1072,
2609.597,269.90045,
2606.686,279.7033,
2603.775,270.0258,
2600.865,275.68303,
2597.954,275.09795,
2595.044,265.94652,
2592.133,274.12824,
2589.223,277.625,
2586.312,284.57477,
2583.401,272.82937,
2580.491,278.61055,
2577.580,290.61015,
2574.670,279.96458,
2571.759,278.92808,
2568.848,282.44821,
2565.938,286.67269,
2563.027,280.91816,
2560.117,291.07361,
2557.206,301.76153,
2554.296,290.05749,
2551.385,300.05493,
2548.474,287.40269,
2545.564,298.21348,
2542.653,285.16191,
2539.743,293.00794,
2536.832,304.13528,
2533.922,285.92462,
2531.011,303.80007,
2528.100,304.82362,
2525.190,301.30041,
2522.279,307.85949,
2519.369,309.30445,
2516.458,303.29285,
2513.548,290.87065,
2510.637,290.60872,
2507.726,305.625,
2504.816,308.43785,
2501.905,304.13232,
2498.995,294.92359,
2496.084,304.53095,
2493.173,316.17765,
2490.263,323.00693,
2487.352,324.1242,
2484.442,312.3402,
2481.531,317.94409,
2478.621,318.25057,
2475.710,325.70935,
2472.799,334.65193,
2469.889,317.96016,
2466.978,313.11978,
2464.068,318.49803,
2461.157,322.4325,
2458.247,321.625,
2455.336,333.49586,
2452.425,337.84198,
2449.515,328.2196,
2446.604,340.6826,
2443.694,339.71792,
2440.783,333.57658,
2437.872,342.77086,
2434.962,340.84621,
2432.051,331.45229,
2429.141,340.76027,
2426.230,343.49462,
2423.320,352.85405,
2420.409,342.83634,
2417.498,350.65027,
2414.588,344.625,
2411.677,349.98358,
2408.767,359.37205,
2405.856,362.84641,
2402.946,355.98783,
2400.035,361.41374,
2397.124,354.08488,
2394.214,363.3542,
2391.303,353.26592,
2388.393,362.80875,
2385.482,350.41811,
2382.571,356.63781,
2379.661,355.34586,
2376.750,365.09788,
2373.840,366.05626,
2370.929,378.48421,
2368.019,356.86513,
2365.108,382.92605,
2362.197,386.06879,
2359.287,388.40662,
2356.376,371.65846,
2353.466,377.85277,
2350.555,372.60007,
2347.645,375.03295,
2344.734,373.83698,
2341.823,395.26017,
2338.913,387.86829,
2336.002,384.35475,
2333.092,377.63634,
2330.181,389.90632,
2327.270,396.34997,
2324.360,410.26419,
2321.449,395.41073,
2318.539,402.47514,
2315.628,408.8764,
2312.718,419.0413,
2309.807,394.85464,
2306.896,411.12109,
2303.986,407.44966,
2301.075,411.41221,
2298.165,418.01928,
2295.254,411.7758,
2292.344,418.83663,
2289.433,410.93,
2286.522,428.78105,
2283.612,423.64282,
2280.701,436.58907,
2277.791,403.9456,
2274.880,413.55096,
2271.969,426.8143,
2269.059,436.625,
2266.148,437.35455,
2263.238,431.32771,
2260.327,440.21142,
2257.417,453.32223,
2254.506,435.92988,
2251.595,440.49051,
2248.685,433.625,
2245.774,437.22933,
2242.864,442.79206,
2239.953,454.84578,
2237.043,439.01464,
2234.132,446.23276,
2231.221,485.0231,
2228.311,489.92656,
2225.400,466.51242,
2222.490,468.38083,
2219.579,490.54786,
2216.669,480.14646,
2213.758,489.97534,
2210.847,504.07335,
2207.937,514.25854,
2205.026,503.7352,
2202.116,531.50928,
2199.205,541.27488,
2196.294,535.19502,
2193.384,561.30805,
2190.473,593.50059,
2187.563,585.6395,
2184.652,591.63724,
2181.742,613.64835,
2178.831,611.5549,
2175.920,612.2771,
2173.010,640.12613,
2170.099,642.15873,
2167.189,656.47431,
2164.278,636.65214,
2161.368,646.05316,
2158.457,669.02832,
2155.546,679.65575,
2152.636,676.10903,
2149.725,704.25585,
2146.815,688.35912,
2143.904,693.53576,
2140.993,716.59858,
2138.083,703.70708,
2135.172,708.54103,
2132.262,715.4956,
2129.351,703.8077,
2126.441,705.04249,
2123.530,703.15359,
2120.619,662.03783,
2117.709,656.187,
2114.798,627.57494,
2111.888,603.7382,
2108.977,577.81705,
2106.067,551.1488,
2103.156,538.46615,
2100.245,529.64257,
2097.335,548.71402,
2094.424,496.31052,
2091.514,535.55241,
2088.603,528.87848,
2085.692,505.30169,
2082.782,513.12287,
2079.871,522.44647,
2076.961,538.52718,
2074.050,513.01288,
2071.140,519.65956,
2068.229,518.97916,
2065.318,520.67349,
2062.408,512.01153,
2059.497,521.42857,
2056.587,514.8228,
2053.676,520.60778,
2050.766,493.08838,
2047.855,500.25477,
2044.944,487.49199,
2042.034,492.54994,
2039.123,507.88426,
2036.213,505.48947,
2033.302,504.55989,
2030.391,497.98095,
2027.481,511.01512,
2024.570,513.0965,
2021.660,484.39888,
2018.749,498.46079,
2015.839,517.06922,
2012.928,506.60151,
2010.017,516.88558,
2007.107,488.25115,
2004.196,491.9822,
2001.286,504.81228,
1998.375,501.5374,
1995.465,476.24018,
1992.554,503.80706,
1989.643,471.93842,
1986.733,466.0329,
1983.822,500.02013,
1980.912,448.30822,
1978.001,458.4636,
1975.090,472.43721,
1972.180,457.00534,
1969.269,468.83485,
1966.359,483.38171,
1963.448,477.97242,
1960.538,449.03367,
1957.627,455.10798,
1954.716,470.22282,
1951.806,422.82371,
1948.895,427.5177,
1945.985,438.11847,
1943.074,458.42938,
1940.164,463.84611,
1937.253,449.86436,
1934.342,444.702,
1931.432,430.53351,
1928.521,430.50929,
1925.611,436.02114,
1922.700,414.83909,
1919.790,432.01781,
1916.879,424.46199,
1913.968,441.60287,
1911.058,373.76917,
1908.147,451.59135,
1905.237,402.15447,
1902.326,424.53911,
1899.415,396.35551,
1896.505,412.61274,
1893.594,385.07927,
1890.684,400.08242,
1887.773,414.78014,
1884.863,403.50655,
1881.952,416.8523,
1879.041,418.81659,
1876.131,397.07991,
1873.220,386.52321,
1870.310,390.26625,
1867.399,405.3851,
1864.489,417.58606,
1861.578,419.33358,
1858.667,442.54418,
1855.757,419.04505,
1852.846,404.41472,
1849.936,414.32372,
1847.025,401.26488,
1844.114,419.94495,
1841.204,410.45017,
1838.293,422.62666,
1835.383,427.63649,
1832.472,451.00935,
1829.562,439.98932,
1826.651,436.19788,
1823.740,403.49849,
1820.830,421.26307,
1817.919,455.05629,
1815.009,466.61864,
1812.098,441.59352,
1809.188,448.00482,
1806.277,467.20449,
1803.366,405.74145,
1800.456,415.92243,
1797.545,467.00117,
1794.635,416.14007,
1791.724,446.625,
1788.813,453.03323,
1785.903,470.1832,
1782.992,437.79637,
1780.082,417.69596,
1777.171,412.6309,
1774.261,441.56014,
1771.350,458.374,
1768.439,464.77382,
1765.529,454.53238,
1762.618,478.89319,
1759.708,494.14651,
1756.797,477.46591,
1753.887,482.18914,
1750.976,490.29057,
1748.065,488.86617,
1745.155,476.96054,
1742.244,490.50269,
1739.334,483.87677,
1736.423,476.625,
1733.512,484.62909,
1730.602,510.06551,
1727.691,486.91858,
1724.781,492.56995,
1721.870,489.3821,
1718.960,497.49179,
1716.049,512.20962,
1713.138,512.06001,
1710.228,508.14381,
1707.317,516.47071,
1704.407,549.9673,
1701.496,510.78225,
1698.586,481.67742,
1695.675,561.96736,
1692.764,529.75613,
1689.854,541.01871,
1686.943,559.98421,
1684.033,545.02238,
1681.122,579.03027,
1678.211,562.7868,
1675.301,580.5695,
1672.390,612.69379,
1669.480,635.82555,
1666.569,660.44726,
1663.659,647.35996,
1660.748,691.29721,
1657.837,674.73435,
1654.927,681.12446,
1652.016,743.40631,
1649.106,734.57604,
1646.195,733.24839,
1643.285,759.58204,
1640.374,801.3567,
1637.463,835.58897,
1634.553,834.91067,
1631.642,920.78787,
1628.732,936.20569,
1625.821,1033.661,
1622.911,1088.3151,
1620.000,1098.499,
1617.089,1181.9335,
1614.179,1291.4947,
1611.268,1324.4725,
1608.358,1428.5681,
1605.447,1455.3109,
1602.536,1427.7365,
1599.626,1504.7392,
1596.715,1488.935,
1593.805,1508.9833,
1590.894,1507.2216,
1587.984,1442.5342,
1585.073,1439.4315,
1582.162,1411.404,
1579.252,1371.2564,
1576.341,1359.6197,
1573.431,1350.0101,
1570.520,1343.8031,
1567.610,1335.919,
1564.699,1279.2478,
1561.788,1243.8364,
1558.878,1206.9007,
1555.967,1180.0724,
1553.057,1143.0046,
1550.146,1121.3232,
1547.235,1071.3989,
1544.325,1052.7633,
1541.414,1058.2244,
1538.504,1057.7354,
1535.593,1062.1119,
1532.683,1075.0286,
1529.772,1074.5315,
1526.861,1065.0855,
1523.951,1078.7614,
1521.040,1073.227,
1518.130,1078.9074,
1515.219,1104.7048,
1512.309,1106.9268,
1509.398,1085.3285,
1506.487,1066.5464,
1503.577,1050.2737,
1500.666,1033.2673,
1497.756,1006.5487,
1494.845,1005.3849,
1491.934,999.51791,
1489.024,966.79315,
1486.113,973.96994,
1483.203,972.84866,
1480.292,897.10748,
1477.382,875.54252,
1474.471,904.32016,
1471.560,896.93468,
1468.650,851.6784,
1465.739,822.09618,
1462.829,836.51361,
1459.918,846.75756,
1457.008,851.24048,
1454.097,850.30615,
1451.186,826.06988,
1448.276,791.60417,
1445.365,778.87697,
1442.455,803.71828,
1439.544,798.32433,
1436.633,765.60514,
1433.723,743.63405,
1430.812,724.10265,
1427.902,741.92596,
1424.991,712.54532,
1422.081,727.22211,
1419.170,694.92665,
1416.259,734.17847,
1413.349,774.0794,
1410.438,729.74197,
1407.528,713.06242,
1404.617,702.53392,
1401.707,659.23875,
1398.796,660.77876,
1395.885,673.71537,
1392.975,626.68684,
1390.064,572.90303,
1387.154,493.06285,
1384.243,413.38135,
1381.332,362.03958,
1378.422,424.23347,
1375.511,474.81964,
1372.601,576.99774,
1369.690,674.77614,
1366.780,703.88163,
1363.869,695.27489,
1360.958,718.35408,
1358.048,758.73072,
1355.137,819.73109,
1352.227,852.21973,
1349.316,838.40374,
1346.406,853.85065,
1343.495,925.56234,
1340.584,975.33959,
1337.674,956.26821,
1334.763,962.89527,
1331.853,996.27559,
1328.942,1047.435,
1326.032,1027.5251,
1323.121,1063.119,
1320.210,1090.2775,
1317.300,1153.8775,
1314.389,1212.1254,
1311.479,1172.3924,
1308.568,1123.7684,
1305.657,1149.8008,
1302.747,1115.7783,
1299.836,1177.6447,
1296.926,1224.3424,
1294.015,1304.3236,
1291.105,1394.7986,
1288.194,1450.5559,
1285.283,1500.2892,
1282.373,1509.9297,
1279.462,1528.5854,
1276.552,1554.0581,
1273.641,1550.4776,
1270.731,1520.922,
1267.820,1501.7798,
1264.909,1524.3949,
1261.999,1570.5292,
1259.088,1485.702,
1256.178,1524.3043,
1253.267,1477.1541,
1250.356,1445.0482,
1247.446,1449.3595,
1244.535,1444.2456,
1241.625,1437.0842,
1238.714,1433.8592,
1235.804,1405.8434,
1232.893,1397.6389,
1229.982,1334.1037,
1227.072,1318.7134,
1224.161,1316.7845,
1221.251,1233.24,
1218.340,1185.8385,
1215.430,1191.5905,
1212.519,1173.8374,
1209.608,1177.3782,
1206.698,1238.8587,
1203.787,1205.2079,
1200.877,1227.4668,
1197.966,1273.3239,
1195.055,1314.8744,
1192.145,1331.3925,
1189.234,1386.5284,
1186.324,1452.8105,
1183.413,1477.1174,
1180.503,1466.6132,
1177.592,1472.0595,
1174.681,1493.8373,
1171.771,1474.4808,
1168.860,1468.2291,
1165.950,1466.0124,
1163.039,1427.9112,
1160.129,1428.7308,
1157.218,1439.6635,
1154.307,1442.7063,
1151.397,1441.544,
1148.486,1416.8267,
1145.576,1406.2395,
1142.665,1397.3604,
1139.754,1447.8836,
1136.844,1440.7168,
1133.933,1426.7599,
1131.023,1411.2947,
1128.112,1380.4134,
1125.202,1346.9004,
1122.291,1347.7584,
1119.380,1369.5384,
1116.470,1360.7131,
1113.559,1331.0148,
1110.649,1312.8023,
1107.738,1312.4474,
1104.828,1320.786,
1101.917,1331.0631,
1099.006,1339.6972,
1096.096,1331.0013,
1093.185,1337.1473,
1090.275,1382.9441,
1087.364,1394.3111,
1084.453,1403.6244,
1081.543,1421.1423,
1078.632,1444.6536,
1075.722,1467.9414,
1072.811,1473.0045,
1069.901,1464.2719,
1066.990,1441.8001,
1064.079,1410.085,
1061.169,1410.3279,
1058.258,1411.3083,
1055.348,1409.7954,
1052.437,1434.8211,
1049.527,1425.0879,
1046.616,1411.1867,
1043.705,1426.5818,
1040.795,1435.456,
1037.884,1434.0848,
1034.974,1412.7487,
1032.063,1391.9247,
1029.153,1416.328,
1026.242,1372.2152,
1023.331,1393.1236,
1020.421,1412.9612,
1017.510,1419.625,
1014.600,1426.3919,
1011.689,1443.607,
1008.778,1471.2488,
1005.868,1515.764,
1002.957,1531.2504,
1000.047,1586.769,
997.136,1623.6574,
994.226,1627.5944,
991.315,1601.7933,
988.404,1557.1942,
985.494,1513.3565,
982.583,1501.3647,
979.673,1506.2098,
976.762,1492.7732,
973.852,1471.0168,
970.941,1470.6658,
968.030,1497.5671,
965.120,1474.7431,
962.209,1502.877,
959.299,1515.4157,
956.388,1521.9848,
953.477,1513.5273,
950.567,1500.2392,
947.656,1509.6304,
944.746,1524.9224,
941.835,1541.8213,
938.925,1566.6826,
936.014,1579.6483,
933.103,1575.9755,
930.193,1564.826,
927.282,1563.1832,
924.372,1591.9338,
921.461,1558.805,
918.551,1529.9398,
915.640,1502.0522,
912.729,1475.3313,
909.819,1464.4034,
906.908,1470.3004,
903.998,1456.3084,
901.087,1447.533,
898.176,1469.9163,
895.266,1488.4204,
892.355,1481.5039,
889.445,1550.3238,
886.534,1512.2209,
883.624,1498.5695,
880.713,1523.6946,
877.802,1539.5085,
874.892,1518.9927,
871.981,1519.8951,
869.071,1488.9848,
866.160,1506.3937,
863.250,1525.5364,
860.339,1538.9946,
857.428,1541.164,
854.518,1508.6862,
851.607,1476.2355,
848.697,1469.9372,
845.786,1472.7388,
842.875,1487.8592,
839.965,1508.29,
837.054,1498.0064,
834.144,1531.9853,
831.233,1531.2922,
828.323,1529.1087,
825.412,1522.254,
822.501,1512.2209,
819.591,1554.3673,
816.680,1519.5672,
813.770,1501.2275,
810.859,1502.8449,
807.949,1500.3249,
805.038,1471.9193,
802.127,1482.6199,
799.217,1462.7541,
796.306,1440.3006,
793.396,1453.5413,
790.485,1493.4673,
787.574,1497.6525,
784.664,1524.7162,
781.753,1527.612,
778.843,1540.8374,
775.932,1546.9832,
773.022,1523.3139,
770.111,1495.5162,
767.200,1494.3863,
764.290,1500.4038,
761.379,1505.8066,
758.469,1488.5817,
755.558,1416.3089,
752.648,1405.7191,
749.737,1382.083,
746.826,1324.0029,
743.916,1228.462,
741.005,1090.6462,
738.095,834.09315,
735.184,531.90231,
732.274,446.76449,
729.363,645.49091,
726.452,1043.548,
723.542,1303.3633,
720.631,1401.7243,
717.721,1430.4892,
714.810,1465.7441,
711.899,1517.7438,
708.989,1509.6746,
706.078,1485.5859,
703.168,1486.3044,
700.257,1485.2616,
697.347,1469.365,
694.436,1439.2322,
691.525,1424.7637,
688.615,1447.4104,
685.704,1475.1441,
682.794,1482.7315,
679.883,1455.1749,
676.973,1489.6338,
674.062,1497.2631,
671.151,1477.4618,
668.241,1455.1987,
665.330,1469.6125,
662.420,1532.7123,
659.509,1529.7517,
656.598,1541.397,
653.688,1578.7469,
650.777,1612.625,
647.867,1612.625,
644.956,1605.1952,
642.046,1579.8951,
639.135,1545.1752,
636.224,1524.7921,
633.314,1558.1375,
630.403,1536.4733,
627.493,1501.4142,
624.582,1476.5061,
621.672,1467.0022,
618.761,1484.1036,
615.850,1501.7467,
612.940,1509.2343,
610.029,1504.0989,
607.119,1500.9404,
604.208,1497.0749,
601.297,1483.6606,
598.387,1466.179,
595.476,1451.3623,
592.566,1437.9821,
589.655,1435.625,
586.745,1437.7948,
583.834,1425.9129,
580.923,1373.2885,
578.013,1317.5724,
575.102,1362.8518,
572.192,1402.9803,
569.281,1402.6392,
566.371,1447.2487,
563.460,1489.7203,
560.549,1510.9851,
557.639,1522.5334,
554.728,1540.7437,
551.818,1574.2973,
548.907,1562.7332,
545.996,1545.5707,
543.086,1543.1612,
540.175,1568.8565,
537.265,1556.1394,
534.354,1548.1165,
531.444,1550.6408,
528.533,1564.3976,
525.622,1575.2608,
522.712,1564.2764,
519.801,1551.4243,
516.891,1554.9543,
513.980,1606.0579,
511.070,1599.3554,
508.159,1586.5064,
505.248,1588.8913,
502.338,1622.3991,
499.427,1614.6808,
496.517,1619.4129,
493.606,1615.2032,
490.695,1596.732,
487.785,1597.5018,
484.874,1621.5353,
481.964,1627.9805,
479.053,1614.0285,
476.143,1594.8295,
473.232,1586.431,
470.321,1571.4606,
467.411,1566.9826,
464.500,1591.3923,
461.590,1582.2034,
458.679,1612.6427,
455.769,1631.4333,
452.858,1611.5571,
449.947,1591.6949,
447.037,1639.1996,
444.126,1652.2917,
441.216,1617.2281,
438.305,1614.9423,
435.395,1627.7377,
432.484,1637.5423,
429.573,1641.98,
426.663,1643.5003,
423.752,1593.4108,
420.842,1562.0346,
417.931,1567.4316,
415.020,1626.5835,
412.110,1695.2018,
409.199,1726.96,
406.289,1717.6524,
403.378,1665.6455,
400.468,1671.6934,
397.557,1657.6864,
394.646,1639.9315,
391.736,1628.5687,
388.825,1501.8578,
385.915,1415.131,
383.004,1396.7528,
380.094,1463.5023,
377.183,1539.5024,
374.272,1620.8736,
371.362,1700.7634,
368.451,1769.0293,
365.541,1742.7605,
362.630,1756.9284,
359.719,1779.9524,
356.809,1792.3985,
353.898,1788.6545,
350.988,1753.4483,
348.077,1736.5318,
345.167,1766.571,
342.256,1785.2477,
339.345,1765.1162,
336.435,1763.1668,
333.524,1816.7424,
330.614,1820.4682,
327.703,1812.3837,
324.793,1804.3984,
321.882,1806.6953,
318.971,1835.6896,
316.061,1841.7185,
313.150,1852.6369,
310.240,1900.8744,
307.329,1910.486,
304.418,1922.2881,
301.508,1895.0126,
298.597,1753.593,
295.687,1718.5988,
292.776,1754.2919,
289.866,1862.1285,
286.955,2063.8006,
284.044,2265.9298,
281.134,2415.503,
278.223,2515.7622,
275.313,2632.9221,
272.402,2730.2379,
269.492,2810.508,
266.581,2871.5184,
263.670,2884.0164,
260.760,2966.5049,
257.849,3020.9177,
254.939,2970.2798,
252.028,3004.3696,
249.117,3021.7364,
246.207,3022.458,
243.296,3006.3532,
240.386,2940.6318,
237.475,2887.7998,
234.565,2848.9974,
231.654,2794.2187,
228.743,2761.9117,
225.833,2740.2222,
222.922,2725.8968,
220.012,2731.7252,
217.101,2701.2378,
214.191,2658.664,
211.280,2628.8381,
208.369,2597.694,
205.459,2540.1067,
202.548,2482.7727,
199.638,2529.9399,
196.727,2477.9699,
193.816,2443.4618,
190.906,2468.5488,
187.995,2466.3767,
185.085,2457.1136,
182.174,2449.9756,
179.264,2458.6488,
176.353,2430.1492,
173.442,2410.7245,
170.532,2403.1888,
167.621,2382.2805,
164.711,2344.5654,
161.800,2290.3112,
158.890,2216.1793,
155.979,2051.7177,
153.068,1871.0728,
150.158,1678.813,
147.247,1474.1966,
144.337,1186.6095,
141.426,913.54206,
138.516,702.05915,
135.605,494.3217,
132.694,338.42405,
129.784,228.10614,
126.873,158.73854,
123.963,103.08288,
121.052,65.675926,
118.141,50.683984,
115.231,42.808726,
112.320,34.965005,
109.410,28.352289,
106.499,26.927979,
103.589,22.142964,
100.678,17.810135,
97.767,15.677322,
94.857,19.089945,
91.946,18.609446,
89.036,15.399204,
86.125,13.980794,
83.215,14.15592,
80.304,12.230673,
77.393,5.1489738,
74.483,9.2109447,
71.572,12.349704,
68.662,13.555733,
65.751,12.849281,
62.840,8.7713841,
59.930,5.9360034,
57.019,10.871577,
54.109,9.2363566,
51.198,6.4185629,
48.288,3.6306624,
45.377,4.3340405,
42.466,7.098316,
39.556,10.279644,
36.645,8.1730736,
33.735,10.221242,
30.824,12.845887,
27.914,13.547062,
25.003,23.5872,
22.092,28.010477,
19.182,25.082657,
16.271,39.07246,
13.361,164.31907,
10.450,422.25282,
7.539,966.24049,
4.629,1492.8034,
1.718,1743.0816,
-1.192,1382.6579,
-4.103,830.43632,
-7.013,351.00577,
-9.924,1.625,
