,PL91AF~1,
Raman shift [1/cm],Intensity,
3014.167,-0.875,
3011.256,0.024978527,
3008.346,229.47933,
3005.435,259.47129,
3002.525,273.5976,
2999.614,289.65874,
2996.704,283.70953,
2993.793,292.38191,
2990.882,288.25476,
2987.972,289.28644,
2985.061,324.22845,
2982.151,339.57375,
2979.240,339.88733,
2976.329,363.87637,
2973.419,378.32552,
2970.508,366.37495,
2967.598,375.79408,
2964.687,388.16984,
2961.777,395.27893,
2958.866,414.12055,
2955.955,429.99003,
2953.045,422.95946,
2950.134,452.34954,
2947.224,469.35275,
2944.313,470.83298,
2941.403,482.24452,
2938.492,497.24152,
2935.581,489.35076,
2932.671,485.52846,
2929.760,512.74809,
2926.850,509.75207,
2923.939,499.07822,
2921.028,519.04262,
2918.118,537.68419,
2915.207,528.77054,
2912.297,543.0573,
2909.386,550.10311,
2906.476,539.51264,
2903.565,538.98056,
2900.654,539.97129,
2897.744,547.8987,
2894.833,530.94973,
2891.923,537.8013,
2889.012,516.20593,
2886.102,521.70879,
2883.191,542.10423,
2880.280,500.55562,
2877.370,482.42737,
2874.459,479.35774,
2871.549,504.36208,
2868.638,524.85283,
2865.727,541.80961,
2862.817,548.22526,
2859.906,555.32728,
2856.996,550.12047,
2854.085,570.49058,
2851.175,566.98045,
2848.264,564.54666,
2845.353,552.55634,
2842.443,564.93753,
2839.532,541.70717,
2836.622,533.3164,
2833.711,552.82983,
2830.801,539.91618,
2827.890,525.52539,
2824.979,549.40899,
2822.069,563.98853,
2819.158,557.44576,
2816.248,563.88368,
2813.337,573.06282,
2810.427,543.86743,
2807.516,553.27594,
2804.605,554.125,
2801.695,552.99342,
2798.784,553.97715,
2795.874,559.5498,
2792.963,564.41074,
2790.052,557.12672,
2787.142,556.53273,
2784.231,544.80201,
2781.321,525.94795,
2778.410,562.25443,
2775.500,555.97846,
2772.589,566.47133,
2769.678,575.1591,
2766.768,565.08032,
2763.857,559.22904,
2760.947,565.72902,
2758.036,575.34789,
2755.126,578.4562,
2752.215,593.69785,
2749.304,558.50994,
2746.394,564.76007,
2743.483,588.02491,
2740.573,595.36611,
2737.662,575.78477,
2734.751,582.28988,
2731.841,594.69277,
2728.930,590.49356,
2726.020,597.11979,
2723.109,598.4445,
2720.199,599.53416,
2717.288,612.72353,
2714.377,596.38336,
2711.467,612.46896,
2708.556,628.73132,
2705.646,626.89964,
2702.735,622.27705,
2699.825,620.84141,
2696.914,637.36319,
2694.003,639.19818,
2691.093,629.6966,
2688.182,623.43315,
2685.272,625.29286,
2682.361,617.13046,
2679.450,620.84523,
2676.540,644.77949,
2673.629,631.44337,
2670.719,646.47528,
2667.808,646.36818,
2664.898,640.44991,
2661.987,633.92513,
2659.076,660.94611,
2656.166,647.46271,
2653.255,639.45663,
2650.345,665.29379,
2647.434,650.43995,
2644.524,676.66937,
2641.613,687.35379,
2638.702,667.50375,
2635.792,680.81492,
2632.881,665.58923,
2629.971,667.25251,
2627.060,674.95968,
2624.149,673.31249,
2621.239,699.90613,
2618.328,681.40442,
2615.418,671.42955,
2612.507,692.81271,
2609.597,690.85953,
2606.686,700.0206,
2603.775,708.92261,
2600.865,682.01231,
2597.954,702.27494,
2595.044,720.49966,
2592.133,719.07412,
2589.223,715.2092,
2586.312,730.37119,
2583.401,744.77828,
2580.491,736.59136,
2577.580,724.12005,
2574.670,731.64101,
2571.759,744.26114,
2568.848,726.36254,
2565.938,744.17269,
2563.027,735.125,
2560.117,744.02222,
2557.206,735.56412,
2554.296,737.125,
2551.385,741.06704,
2548.474,745.42128,
2545.564,757.71348,
2542.653,753.59815,
2539.743,776.48329,
2536.832,775.28761,
2533.922,760.61385,
2531.011,784.52556,
2528.100,779.38636,
2525.190,788.54385,
2522.279,766.95402,
2519.369,798.08763,
2516.458,781.9012,
2513.548,778.50684,
2510.637,775.39986,
2507.726,798.88334,
2504.816,787.6267,
2501.905,789.19756,
2498.995,801.02078,
2496.084,810.52567,
2493.173,802.3356,
2490.263,808.11371,
2487.352,811.83287,
2484.442,809.68173,
2481.531,824.81113,
2478.621,834.2672,
2475.710,818.26302,
2472.799,831.43895,
2469.889,825.36601,
2466.978,819.69215,
2464.068,839.98223,
2461.157,839.27997,
2458.247,851.80156,
2455.336,853.5516,
2452.425,872.30427,
2449.515,855.2955,
2446.604,872.08131,
2443.694,862.07898,
2440.783,864.02815,
2437.872,870.5051,
2434.962,855.43836,
2432.051,872.77957,
2429.141,892.81904,
2426.230,878.29844,
2423.320,915.6683,
2420.409,892.58663,
2417.498,887.51826,
2414.588,916.10207,
2411.677,892.98157,
2408.767,901.26673,
2405.856,923.99174,
2402.946,919.3931,
2400.035,941.20717,
2397.124,923.47259,
2394.214,927.31261,
2391.303,913.125,
2388.393,935.5204,
2385.482,930.6978,
2382.571,920.75751,
2379.661,938.59004,
2376.750,943.80974,
2373.840,944.47811,
2370.929,965.89758,
2368.019,960.97966,
2365.108,970.00982,
2362.197,957.33321,
2359.287,966.50328,
2356.376,981.10387,
2353.466,982.35277,
2350.555,981.44523,
2347.645,981.65217,
2344.734,993.24947,
2341.823,978.45666,
2338.913,993.51907,
2336.002,1018.3045,
2333.092,1013.5043,
2330.181,1003.2989,
2327.270,1016.1349,
2324.360,1014.4693,
2321.449,1022.4787,
2318.539,1037.4675,
2315.628,1029.412,
2312.718,1028.8409,
2309.807,1042.3299,
2306.896,1046.8887,
2303.986,1052.5601,
2301.075,1047.5718,
2298.165,1048.9136,
2295.254,1031.5343,
2292.344,1078.1832,
2289.433,1062.1636,
2286.522,1066.9911,
2283.612,1061.4349,
2280.701,1061.9905,
2277.791,1072.4055,
2274.880,1086.4009,
2271.969,1110.4172,
2269.059,1112.2694,
2266.148,1142.6592,
2263.238,1113.4416,
2260.327,1116.7112,
2257.417,1116.8183,
2254.506,1140.7888,
2251.595,1130.2851,
2248.685,1133.8019,
2245.774,1141.9272,
2242.864,1138.0327,
2239.953,1148.6216,
2237.043,1143.2421,
2234.132,1166.847,
2231.221,1186.3886,
2228.311,1169.8583,
2225.400,1173.8435,
2222.490,1171.3662,
2219.579,1205.8602,
2216.669,1214.1107,
2213.758,1234.0845,
2210.847,1257.6338,
2207.937,1255.3693,
2205.026,1243.4574,
2202.116,1289.5284,
2199.205,1315.252,
2196.294,1294.9189,
2193.384,1312.546,
2190.473,1336.2905,
2187.563,1387.4537,
2184.652,1457.083,
2181.742,1469.8979,
2178.831,1509.7399,
2175.920,1585.4347,
2173.010,1668.0298,
2170.099,1752.6513,
2167.189,1836.656,
2164.278,1924.6516,
2161.368,2037.1216,
2158.457,2154.1476,
2155.546,2268.0164,
2152.636,2369.8376,
2149.725,2440.4001,
2146.815,2535.1552,
2143.904,2576.861,
2140.993,2653.6489,
2138.083,2629.3377,
2135.172,2652.5788,
2132.262,2642.478,
2129.351,2605.1835,
2126.441,2535.1636,
2123.530,2406.621,
2120.619,2263.8043,
2117.709,2166.6914,
2114.798,2017.0782,
2111.888,1890.814,
2108.977,1781.562,
2106.067,1677.9715,
2103.156,1605.4551,
2100.245,1546.1049,
2097.335,1510.392,
2094.424,1471.3969,
2091.514,1434.4825,
2088.603,1434.6503,
2085.692,1421.7124,
2082.782,1396.8681,
2079.871,1381.9103,
2076.961,1402.5751,
2074.050,1383.622,
2071.140,1350.5851,
2068.229,1329.6758,
2065.318,1331.9283,
2062.408,1340.7082,
2059.497,1315.2857,
2056.587,1302.8343,
2053.676,1286.7927,
2050.766,1302.5084,
2047.855,1286.2674,
2044.944,1291.7901,
2042.034,1306.0789,
2039.123,1324.1822,
2036.213,1299.3361,
2033.302,1302.125,
2030.391,1288.5999,
2027.481,1278.1494,
2024.570,1312.5241,
2021.660,1294.6624,
2018.749,1323.2892,
2015.839,1303.0666,
2012.928,1304.7575,
2010.017,1302.137,
2007.107,1314.5642,
2004.196,1297.125,
2001.286,1294.708,
1998.375,1295.2126,
1995.465,1267.0205,
1992.554,1299.4423,
1989.643,1247.1988,
1986.733,1278.7873,
1983.822,1258.5105,
1980.912,1278.214,
1978.001,1280.1417,
1975.090,1274.3891,
1972.180,1241.4016,
1969.269,1243.8808,
1966.359,1254.7196,
1963.448,1252.4724,
1960.538,1255.9941,
1957.627,1249.9919,
1954.716,1254.9526,
1951.806,1225.6715,
1948.895,1234.3396,
1945.985,1222.942,
1943.074,1211.5422,
1940.164,1192.2696,
1937.253,1213.0731,
1934.342,1206.7063,
1931.432,1223.0524,
1928.521,1196.3046,
1925.611,1156.0603,
1922.700,1208.0656,
1919.790,1200.0097,
1916.879,1195.1947,
1913.968,1197.1225,
1911.058,1173.4103,
1908.147,1241.7483,
1905.237,1204.8897,
1902.326,1215.6865,
1899.415,1194.7494,
1896.505,1196.6009,
1893.594,1191.5793,
1890.684,1186.9616,
1887.773,1200.0297,
1884.863,1200.3687,
1881.952,1188.2425,
1879.041,1187.638,
1876.131,1170.2087,
1873.220,1163.5099,
1870.310,1191.9007,
1867.399,1173.4609,
1864.489,1171.0471,
1861.578,1169.0316,
1858.667,1172.9663,
1855.757,1203.3171,
1852.846,1210.1147,
1849.936,1192.6375,
1847.025,1208.1079,
1844.114,1262.1908,
1841.204,1233.9886,
1838.293,1234.1366,
1835.383,1229.8575,
1832.472,1231.532,
1829.562,1239.4294,
1826.651,1248.9114,
1823.740,1266.4124,
1820.830,1292.9598,
1817.919,1261.6637,
1815.009,1258.2624,
1812.098,1278.873,
1809.188,1271.7452,
1806.277,1255.4791,
1803.366,1264.4245,
1800.456,1283.8836,
1797.545,1312.9265,
1794.635,1299.964,
1791.724,1295.9211,
1788.813,1311.1199,
1785.903,1302.6288,
1782.992,1319.3455,
1780.082,1300.5351,
1777.171,1303.7904,
1774.261,1305.6951,
1771.350,1327.0188,
1768.439,1349.3601,
1765.529,1364.1259,
1762.618,1367.7094,
1759.708,1366.6576,
1756.797,1405.2386,
1753.887,1394.8145,
1750.976,1388.6597,
1748.065,1390.5351,
1745.155,1398.0087,
1742.244,1401.5036,
1739.334,1386.485,
1736.423,1380.4185,
1733.512,1403.4096,
1730.602,1436.0615,
1727.691,1402.6713,
1724.781,1420.8015,
1721.870,1442.806,
1718.960,1472.4364,
1716.049,1490.7096,
1713.138,1459.7802,
1710.228,1493.2884,
1707.317,1494.7021,
1704.407,1495.0234,
1701.496,1522.4714,
1698.586,1512.1892,
1695.675,1567.2675,
1692.764,1552.1906,
1689.854,1550.1683,
1686.943,1630.3258,
1684.033,1655.5538,
1681.122,1617.7877,
1678.211,1627.0298,
1675.301,1738.7797,
1672.390,1734.9785,
1669.480,1687.0235,
1666.569,1798.8994,
1663.659,1860.0886,
1660.748,1918.3949,
1657.837,1933.5247,
1654.927,1996.1719,
1652.016,1999.4857,
1649.106,2055.1777,
1646.195,2097.2449,
1643.285,2103.3327,
1640.374,2157.1529,
1637.463,2253.5662,
1634.553,2333.4993,
1631.642,2425.9176,
1628.732,2499.0731,
1625.821,2658.1963,
1622.911,2766.5108,
1620.000,2919.1848,
1617.089,3109.3041,
1614.179,3269.5846,
1611.268,3458.9868,
1608.358,3626.2587,
1605.447,3768.9547,
1602.536,3845.1528,
1599.626,3805.9682,
1596.715,3815.739,
1593.805,3776.8801,
1590.894,3721.0461,
1587.984,3767.8227,
1585.073,3667.2205,
1582.162,3688.1995,
1579.252,3678.1224,
1576.341,3615.6474,
1573.431,3617.5717,
1570.520,3608.3662,
1567.610,3537.8103,
1564.699,3481.7736,
1561.788,3488.1389,
1558.878,3395.7588,
1555.967,3302.8785,
1553.057,3232.5565,
1550.146,3164.336,
1547.235,3099.1635,
1544.325,3064.7731,
1541.414,2988.9176,
1538.504,2908.0591,
1535.593,2864.2662,
1532.683,2826.262,
1529.772,2792.5815,
1526.861,2758.0668,
1523.951,2728.9616,
1521.040,2670.5253,
1518.130,2603.1902,
1515.219,2598.6052,
1512.309,2587.4178,
1509.398,2561.5244,
1506.487,2516.0464,
1503.577,2504.4763,
1500.666,2515.215,
1497.756,2489.6077,
1494.845,2457.1239,
1491.934,2409.0778,
1489.024,2394.6404,
1486.113,2361.6725,
1483.203,2343.138,
1480.292,2329.2458,
1477.382,2302.0693,
1474.471,2244.7106,
1471.560,2233.479,
1468.650,2205.7442,
1465.739,2181.2367,
1462.829,2169.7536,
1459.918,2141.2629,
1457.008,2146.5099,
1454.097,2130.9172,
1451.186,2122.3842,
1448.276,2167.6387,
1445.365,2156.9828,
1442.455,2157.7454,
1439.544,2127.1322,
1436.633,2094.0187,
1433.723,2110.0215,
1430.812,2059.1645,
1427.902,2046.7191,
1424.991,2029.6594,
1422.081,2027.29,
1419.170,1942.4471,
1416.259,1967.198,
1413.349,1923.2581,
1410.438,1925.7188,
1407.528,1926.4001,
1404.617,1892.7686,
1401.707,1896.5023,
1398.796,1934.1739,
1395.885,1952.9518,
1392.975,1961.5628,
1390.064,1970.1217,
1387.154,1969.3407,
1384.243,1993.1916,
1381.332,1944.0728,
1378.422,2050.5403,
1375.511,2097.3793,
1372.601,2197.6546,
1369.690,2261.8445,
1366.780,2357.4568,
1363.869,2368.5014,
1360.958,2418.2627,
1358.048,2500.7097,
1355.137,2565.9863,
1352.227,2625.4389,
1349.316,2668.0691,
1346.406,2711.039,
1343.495,2802.8515,
1340.584,2820.2681,
1337.674,2818.9171,
1334.763,2920.6888,
1331.853,3014.3392,
1328.942,3035.0248,
1326.032,3089.3247,
1323.121,3143.36,
1320.210,3232.0422,
1317.300,3305.7194,
1314.389,3379.9454,
1311.479,3456.2704,
1308.568,3517.754,
1305.657,3568.5204,
1302.747,3607.863,
1299.836,3679.3783,
1296.926,3835.5688,
1294.015,3931.1785,
1291.105,4088.3393,
1288.194,4200.9804,
1285.283,4310.7614,
1282.373,4408.406,
1279.462,4462.1443,
1276.552,4503.9991,
1273.641,4568.0119,
1270.731,4610.422,
1267.820,4577.569,
1264.909,4545.598,
1261.999,4576.3275,
1259.088,4527.0729,
1256.178,4458.1779,
1253.267,4376.543,
1250.356,4275.209,
1247.446,4115.6725,
1244.535,3958.7681,
1241.625,3823.5511,
1238.714,3695.6297,
1235.804,3592.2223,
1232.893,3501.3777,
1229.982,3487.7451,
1227.072,3447.0061,
1224.161,3356.7126,
1221.251,3308.1111,
1218.340,3266.6778,
1215.430,3212.1381,
1212.519,3163.9201,
1209.608,3140.9987,
1206.698,3129.9759,
1203.787,3123.3009,
1200.877,3199.7907,
1197.966,3194.3957,
1195.055,3264.0914,
1192.145,3380.5617,
1189.234,3456.6477,
1186.324,3533.6757,
1183.413,3586.191,
1180.503,3594.4505,
1177.592,3575.0034,
1174.681,3516.012,
1171.771,3520.1881,
1168.860,3436.2377,
1165.950,3402.3237,
1163.039,3366.7921,
1160.129,3311.6554,
1157.218,3290.7782,
1154.307,3277.4925,
1151.397,3236.2575,
1148.486,3225.4276,
1145.576,3209.354,
1142.665,3191.5958,
1139.754,3146.189,
1136.844,3081.5014,
1133.933,3054.606,
1131.023,3031.8249,
1128.112,3002.3403,
1125.202,3001.9607,
1122.291,3040.0024,
1119.380,3046.047,
1116.470,3038.1043,
1113.559,3073.4677,
1110.649,3074.9572,
1107.738,3061.5519,
1104.828,3071.1851,
1101.917,3090.6869,
1099.006,3083.8053,
1096.096,3100.4262,
1093.185,3089.0122,
1090.275,3071.9396,
1087.364,3080.4752,
1084.453,3089.4998,
1081.543,3103.0805,
1078.632,3095.8142,
1075.722,3046.8683,
1072.811,3040.1035,
1069.901,3082.02,
1066.990,3096.4416,
1064.079,3124.9845,
1061.169,3152.5894,
1058.258,3172.7477,
1055.348,3191.9438,
1052.437,3217.7167,
1049.527,3242.1656,
1046.616,3269.0993,
1043.705,3277.5204,
1040.795,3275.294,
1037.884,3302.4578,
1034.974,3326.6559,
1032.063,3329.8554,
1029.153,3370.0452,
1026.242,3419.3477,
1023.331,3392.7935,
1020.421,3412.9178,
1017.510,3441.4936,
1014.600,3464.4295,
1011.689,3484.5368,
1008.778,3525.9963,
1005.868,3660.2293,
1002.957,3783.2599,
1000.047,3930.9811,
997.136,4024.9364,
994.226,4092.3706,
991.315,4093.8057,
988.404,3995.3416,
985.494,3984.4947,
982.583,3911.6874,
979.673,3871.1275,
976.762,3880.0865,
973.852,3899.8711,
970.941,3910.6816,
968.030,3918.073,
965.120,3912.0355,
962.209,3890.7219,
959.299,3904.123,
956.388,3916.1647,
953.477,3925.8794,
950.567,3924.7137,
947.656,3902.1358,
944.746,3932.7198,
941.835,3968.1372,
938.925,3978.0992,
936.014,3961.9269,
933.103,3941.241,
930.193,3923.5379,
927.282,3880.1168,
924.372,3861.5134,
921.461,3770.757,
918.551,3711.2402,
915.640,3674.5522,
912.729,3648.368,
909.819,3635.1225,
906.908,3612.377,
903.998,3623.0555,
901.087,3670.0439,
898.176,3699.897,
895.266,3724.1689,
892.355,3768.1091,
889.445,3784.0552,
886.534,3820.8594,
883.624,3887.3342,
880.713,3944.7049,
877.802,3961.7033,
874.892,3937.7127,
871.981,3916.8624,
869.071,3863.396,
866.160,3874.1338,
863.250,3900.4237,
860.339,3878.8957,
857.428,3816.3338,
854.518,3832.9214,
851.607,3791.3179,
848.697,3770.3687,
845.786,3754.2646,
842.875,3746.8727,
839.965,3757.1301,
837.054,3788.6784,
834.144,3748.8983,
831.233,3739.1251,
828.323,3709.9344,
825.412,3683.0568,
822.501,3681.7632,
819.591,3652.0128,
816.680,3600.6441,
813.770,3556.7999,
810.859,3543.0886,
807.949,3545.5421,
805.038,3536.4237,
802.127,3538.8931,
799.217,3479.4937,
796.306,3449.4763,
793.396,3453.8045,
790.485,3470.4404,
787.574,3462.319,
784.664,3414.7525,
781.753,3423.5706,
778.843,3446.3374,
775.932,3469.1496,
773.022,3485.3498,
770.111,3473.9037,
767.200,3522.6103,
764.290,3528.3011,
761.379,3503.0071,
758.469,3474.2879,
755.558,3469.5447,
752.648,3416.5954,
749.737,3401.5555,
746.826,3413.5779,
743.916,3414.2092,
741.005,3362.7623,
738.095,3271.0203,
735.184,3127.1239,
732.274,3093.0573,
729.363,3161.5683,
726.452,3273.5036,
723.542,3330.9705,
720.631,3396.8172,
717.721,3428.1548,
714.810,3432.1762,
711.899,3419.7983,
708.989,3401.239,
706.078,3353.8481,
703.168,3366.4138,
700.257,3378.4119,
697.347,3356.3876,
694.436,3296.2123,
691.525,3299.4275,
688.615,3288.8046,
685.704,3297.666,
682.794,3309.6996,
679.883,3282.3052,
676.973,3286.3121,
674.062,3284.5727,
671.151,3291.0149,
668.241,3310.8932,
665.330,3340.9149,
662.420,3315.3555,
659.509,3310.7599,
656.598,3299.4408,
653.688,3308.9696,
650.777,3391.2609,
647.867,3365.7784,
644.956,3332.2632,
642.046,3318.8564,
639.135,3325.3827,
636.224,3330.1847,
633.314,3342.0938,
630.403,3390.6482,
627.493,3405.6098,
624.582,3385.6581,
621.672,3414.9619,
618.761,3390.2871,
615.850,3419.0412,
612.940,3465.5187,
610.029,3492.2587,
607.119,3463.0423,
604.208,3465.0951,
601.297,3473.1072,
598.387,3483.1379,
595.476,3493.1993,
592.566,3493.9863,
589.655,3464.3221,
586.745,3445.0872,
583.834,3423.9974,
580.923,3363.3714,
578.013,3404.1776,
575.102,3419.7137,
572.192,3419.5522,
569.281,3423.9512,
566.371,3484.2132,
563.460,3449.2078,
560.549,3462.3363,
557.639,3499.4963,
554.728,3515.948,
551.818,3544.8197,
548.907,3583.4239,
545.996,3596.3492,
543.086,3592.6809,
540.175,3632.3918,
537.265,3631.5036,
534.354,3672.7687,
531.444,3700.0775,
528.533,3663.8841,
525.622,3702.6815,
522.712,3760.8788,
519.801,3815.274,
516.891,3861.9238,
513.980,3915.3503,
511.070,3950.4119,
508.159,4032.3721,
505.248,4120.3928,
502.338,4159.339,
499.427,4234.9786,
496.517,4264.1755,
493.606,4297.7079,
490.695,4348.5202,
487.785,4336.9734,
484.874,4381.0069,
481.964,4386.1916,
479.053,4352.977,
476.143,4331.474,
473.232,4311.4205,
470.321,4311.9102,
467.411,4316.5794,
464.500,4305.5432,
461.590,4282.571,
458.679,4266.77,
455.769,4292.2067,
452.858,4361.9776,
449.947,4341.3514,
447.037,4386.2726,
444.126,4412.5795,
441.216,4400.7438,
438.305,4387.029,
435.395,4392.9926,
432.484,4390.0402,
429.573,4381.9,
426.663,4389.5014,
423.752,4399.8889,
420.842,4346.1259,
417.931,4300.6111,
415.020,4383.2721,
412.110,4484.1612,
409.199,4564.6237,
406.289,4601.2858,
403.378,4571.3991,
400.468,4652.2905,
397.557,4619.5119,
394.646,4587.8274,
391.736,4652.125,
388.825,4652.125,
385.915,4621.79,
383.004,4589.9852,
380.094,4583.1137,
377.183,4700.5,
374.272,4781.4325,
371.362,4842.4336,
368.451,4891.7633,
365.541,4902.2708,
362.630,4902.94,
359.719,4922.1387,
356.809,4970.947,
353.898,4951.4782,
350.988,4952.6348,
348.077,4960.7387,
345.167,4967.8818,
342.256,4982.8232,
339.345,4967.462,
336.435,4950.9578,
333.524,4954.4168,
330.614,4995.4004,
327.703,5031.7416,
324.793,5057.4763,
321.882,5067.3197,
318.971,5147.6115,
316.061,5166.8237,
313.150,5173.5988,
310.240,5223.3205,
307.329,5315.8839,
304.418,5358.5083,
301.508,5350.9619,
298.597,5293.9498,
295.687,5350.7539,
292.776,5429.2919,
289.866,5547.3232,
286.955,5780.7605,
284.044,5879.2724,
281.134,5995.2557,
278.223,6142.6754,
275.313,6242.1509,
272.402,6362.4594,
269.492,6485.4552,
266.581,6606.5826,
263.670,6752.8834,
260.760,6857.2886,
257.849,6946.9733,
254.939,7040.9103,
252.028,7069.6311,
249.117,7095.2003,
246.207,7111.2309,
243.296,7103.9105,
240.386,7139.0395,
237.475,7088.203,
234.565,6969.7981,
231.654,6929.627,
228.743,6903.864,
225.833,6854.5374,
222.922,6768.7808,
220.012,6718.5105,
217.101,6683.9685,
214.191,6638.0235,
211.280,6547.8181,
208.369,6562.655,
205.459,6551.5655,
202.548,6528.6515,
199.638,6583.8008,
196.727,6592.2439,
193.816,6605.1761,
190.906,6640.5059,
187.995,6651.3663,
185.085,6743.0762,
182.174,6837.2073,
179.264,6822.752,
176.353,6835.8629,
173.442,6848.1131,
170.532,6851.5127,
167.621,6820.5107,
164.711,6719.0995,
161.800,6564.8363,
158.890,6358.9942,
155.979,5982.8042,
153.068,5558.2383,
150.158,5064.3292,
147.247,4383.7105,
144.337,3627.0864,
141.426,2865.1213,
138.516,2129.5909,
135.605,1523.6216,
132.694,1037.6694,
129.784,669.33849,
126.873,449.79363,
123.963,301.55424,
121.052,204.7112,
118.141,158.30757,
115.231,114.06964,
112.320,90.617733,
109.410,81.079671,
106.499,70.397343,
103.589,59.721183,
100.678,52.038513,
97.767,49.194763,
94.857,41.50212,
91.946,37.318778,
89.036,35.673408,
86.125,32.836587,
83.215,30.532239,
80.304,28.646135,
77.393,27.229795,
74.483,22.539055,
71.572,22.299113,
68.662,26.332802,
65.751,28.452156,
62.840,24.789682,
59.930,18.62671,
57.019,12.986055,
54.109,16.305126,
51.198,16.410517,
48.288,10.1703,
45.377,15.797324,
42.466,15.239465,
39.556,11.585474,
36.645,14.394235,
33.735,10.971012,
30.824,8.4503218,
27.914,12.657373,
25.003,17.483462,
22.092,17.541764,
19.182,13.131846,
16.271,43.909412,
13.361,174.97615,
10.450,409.87829,
7.539,826.77256,
4.629,982.6269,
1.718,910.80852,
-1.192,531.56189,
-4.103,215.75043,
-7.013,30.052038,
-9.924,0.125,
