,PLF9CE~1,
Raman shift [1/cm],Intensity,
3014.167,-1.375,
3011.256,0.42495705,
3008.346,126.69153,
3005.435,148.23984,
3002.525,155.92757,
2999.614,169.53537,
2996.704,156.89923,
2993.793,167.25346,
2990.882,169.14406,
2987.972,172.625,
2985.061,173.06835,
2982.151,203.56788,
2979.240,203.94154,
2976.329,200.86817,
2973.419,216.77904,
2970.508,225.89157,
2967.598,212.00733,
2964.687,222.96807,
2961.777,224.81302,
2958.866,242.28474,
2955.955,239.48342,
2953.045,249.89122,
2950.134,253.29557,
2947.224,241.42213,
2944.313,269.07443,
2941.403,264.41058,
2938.492,280.23206,
2935.581,287.46919,
2932.671,291.94257,
2929.760,278.02115,
2926.850,294.63214,
2923.939,290.10632,
2921.028,274.06606,
2918.118,311.00409,
2915.207,303.625,
2912.297,315.57422,
2909.386,311.21624,
2906.476,310.84971,
2903.565,300.88278,
2900.654,306.23673,
2897.744,328.15983,
2894.833,293.27445,
2891.923,315.08661,
2889.012,311.45737,
2886.102,309.79257,
2883.191,313.61839,
2880.280,291.81638,
2877.370,281.33429,
2874.459,280.43649,
2871.549,310.45398,
2868.638,323.12602,
2865.727,312.04806,
2862.817,309.88169,
2859.906,335.16916,
2856.996,328.63859,
2854.085,327.38551,
2851.175,321.41114,
2848.264,317.20334,
2845.353,327.64657,
2842.443,327.42709,
2839.532,337.26672,
2836.622,307.47331,
2833.711,309.25452,
2830.801,313.42353,
2827.890,321.22461,
2824.979,310.18092,
2822.069,331.47716,
2819.158,320.90533,
2816.248,308.18869,
2813.337,328.73841,
2810.427,321.49966,
2807.516,325.25078,
2804.605,327.99038,
2801.695,327.28291,
2798.784,331.625,
2795.874,331.77541,
2792.963,323.33926,
2790.052,308.628,
2787.142,327.71704,
2784.231,318.49612,
2781.321,349.30493,
2778.410,332.94479,
2775.500,329.96638,
2772.589,332.39411,
2769.678,334.33829,
2766.768,337.0017,
2763.857,333.57298,
2760.947,342.65022,
2758.036,329.68222,
2755.126,359.24466,
2752.215,349.1158,
2749.304,348.60341,
2746.394,332.80037,
2743.483,351.77497,
2740.573,342.54308,
2737.662,341.30547,
2734.751,341.13485,
2731.841,351.46383,
2728.930,364.82843,
2726.020,350.83912,
2723.109,345.51158,
2720.199,372.29393,
2717.288,360.85129,
2714.377,359.69188,
2711.467,353.59204,
2708.556,363.71005,
2705.646,361.39964,
2702.735,360.47295,
2699.825,376.58137,
2696.914,385.91092,
2694.003,377.212,
2691.093,365.8392,
2688.182,355.98796,
2685.272,378.02329,
2682.361,378.68395,
2679.450,372.625,
2676.540,395.34046,
2673.629,381.625,
2670.719,381.625,
2667.808,361.64635,
2664.898,383.02773,
2661.987,381.29178,
2659.076,369.9138,
2656.166,392.49517,
2653.255,391.76956,
2650.345,377.3201,
2647.434,410.79648,
2644.524,405.28924,
2641.613,396.36793,
2638.702,387.78281,
2635.792,396.6569,
2632.881,399.7082,
2629.971,398.64509,
2627.060,411.79281,
2624.149,403.54375,
2621.239,396.3587,
2618.328,408.75216,
2615.418,410.29773,
2612.507,410.72776,
2609.597,424.43139,
2606.686,422.53462,
2603.775,412.82739,
2600.865,423.68303,
2597.954,397.2958,
2595.044,415.25034,
2592.133,424.625,
2589.223,441.56502,
2586.312,430.82097,
2583.401,434.82937,
2580.491,434.80288,
2577.580,441.59034,
2574.670,425.60627,
2571.759,437.52397,
2568.848,433.33217,
2565.938,443.33945,
2563.027,431.87039,
2560.117,450.26052,
2557.206,450.625,
2554.296,450.70738,
2551.385,447.13711,
2548.474,447.25437,
2545.564,441.625,
2542.653,446.32969,
2539.743,458.13116,
2536.832,465.93155,
2533.922,447.83,
2531.011,458.97514,
2528.100,464.75395,
2525.190,452.27951,
2522.279,466.20292,
2519.369,458.83247,
2516.458,464.40474,
2513.548,486.04291,
2510.637,465.87093,
2507.726,468.68819,
2504.816,467.75014,
2501.905,468.625,
2498.995,462.40135,
2496.084,470.33229,
2493.173,478.30977,
2490.263,488.63629,
2487.352,490.83207,
2484.442,474.90337,
2481.531,493.78976,
2478.621,507.92833,
2475.710,497.55599,
2472.799,491.58461,
2469.889,508.38125,
2466.978,500.02722,
2464.068,520.43991,
2461.157,519.08504,
2458.247,505.80139,
2455.336,503.87941,
2452.425,513.86557,
2449.515,515.11565,
2446.604,509.8117,
2443.694,504.09049,
2440.783,518.10248,
2437.872,537.36975,
2434.962,530.09966,
2432.051,534.96462,
2429.141,537.35447,
2426.230,521.60287,
2423.320,525.29609,
2420.409,537.73401,
2417.498,530.43679,
2414.588,533.34741,
2411.677,531.09116,
2408.767,546.15453,
2405.856,545.65123,
2402.946,551.00033,
2400.035,553.12969,
2397.124,543.45385,
2394.214,569.29781,
2391.303,551.12771,
2388.393,568.8227,
2385.482,547.77061,
2382.571,551.09298,
2379.661,562.13665,
2376.750,560.20381,
2373.840,566.1156,
2370.929,570.59251,
2368.019,589.69767,
2365.108,582.41558,
2362.197,591.38942,
2359.287,588.64171,
2356.376,578.63909,
2353.466,595.21574,
2350.555,592.48982,
2347.645,585.21705,
2344.734,585.625,
2341.823,590.54208,
2338.913,596.7101,
2336.002,601.16341,
2333.092,588.45238,
2330.181,585.55342,
2327.270,584.45998,
2324.360,605.43159,
2321.449,612.24065,
2318.539,619.71064,
2315.628,595.72731,
2312.718,609.23955,
2309.807,625.73693,
2306.896,615.13674,
2303.986,625.71596,
2301.075,622.51866,
2298.165,614.02882,
2295.254,630.25877,
2292.344,626.83243,
2289.433,632.57863,
2286.522,636.54005,
2283.612,633.68365,
2280.701,634.27969,
2277.791,643.9456,
2274.880,647.55908,
2271.969,633.78549,
2269.059,642.32801,
2266.148,681.91381,
2263.238,673.03428,
2260.327,663.69397,
2257.417,670.55555,
2254.506,680.72468,
2251.595,684.75217,
2248.685,669.63664,
2245.774,673.14125,
2242.864,710.29087,
2239.953,682.76971,
2237.043,694.66323,
2234.132,681.17565,
2231.221,675.94022,
2228.311,693.63142,
2225.400,700.01904,
2222.490,715.48172,
2219.579,721.91548,
2216.669,721.11308,
2213.758,728.19102,
2210.847,724.17665,
2207.937,724.54356,
2205.026,758.84716,
2202.116,768.22902,
2199.205,793.74971,
2196.294,799.063,
2193.384,805.01951,
2190.473,813.63087,
2187.563,828.64917,
2184.652,835.88418,
2181.742,850.98893,
2178.831,877.29046,
2175.920,921.11135,
2173.010,959.72704,
2170.099,982.62352,
2167.189,990.04118,
2164.278,1053.7878,
2161.368,1103.3376,
2158.457,1141.4376,
2155.546,1179.1385,
2152.636,1229.71,
2149.725,1280.5713,
2146.815,1292.4915,
2143.904,1336.0302,
2140.993,1351.6514,
2138.083,1367.4608,
2135.172,1386.0536,
2132.262,1370.2157,
2129.351,1324.6627,
2126.441,1303.1395,
2123.530,1234.2322,
2120.619,1193.4326,
2117.709,1136.6942,
2114.798,1068.7556,
2111.888,1026.7881,
2108.977,973.57199,
2106.067,949.10824,
2103.156,915.19127,
2100.245,841.63378,
2097.335,855.86584,
2094.424,853.79541,
2091.514,838.40723,
2088.603,811.26564,
2085.692,804.17509,
2082.782,818.45229,
2079.871,809.76736,
2076.961,792.65825,
2074.050,826.80076,
2071.140,806.92414,
2068.229,791.43489,
2065.318,800.47675,
2062.408,791.73091,
2059.497,804.46432,
2056.587,786.4162,
2053.676,793.2238,
2050.766,800.39406,
2047.855,791.28325,
2044.944,779.625,
2042.034,786.49793,
2039.123,797.74285,
2036.213,785.02726,
2033.302,791.27724,
2030.391,803.08221,
2027.481,816.83227,
2024.570,817.78217,
2021.660,794.10323,
2018.749,810.43505,
2015.839,807.77723,
2012.928,820.01594,
2010.017,807.8074,
2007.107,800.32408,
2004.196,815.76788,
2001.286,808.93598,
1998.375,797.14567,
1995.465,795.625,
1992.554,802.6367,
1989.643,813.27936,
1986.733,804.87588,
1983.822,792.18925,
1980.912,792.20888,
1978.001,789.09069,
1975.090,804.43721,
1972.180,779.35109,
1969.269,786.49579,
1966.359,792.40857,
1963.448,796.77428,
1960.538,789.45235,
1957.627,791.97485,
1954.716,803.309,
1951.806,817.27725,
1948.895,808.20196,
1945.985,793.66748,
1943.074,808.07508,
1940.164,817.86523,
1937.253,797.01649,
1934.342,801.76189,
1931.432,817.04771,
1928.521,808.18286,
1925.611,804.34577,
1922.700,779.29904,
1919.790,827.74576,
1916.879,833.83425,
1913.968,808.65574,
1911.058,837.03941,
1908.147,808.11545,
1905.237,775.35301,
1902.326,811.98797,
1899.415,801.67256,
1896.505,797.97443,
1893.594,798.44511,
1890.684,794.10866,
1887.773,799.97829,
1884.863,824.39721,
1881.952,820.97765,
1879.041,822.1899,
1876.131,815.66683,
1873.220,786.60277,
1870.310,792.83574,
1867.399,823.14519,
1864.489,844.75571,
1861.578,800.58639,
1858.667,815.66395,
1855.757,803.98419,
1852.846,838.06606,
1849.936,810.27564,
1847.025,834.44494,
1844.114,848.61323,
1841.204,842.46766,
1838.293,833.63332,
1835.383,835.72949,
1832.472,835.69457,
1829.562,849.51146,
1826.651,886.29232,
1823.740,875.32994,
1820.830,839.61689,
1817.919,843.02627,
1815.009,854.18734,
1812.098,839.46753,
1809.188,862.95052,
1806.277,832.35535,
1803.366,880.12591,
1800.456,852.1638,
1797.545,878.90158,
1794.635,880.72199,
1791.724,877.43079,
1788.813,894.4286,
1785.903,907.96995,
1782.992,912.13766,
1780.082,898.70859,
1777.171,883.9553,
1774.261,879.92515,
1771.350,900.54,
1768.439,902.8364,
1765.529,895.98983,
1762.618,909.42251,
1759.708,918.69025,
1756.797,912.48106,
1753.887,908.00984,
1750.976,922.41819,
1748.065,936.76939,
1745.155,932.96054,
1742.244,939.88132,
1739.334,949.04853,
1736.423,949.21192,
1733.512,952.99087,
1730.602,959.86112,
1727.691,947.80711,
1724.781,940.47869,
1721.870,963.768,
1718.960,984.42518,
1716.049,992.65885,
1713.138,1007.3049,
1710.228,1025.2903,
1707.317,1004.6261,
1704.407,1047.4433,
1701.496,1052.625,
1698.586,1046.1571,
1695.675,1013.8109,
1692.764,1089.2562,
1689.854,1066.8376,
1686.943,1081.0854,
1684.033,1094.3021,
1681.122,1086.7609,
1678.211,1092.5679,
1675.301,1123.5294,
1672.390,1161.5442,
1669.480,1135.4272,
1666.569,1234.752,
1663.659,1244.5107,
1660.748,1239.2254,
1657.837,1319.9252,
1654.927,1288.8359,
1652.016,1299.3016,
1649.106,1366.4781,
1646.195,1360.9607,
1643.285,1375.377,
1640.374,1408.3149,
1637.463,1440.661,
1634.553,1443.7481,
1631.642,1519.8519,
1628.732,1632.0339,
1625.821,1700.6734,
1622.911,1774.208,
1620.000,1916.8108,
1617.089,2050.9384,
1614.179,2145.9459,
1611.268,2294.974,
1608.358,2339.7053,
1605.447,2402.9112,
1602.536,2402.8975,
1599.626,2502.8977,
1596.715,2486.2122,
1593.805,2403.1351,
1590.894,2383.057,
1587.984,2375.5624,
1585.073,2345.6972,
1582.162,2380.6995,
1579.252,2356.7113,
1576.341,2326.3942,
1573.431,2327.6736,
1570.520,2325.8031,
1567.610,2273.9576,
1564.699,2266.0504,
1561.788,2262.5828,
1558.878,2185.8866,
1555.967,2090.8438,
1553.057,2076.211,
1550.146,2042.6069,
1547.235,1974.8925,
1544.325,1964.722,
1541.414,1915.9784,
1538.504,1882.6633,
1535.593,1871.9232,
1532.683,1829.5995,
1529.772,1815.7625,
1526.861,1791.6923,
1523.951,1752.7796,
1521.040,1741.1993,
1518.130,1724.031,
1515.219,1707.3445,
1512.309,1712.9808,
1509.398,1676.1212,
1506.487,1673.5225,
1503.577,1684.5677,
1500.666,1668.5957,
1497.756,1637.4641,
1494.845,1647.7851,
1491.934,1651.4108,
1489.024,1585.9613,
1486.113,1568.7896,
1483.203,1612.0334,
1480.292,1541.259,
1477.382,1568.0374,
1474.471,1551.5341,
1471.560,1500.8107,
1468.650,1510.5894,
1465.739,1487.398,
1462.829,1479.5613,
1459.918,1467.7353,
1457.008,1472.4406,
1454.097,1494.0115,
1451.186,1503.5264,
1448.276,1503.9249,
1445.365,1499.4489,
1442.455,1518.5122,
1439.544,1489.1572,
1436.633,1485.344,
1433.723,1500.1476,
1430.812,1449.0288,
1427.902,1466.5348,
1424.991,1462.7438,
1422.081,1433.2657,
1419.170,1444.45,
1416.259,1446.625,
1413.349,1475.3242,
1410.438,1398.5521,
1407.528,1421.493,
1404.617,1490.4398,
1401.707,1488.0681,
1398.796,1455.1285,
1395.885,1455.133,
1392.975,1474.6461,
1390.064,1480.0331,
1387.154,1465.924,
1384.243,1457.2445,
1381.332,1423.305,
1378.422,1399.8614,
1375.511,1462.6258,
1372.601,1560.3899,
1369.690,1625.2017,
1366.780,1652.8418,
1363.869,1672.881,
1360.958,1749.2681,
1358.048,1730.447,
1355.137,1747.8218,
1352.227,1826.9062,
1349.316,1845.683,
1346.406,1848.7245,
1343.495,1907.8776,
1340.584,1911.5174,
1337.674,1937.7674,
1334.763,1932.8833,
1331.853,1992.226,
1328.942,1938.5888,
1326.032,1999.3215,
1323.121,2033.1491,
1320.210,2058.9367,
1317.300,2052.6887,
1314.389,2091.4732,
1311.479,2135.5668,
1308.568,2155.3316,
1305.657,2186.1057,
1302.747,2176.6418,
1299.836,2262.5047,
1296.926,2315.0006,
1294.015,2387.6272,
1291.105,2468.1127,
1288.194,2524.1534,
1285.283,2586.4612,
1282.373,2649.6561,
1279.462,2684.5072,
1276.552,2719.57,
1273.641,2765.05,
1270.731,2787.1548,
1267.820,2777.8083,
1264.909,2760.3398,
1261.999,2794.5917,
1259.088,2793.6796,
1256.178,2707.1229,
1253.267,2659.6356,
1250.356,2632.0164,
1247.446,2535.6159,
1244.535,2449.8394,
1241.625,2374.7585,
1238.714,2290.5955,
1235.804,2251.4018,
1232.893,2180.3785,
1229.982,2160.7614,
1227.072,2046.692,
1224.161,2026.0174,
1221.251,2014.6909,
1218.340,1973.4041,
1215.430,1943.8164,
1212.519,1905.3846,
1209.608,1875.0669,
1206.698,1893.7315,
1203.787,1904.7305,
1200.877,1887.0797,
1197.966,1942.8276,
1195.055,1967.8095,
1192.145,2052.0187,
1189.234,2085.1129,
1186.324,2137.1751,
1183.413,2172.3255,
1180.503,2164.9505,
1177.592,2162.4634,
1174.681,2158.4983,
1171.771,2155.5851,
1168.860,2067.1692,
1165.950,2061.8502,
1163.039,2030.4985,
1160.129,2008.9569,
1157.218,1995.9332,
1154.307,1972.413,
1151.397,1944.8002,
1148.486,1938.576,
1145.576,1932.1624,
1142.665,1921.5075,
1139.754,1888.8935,
1136.844,1878.8238,
1133.933,1865.3084,
1131.023,1862.7622,
1128.112,1846.7712,
1125.202,1815.2868,
1122.291,1843.7449,
1119.380,1830.6943,
1116.470,1837.7545,
1113.559,1885.0199,
1110.649,1872.4312,
1107.738,1848.4445,
1104.828,1844.6182,
1101.917,1862.8681,
1099.006,1879.2851,
1096.096,1832.1301,
1093.185,1856.7142,
1090.275,1857.8157,
1087.364,1828.8078,
1084.453,1835.3112,
1081.543,1845.3663,
1078.632,1832.3571,
1075.722,1816.5563,
1072.811,1808.3696,
1069.901,1818.8488,
1066.990,1860.0416,
1064.079,1870.986,
1061.169,1869.4158,
1058.258,1881.1765,
1055.348,1896.9794,
1052.437,1901.7762,
1049.527,1959.0949,
1046.616,1971.2585,
1043.705,1934.0867,
1040.795,1941.1416,
1037.884,1980.452,
1034.974,2006.018,
1032.063,2007.3479,
1029.153,2022.7169,
1026.242,1998.4981,
1023.331,2042.6221,
1020.421,2043.2598,
1017.510,2055.3127,
1014.600,2087.0798,
1011.689,2111.6295,
1008.778,2117.3276,
1005.868,2180.2582,
1002.957,2250.8073,
1000.047,2308.945,
997.136,2361.2772,
994.226,2376.7021,
991.315,2370.1918,
988.404,2379.328,
985.494,2371.4358,
982.583,2318.3294,
979.673,2319.4048,
976.762,2332.0186,
973.852,2342.1611,
970.941,2349.5888,
968.030,2350.1625,
965.120,2313.7503,
962.209,2343.5893,
959.299,2340.8343,
956.388,2342.1047,
953.477,2360.011,
950.567,2371.998,
947.656,2345.174,
944.746,2326.4837,
941.835,2364.496,
938.925,2355.8576,
936.014,2322.8512,
933.103,2311.6302,
930.193,2321.4398,
927.282,2272.4417,
924.372,2269.0593,
921.461,2229.5958,
918.551,2191.2258,
915.640,2170.2255,
912.729,2154.0857,
909.819,2123.0698,
906.908,2126.4395,
903.998,2124.2389,
901.087,2138.2646,
898.176,2174.3023,
895.266,2218.2732,
892.355,2250.4521,
889.445,2265.5589,
886.534,2286.4968,
883.624,2313.5013,
880.713,2333.8114,
877.802,2346.0989,
874.892,2346.7419,
871.981,2319.6978,
869.071,2280.4334,
866.160,2301.2234,
863.250,2314.6734,
860.339,2325.2903,
857.428,2333.6335,
854.518,2294.5899,
851.607,2258.8109,
848.697,2207.2291,
845.786,2191.8147,
842.875,2197.6736,
839.965,2199.625,
837.054,2199.3738,
834.144,2176.9975,
831.233,2195.29,
828.323,2189.315,
825.412,2148.4437,
822.501,2100.5186,
819.591,2105.477,
816.680,2086.3942,
813.770,2058.4444,
810.859,2045.0762,
807.949,2048.6567,
805.038,2053.3396,
802.127,2026.1764,
799.217,2048.2229,
796.306,2017.4625,
793.396,1989.9609,
790.485,1999.1001,
787.574,2019.6561,
784.664,2020.4762,
781.753,2004.5214,
778.843,2016.2283,
775.932,2023.3536,
773.022,1995.9074,
770.111,2010.6238,
767.200,2005.5345,
764.290,1995.5347,
761.379,1997.5024,
758.469,2013.8103,
755.558,2028.5552,
752.648,1992.7127,
749.737,1972.5692,
746.826,1948.3748,
743.916,1906.0078,
741.005,1835.3365,
738.095,1726.545,
735.184,1570.6131,
732.274,1503.6329,
729.363,1564.2247,
726.452,1732.1761,
723.542,1901.3393,
720.631,1927.4449,
717.721,1958.9759,
714.810,1977.483,
711.899,1976.0012,
708.989,1977.6151,
706.078,1959.9963,
703.168,1928.3001,
700.257,1909.3873,
697.347,1914.7982,
694.436,1939.7958,
691.525,1909.2512,
688.615,1908.2852,
685.704,1909.0348,
682.794,1914.5185,
679.883,1943.7331,
676.973,1946.1372,
674.062,1912.8067,
671.151,1890.1184,
668.241,1891.5812,
665.330,1912.7427,
662.420,1957.4717,
659.509,1934.8784,
656.598,1914.4613,
653.688,1898.0525,
650.777,1854.2721,
647.867,1902.8482,
644.956,1933.4378,
642.046,1940.6498,
639.135,1931.5289,
636.224,1923.7324,
633.314,1945.1688,
630.403,1929.3414,
627.493,1938.8217,
624.582,1973.5639,
621.672,1955.348,
618.761,1984.2626,
615.850,1988.6661,
612.940,1993.1634,
610.029,2015.1489,
607.119,2048.3134,
604.208,2010.4442,
601.297,2002.5983,
598.387,2015.0646,
595.476,2020.8767,
592.566,1991.7551,
589.655,1980.1461,
586.745,1941.9075,
583.834,1899.4796,
580.923,1909.7719,
578.013,1934.0987,
575.102,1937.7571,
572.192,1913.8306,
569.281,1889.6692,
566.371,1973.4099,
563.460,1971.7484,
560.549,1971.5232,
557.639,1977.2364,
554.728,1982.5612,
551.818,1997.3872,
548.907,1977.4673,
545.996,1978.9542,
543.086,2014.0197,
540.175,2057.6239,
537.265,2064.2464,
534.354,2083.1842,
531.444,2080.5616,
528.533,2030.5564,
525.622,2057.7145,
522.712,2101.2437,
519.801,2126.0069,
516.891,2135.5458,
513.980,2179.6807,
511.070,2216.025,
508.159,2238.2212,
505.248,2261.6453,
502.338,2305.1387,
499.427,2356.8514,
496.517,2382.5038,
493.606,2411.8145,
490.695,2448.7364,
487.785,2427.9521,
484.874,2424.625,
481.964,2436.6681,
479.053,2447.3738,
476.143,2421.2631,
473.232,2406.6757,
470.321,2395.2995,
467.411,2370.8968,
464.500,2319.2456,
461.590,2343.7493,
458.679,2365.483,
455.769,2384.5564,
452.858,2399.7841,
449.947,2401.3119,
447.037,2386.456,
444.126,2386.2371,
441.216,2411.7529,
438.305,2464.3262,
435.395,2465.0686,
432.484,2469.5433,
429.573,2480.625,
426.663,2480.625,
423.752,2505.0347,
420.842,2514.7116,
417.931,2514.0559,
415.020,2515.5727,
412.110,2508.3089,
409.199,2544.2558,
406.289,2586.5928,
403.378,2592.4969,
400.468,2554.6972,
397.557,2570.3891,
394.646,2579.1175,
391.736,2531.456,
388.825,2526.1764,
385.915,2490.0324,
383.004,2484.7528,
380.094,2550.8497,
377.183,2614.0577,
374.272,2688.6169,
371.362,2730.1498,
368.451,2719.2297,
365.541,2795.0338,
362.630,2797.5991,
359.719,2786.4726,
356.809,2795.4891,
353.898,2793.2427,
350.988,2802.3898,
348.077,2802.4936,
345.167,2782.5115,
342.256,2780.2703,
339.345,2827.4539,
336.435,2843.5313,
333.524,2775.4841,
330.614,2771.0131,
327.703,2801.4561,
324.793,2825.1802,
321.882,2806.7025,
318.971,2838.6706,
316.061,2862.8095,
313.150,2885.8631,
310.240,2915.5477,
307.329,2963.0764,
304.418,2986.6405,
301.508,2986.3234,
298.597,2962.6301,
295.687,2941.6623,
292.776,2955.5418,
289.866,3024.9907,
286.955,3202.2848,
284.044,3318.7049,
281.134,3429.7602,
278.223,3550.289,
275.313,3698.3969,
272.402,3745.8903,
269.492,3774.1013,
266.581,3817.5076,
263.670,3927.7846,
260.760,3992.5351,
257.849,4033.66,
254.939,4065.2169,
252.028,4043.1858,
249.117,4039.1933,
246.207,4031.9345,
243.296,3982.888,
240.386,3927.9976,
237.475,3873.9635,
234.565,3817.6615,
231.654,3741.7016,
228.743,3662.3345,
225.833,3597.0263,
222.922,3549.1892,
220.012,3432.6204,
217.101,3382.3571,
214.191,3344.9277,
211.280,3262.7244,
208.369,3292.9569,
205.459,3271.4985,
202.548,3218.1403,
199.638,3250.0689,
196.727,3237.0337,
193.816,3208.4769,
190.906,3176.6408,
187.995,3205.6018,
185.085,3221.7721,
182.174,3239.3986,
179.264,3279.1507,
176.353,3285.5473,
173.442,3316.7173,
170.532,3365.6767,
167.621,3331.7908,
164.711,3284.7841,
161.800,3219.6587,
158.890,3128.973,
155.979,2970.5648,
153.068,2772.4889,
150.158,2525.9942,
147.247,2181.3771,
144.337,1838.0734,
141.426,1483.974,
138.516,1111.9075,
135.605,813.8289,
132.694,562.93755,
129.784,361.81719,
126.873,234.52408,
123.963,157.97776,
121.052,109.1433,
118.141,82.728925,
115.231,57.044467,
112.320,38.999553,
109.410,28.215934,
106.499,26.079469,
103.589,31.787799,
100.678,33.36554,
97.767,24.834289,
94.857,25.317989,
91.946,21.997002,
89.036,16.850796,
86.125,18.269206,
83.215,13.315796,
80.304,6.4701058,
77.393,0.096576403,
74.483,9.4520244,
71.572,14.987352,
68.662,14.447453,
65.751,2.4377842,
62.840,6.8139337,
59.930,13.564852,
57.019,5.80895,
54.109,7.6108042,
51.198,6.307298,
48.288,-1.2900634,
45.377,9.2606076,
42.466,11.151684,
39.556,7.3947628,
36.645,5.9903824,
33.735,7.1827454,
30.824,8.625,
27.914,8.625,
25.003,10.492912,
22.092,12.593714,
19.182,14.625,
16.271,14.625,
13.361,63.935583,
10.450,143.16322,
7.539,210.20149,
4.629,95.445806,
1.718,-117.10908,
-1.192,-406.42406,
-4.103,-347.97089,
-7.013,-199.4246,
-9.924,-0.375,
