,PL7E40~1,
Raman shift [1/cm],Intensity,
3014.167,-2.625,
3011.256,1.2250752,
3008.346,88.177312,
3005.435,112.95097,
3002.525,116.30006,
2999.614,123.22696,
2996.704,137.82654,
2993.793,138.50806,
2990.882,130.68035,
2987.972,130.45067,
2985.061,139.61145,
2982.151,144.70442,
2979.240,156.25999,
2976.329,159.39684,
2973.419,161.80529,
2970.508,177.05836,
2967.598,169.94849,
2964.687,172.77853,
2961.777,186.9308,
2958.866,177.70784,
2955.955,204.17585,
2953.045,187.59426,
2950.134,207.58783,
2947.224,208.54581,
2944.313,218.41987,
2941.403,207.73175,
2938.492,203.13112,
2935.581,224.48788,
2932.671,226.21621,
2929.760,232.375,
2926.850,220.05432,
2923.939,233.81425,
2921.028,226.35725,
2918.118,241.1949,
2915.207,246.26115,
2912.297,228.46809,
2909.386,252.17792,
2906.476,246.11939,
2903.565,255.55353,
2900.654,233.0929,
2897.744,237.375,
2894.833,241.911,
2891.923,246.7532,
2889.012,248.12644,
2886.102,248.20743,
2883.191,230.39482,
2880.280,245.17404,
2877.370,223.09595,
2874.459,226.66437,
2871.549,241.33558,
2868.638,254.87602,
2865.727,250.24041,
2862.817,257.13301,
2859.906,250.0844,
2856.996,267.35689,
2854.085,255.53043,
2851.175,267.7816,
2848.264,258.75217,
2845.353,273.4397,
2842.443,267.98962,
2839.532,256.15111,
2836.622,257.22331,
2833.711,253.74548,
2830.801,256.77059,
2827.890,275.00088,
2824.979,271.67105,
2822.069,273.43186,
2819.158,272.67419,
2816.248,272.34026,
2813.337,270.30304,
2810.427,284.41908,
2807.516,269.9075,
2804.605,270.39664,
2801.695,266.45393,
2798.784,266.85754,
2795.874,255.65468,
2792.963,267.16085,
2790.052,265.37607,
2787.142,264.92769,
2784.231,258.60172,
2781.321,254.44362,
2778.410,272.44987,
2775.500,268.48224,
2772.589,291.9507,
2769.678,272.44668,
2766.768,272.9983,
2763.857,277.00699,
2760.947,276.34978,
2758.036,270.68072,
2755.126,288.32586,
2752.215,283.33398,
2749.304,289.33182,
2746.394,276.08272,
2743.483,273.42493,
2740.573,279.39045,
2737.662,292.59837,
2734.751,282.76836,
2731.841,279.72665,
2728.930,286.20987,
2726.020,284.50289,
2723.109,291.16892,
2720.199,293.74682,
2717.288,299.11222,
2714.377,293.76254,
2711.467,305.93215,
2708.556,311.68363,
2705.646,310.75529,
2702.735,294.71521,
2699.825,300.88591,
2696.914,306.04183,
2694.003,298.53109,
2691.093,309.9466,
2688.182,303.68315,
2685.272,303.375,
2682.361,309.28657,
2679.450,310.58902,
2676.540,303.49694,
2673.629,312.69337,
2670.719,317.44801,
2667.808,317.32636,
2664.898,295.93336,
2661.987,314.54194,
2659.076,293.07976,
2656.166,324.6174,
2653.255,319.30527,
2650.345,316.78335,
2647.434,331.28926,
2644.524,335.39421,
2641.613,331.71755,
2638.702,322.43812,
2635.792,324.3112,
2632.881,339.57134,
2629.971,348.60993,
2627.060,338.54281,
2624.149,333.50937,
2621.239,338.375,
2618.328,325.96842,
2615.418,340.37046,
2612.507,342.99555,
2609.597,336.10953,
2606.686,327.12802,
2603.775,343.97818,
2600.865,359.72655,
2597.954,343.0458,
2595.044,357.03576,
2592.133,353.48323,
2589.223,342.35078,
2586.312,369.12881,
2583.401,347.53921,
2580.491,357.07207,
2577.580,359.38325,
2574.670,366.31216,
2571.759,369.72346,
2568.848,374.13746,
2565.938,350.80347,
2563.027,358.8864,
2560.117,372.25355,
2557.206,388.99124,
2554.296,370.91962,
2551.385,375.74697,
2548.474,388.56051,
2545.564,363.41963,
2542.653,370.01593,
2539.743,379.57216,
2536.832,383.76379,
2533.922,372.64308,
2531.011,386.35026,
2528.100,379.97431,
2525.190,382.95615,
2522.279,384.18741,
2519.369,383.69555,
2516.458,385.81551,
2513.548,383.80224,
2510.637,390.42021,
2507.726,400.12963,
2504.816,381.87443,
2501.905,395.41829,
2498.995,374.50966,
2496.084,388.38891,
2493.173,398.16507,
2490.263,403.8021,
2487.352,402.29153,
2484.442,400.6598,
2481.531,403.48136,
2478.621,404.60722,
2475.710,407.42101,
2472.799,415.10144,
2469.889,411.64922,
2466.978,397.3235,
2464.068,427.93596,
2461.157,413.45005,
2458.247,401.9632,
2455.336,421.7762,
2452.425,427.24292,
2449.515,418.09226,
2446.604,428.96487,
2443.694,424.63075,
2440.783,410.42004,
2437.872,432.33854,
2434.962,432.16302,
2432.051,434.86266,
2429.141,436.79851,
2426.230,457.00599,
2423.320,451.64665,
2420.409,445.02239,
2417.498,451.76826,
2414.588,452.55751,
2411.677,475.47854,
2408.767,453.65157,
2405.856,454.74646,
2402.946,452.48224,
2400.035,453.47594,
2397.124,459.83488,
2394.214,475.2678,
2391.303,463.54641,
2388.393,462.05178,
2385.482,450.16811,
2382.571,474.21047,
2379.661,459.97989,
2376.750,465.73689,
2373.840,472.25631,
2370.929,494.09343,
2368.019,486.91686,
2365.108,483.09751,
2362.197,472.1531,
2359.287,490.54325,
2356.376,474.41022,
2353.466,485.17809,
2350.555,484.375,
2347.645,480.82269,
2344.734,475.22292,
2341.823,491.09309,
2338.913,503.59887,
2336.002,495.375,
2333.092,505.51275,
2330.181,523.18316,
2327.270,526.375,
2324.360,527.03068,
2321.449,515.78996,
2318.539,507.31077,
2315.628,514.83663,
2312.718,503.47631,
2309.807,517.71657,
2306.896,517.08391,
2303.986,513.992,
2301.075,526.67289,
2298.165,517.99027,
2295.254,528.11648,
2292.344,515.10941,
2289.433,521.35182,
2286.522,537.9641,
2283.612,538.67344,
2280.701,537.16422,
2277.791,533.73567,
2274.880,539.37906,
2271.969,540.75361,
2269.059,557.58208,
2266.148,533.48852,
2263.238,537.96959,
2260.327,572.0991,
2257.417,561.02112,
2254.506,543.03884,
2251.595,545.66594,
2248.685,559.05186,
2245.774,569.88042,
2242.864,564.18049,
2239.953,561.83016,
2237.043,563.76464,
2234.132,578.14117,
2231.221,583.69022,
2228.311,590.94329,
2225.400,561.27565,
2222.490,591.26097,
2219.579,587.40071,
2216.669,596.83923,
2213.758,607.63644,
2210.847,619.04753,
2207.937,601.23008,
2205.026,621.37588,
2202.116,602.61915,
2199.205,619.84982,
2196.294,628.99498,
2193.384,633.375,
2190.473,657.39848,
2187.563,648.433,
2184.652,661.88112,
2181.742,676.87581,
2178.831,692.375,
2175.920,718.02164,
2173.010,769.72761,
2170.099,785.84127,
2167.189,828.65485,
2164.278,871.77701,
2161.368,909.65923,
2158.457,956.47283,
2155.546,1012.0097,
2152.636,1092.7259,
2149.725,1135.5159,
2146.815,1153.8745,
2143.904,1195.3787,
2140.993,1208.0998,
2138.083,1221.834,
2135.172,1220.9044,
2132.262,1228.6408,
2129.351,1230.0888,
2126.441,1162.1127,
2123.530,1149.6567,
2120.619,1078.8065,
2117.709,1020.0364,
2114.798,974.00176,
2111.888,924.21369,
2108.977,871.03723,
2106.067,819.73125,
2103.156,796.05731,
2100.245,780.35053,
2097.335,736.91951,
2094.424,708.68329,
2091.514,712.72169,
2088.603,700.12152,
2085.692,681.73202,
2082.782,666.78865,
2079.871,669.01794,
2076.961,684.34175,
2074.050,680.69621,
2071.140,666.57047,
2068.229,661.01433,
2065.318,668.47476,
2062.408,682.92795,
2059.497,673.96428,
2056.587,656.18918,
2053.676,665.89072,
2050.766,668.45198,
2047.855,624.4572,
2044.944,661.90705,
2042.034,658.97607,
2039.123,632.25379,
2036.213,625.68169,
2033.302,641.61399,
2030.391,646.7988,
2027.481,649.09448,
2024.570,629.30413,
2021.660,637.60632,
2018.749,638.33701,
2015.839,636.70243,
2012.928,632.375,
2010.017,640.81583,
2007.107,645.39554,
2004.196,650.9227,
2001.286,646.18424,
1998.375,616.54527,
1995.465,639.69285,
1992.554,644.74561,
1989.643,610.58473,
1986.733,618.05395,
1983.822,614.49095,
1980.912,623.95888,
1978.001,620.84069,
1975.090,631.00705,
1972.180,615.47873,
1969.269,615.77156,
1966.359,637.18605,
1963.448,609.3882,
1960.538,621.34331,
1957.627,595.2759,
1954.716,594.28882,
1951.806,609.88466,
1948.895,584.81827,
1945.985,605.51552,
1943.074,591.00974,
1940.164,583.79811,
1937.253,579.05776,
1934.342,571.89639,
1931.432,562.82926,
1928.521,542.03648,
1925.611,544.74503,
1922.700,571.32665,
1919.790,555.84345,
1916.879,548.654,
1913.968,521.4082,
1911.058,545.11073,
1908.147,539.64798,
1905.237,537.50741,
1902.326,577.80314,
1899.415,576.54937,
1896.505,536.75431,
1893.594,527.09153,
1890.684,540.11362,
1887.773,531.21986,
1884.863,546.95814,
1881.952,578.69478,
1879.041,560.38486,
1876.131,544.85997,
1873.220,539.88826,
1870.310,564.43774,
1867.399,535.8708,
1864.489,542.49183,
1861.578,547.80338,
1858.667,568.881,
1855.757,551.38574,
1852.846,546.91344,
1849.936,553.9576,
1847.025,532.8397,
1844.114,562.99619,
1841.204,553.94144,
1838.293,541.36668,
1835.383,570.42098,
1832.472,593.93326,
1829.562,566.3513,
1826.651,578.77743,
1823.740,579.27153,
1820.830,599.83979,
1817.919,552.81177,
1815.009,544.65617,
1812.098,563.32774,
1809.188,589.76254,
1806.277,607.99876,
1803.366,584.67445,
1800.456,602.10021,
1797.545,595.8077,
1794.635,591.59818,
1791.724,658.13241,
1788.813,615.5804,
1785.903,632.375,
1782.992,620.57168,
1780.082,589.58005,
1777.171,599.04524,
1774.261,621.86519,
1771.350,637.97925,
1768.439,644.61005,
1765.529,652.10184,
1762.618,648.89187,
1759.708,658.59249,
1756.797,661.38258,
1753.887,649.16946,
1750.976,637.88875,
1748.065,645.66378,
1745.155,634.85255,
1742.244,648.21192,
1739.334,642.57265,
1736.423,647.79928,
1733.512,641.00505,
1730.602,678.26395,
1727.691,673.18349,
1724.781,687.03941,
1721.870,710.88463,
1718.960,698.10813,
1716.049,701.0868,
1713.138,710.92496,
1710.228,676.69282,
1707.317,687.29729,
1704.407,728.90448,
1701.496,726.08262,
1698.586,745.70266,
1695.675,694.97532,
1692.764,769.00619,
1689.854,920.70579,
1686.943,848.1405,
1684.033,748.83379,
1681.122,738.51094,
1678.211,756.20369,
1675.301,791.26708,
1672.390,769.6322,
1669.480,854.89368,
1666.569,795.78127,
1663.659,828.24062,
1660.748,880.97273,
1657.837,910.82826,
1654.927,887.33559,
1652.016,928.54136,
1649.106,974.29783,
1646.195,933.17323,
1643.285,1006.6029,
1640.374,1017.0649,
1637.463,1050.1676,
1634.553,1093.3898,
1631.642,1095.1242,
1628.732,1163.9735,
1625.821,1264.4195,
1622.911,1331.9918,
1620.000,1445.9261,
1617.089,1530.6835,
1614.179,1681.0602,
1611.268,1719.0738,
1608.358,1842.3816,
1605.447,1965.2902,
1602.536,1993.8084,
1599.626,2026.6527,
1596.715,1968.5657,
1593.805,1940.0167,
1590.894,1951.4657,
1587.984,1905.7399,
1585.073,1866.044,
1582.162,1851.1913,
1579.252,1833.8273,
1576.341,1807.9452,
1573.431,1836.8347,
1570.520,1792.1042,
1567.610,1774.6299,
1564.699,1728.6981,
1561.788,1697.9948,
1558.878,1667.7955,
1555.967,1612.7711,
1553.057,1555.9271,
1550.146,1505.6478,
1547.235,1465.7136,
1544.325,1453.0716,
1541.414,1439.7935,
1538.504,1421.7232,
1535.593,1394.4639,
1532.683,1356.6744,
1529.772,1318.2441,
1526.861,1298.8239,
1523.951,1298.3298,
1521.040,1247.9416,
1518.130,1200.8531,
1515.219,1223.2546,
1512.309,1234.9065,
1509.398,1213.6337,
1506.487,1165.5015,
1503.577,1129.1958,
1500.666,1147.2338,
1497.756,1113.4596,
1494.845,1101.8947,
1491.934,1090.3089,
1489.024,1070.0965,
1486.113,1092.5554,
1483.203,1048.1903,
1480.292,1058.4967,
1477.382,983.78317,
1474.471,991.46589,
1471.560,1008.8087,
1468.650,998.70953,
1465.739,966.75539,
1462.829,958.93999,
1459.918,973.31984,
1457.008,984.92889,
1454.097,946.78077,
1451.186,915.42529,
1448.276,948.23026,
1445.365,956.9453,
1442.455,932.1689,
1439.544,909.7783,
1436.633,937.47232,
1433.723,943.38707,
1430.812,911.38534,
1427.902,862.45739,
1424.991,907.94998,
1422.081,890.10798,
1419.170,849.49228,
1416.259,840.94481,
1413.349,844.90645,
1410.438,811.38602,
1407.528,815.04351,
1404.617,805.41264,
1401.707,818.40196,
1398.796,853.23161,
1395.885,861.6545,
1392.975,839.72847,
1390.064,820.55875,
1387.154,857.88974,
1384.243,873.9233,
1381.332,794.44956,
1378.422,869.01737,
1375.511,900.86792,
1372.601,976.94377,
1369.690,935.37054,
1366.780,988.36171,
1363.869,1044.3312,
1360.958,1120.1149,
1358.048,1157.9014,
1355.137,1163.4264,
1352.227,1186.7934,
1349.316,1227.3728,
1346.406,1264.3827,
1343.495,1307.5858,
1340.584,1354.4098,
1337.674,1416.519,
1334.763,1434.9748,
1331.853,1450.7378,
1328.942,1481.6168,
1326.032,1504.9499,
1323.121,1576.8028,
1320.210,1602.3728,
1317.300,1664.1689,
1314.389,1688.9024,
1311.479,1699.8991,
1308.568,1742.5588,
1305.657,1762.6799,
1302.747,1801.594,
1299.836,1890.5889,
1296.926,1960.6052,
1294.015,2051.6182,
1291.105,2138.1459,
1288.194,2189.3122,
1285.283,2240.9032,
1282.373,2271.2968,
1279.462,2330.4328,
1276.552,2410.0051,
1273.641,2463.6244,
1270.731,2493.0183,
1267.820,2514.8577,
1264.909,2478.3856,
1261.999,2451.572,
1259.088,2511.772,
1256.178,2453.7101,
1253.267,2419.5919,
1250.356,2353.4539,
1247.446,2263.7687,
1244.535,2188.1653,
1241.625,2098.8566,
1238.714,1994.2024,
1235.804,1929.0256,
1232.893,1864.9975,
1229.982,1873.9832,
1227.072,1803.3689,
1224.161,1784.9269,
1221.251,1757.0617,
1218.340,1704.3238,
1215.430,1623.6699,
1212.519,1577.375,
1209.608,1609.9776,
1206.698,1667.5877,
1203.787,1658.169,
1200.877,1638.2725,
1197.966,1685.0288,
1195.055,1742.8362,
1192.145,1799.7096,
1189.234,1834.8388,
1186.324,1879.7419,
1183.413,1907.9334,
1180.503,1899.6181,
1177.592,1878.3345,
1174.681,1854.3202,
1171.771,1826.4574,
1168.860,1830.0298,
1165.950,1769.9033,
1163.039,1769.3431,
1160.129,1753.5504,
1157.218,1748.9512,
1154.307,1750.3573,
1151.397,1734.4177,
1148.486,1734.0782,
1145.576,1715.7219,
1142.665,1723.7131,
1139.754,1691.0162,
1136.844,1662.3659,
1133.933,1670.9702,
1131.023,1660.7144,
1128.112,1641.8026,
1125.202,1640.8147,
1122.291,1604.2578,
1119.380,1624.4963,
1116.470,1636.8517,
1113.559,1670.8515,
1110.649,1641.7391,
1107.738,1635.3063,
1104.828,1666.5156,
1101.917,1696.9254,
1099.006,1700.4679,
1096.096,1676.2462,
1093.185,1657.8081,
1090.275,1663.6584,
1087.364,1656.4554,
1084.453,1650.6876,
1081.543,1666.4656,
1078.632,1673.6455,
1075.722,1654.5392,
1072.811,1709.8857,
1069.901,1688.9275,
1066.990,1698.6916,
1064.079,1723.1514,
1061.169,1732.8227,
1058.258,1738.3038,
1055.348,1756.6635,
1052.437,1779.8991,
1049.527,1773.4827,
1046.616,1802.1541,
1043.705,1819.2488,
1040.795,1843.8071,
1037.884,1854.3635,
1034.974,1855.2371,
1032.063,1856.4674,
1029.153,1852.3484,
1026.242,1868.7826,
1023.331,1885.2073,
1020.421,1913.4707,
1017.510,1906.4462,
1014.600,1891.1062,
1011.689,1909.615,
1008.778,1966.9725,
1005.868,2006.0082,
1002.957,2076.5573,
1000.047,2149.255,
997.136,2243.4414,
994.226,2284.0059,
991.315,2271.1572,
988.404,2265.1324,
985.494,2247.2242,
982.583,2195.8308,
979.673,2192.0332,
976.762,2203.3557,
973.852,2197.9987,
970.941,2183.2641,
968.030,2193.3404,
965.120,2238.2246,
962.209,2202.4179,
959.299,2220.4555,
956.388,2213.0161,
953.477,2215.4051,
950.567,2234.4536,
947.656,2224.3777,
944.746,2232.0237,
941.835,2254.24,
938.925,2237.0013,
936.014,2225.375,
933.103,2216.1945,
930.193,2194.7806,
927.282,2174.1294,
924.372,2132.6947,
921.461,2143.5758,
918.551,2093.6054,
915.640,2028.3033,
912.729,2006.1827,
909.819,2035.2613,
906.908,2011.6734,
903.998,2015.9425,
901.087,2015.4655,
898.176,2031.554,
895.266,2055.7708,
892.355,2083.7092,
889.445,2170.993,
886.534,2127.1268,
883.624,2133.8501,
880.713,2173.0171,
877.802,2200.9433,
874.892,2197.1104,
871.981,2200.158,
869.071,2190.9685,
866.160,2185.9252,
863.250,2162.8827,
860.339,2155.1882,
857.428,2174.8445,
854.518,2167.7973,
851.607,2147.8276,
848.697,2106.5451,
845.786,2111.6905,
842.875,2133.7732,
839.965,2140.8654,
837.054,2160.6307,
834.144,2094.3305,
831.233,2098.0405,
828.323,2093.0216,
825.412,2070.36,
822.501,2049.8856,
819.591,2041.6216,
816.680,2001.3108,
813.770,1990.122,
810.859,1977.1915,
807.949,1958.5164,
805.038,1943.5962,
802.127,1904.0861,
799.217,1924.9729,
796.306,1938.4831,
793.396,1937.3139,
790.485,1924.1105,
787.574,1904.5307,
784.664,1908.6312,
781.753,1931.5175,
778.843,1918.361,
775.932,1913.1278,
773.022,1954.839,
770.111,1938.4875,
767.200,1947.2721,
764.290,1950.375,
761.379,1942.8915,
758.469,1927.8175,
755.558,1914.5938,
752.648,1921.9252,
749.737,1918.1527,
746.826,1886.0031,
743.916,1852.9334,
741.005,1840.8944,
738.095,1721.5485,
735.184,1624.4281,
732.274,1568.7614,
729.363,1602.8443,
726.452,1728.7934,
723.542,1830.7769,
720.631,1870.0147,
717.721,1888.3948,
714.810,1901.2272,
711.899,1914.8206,
708.989,1925.3106,
706.078,1881.3033,
703.168,1874.0183,
700.257,1870.1864,
697.347,1872.0261,
694.436,1908.8475,
691.525,1852.5811,
688.615,1841.0039,
685.704,1830.5827,
682.794,1823.1622,
679.883,1845.2669,
676.973,1842.8628,
674.062,1831.5276,
671.151,1822.745,
668.241,1835.0994,
665.330,1885.2994,
662.420,1883.7019,
659.509,1855.438,
656.598,1845.8662,
653.688,1855.0651,
650.777,1857.105,
647.867,1849.1417,
644.956,1848.6133,
642.046,1856.4232,
639.135,1864.2789,
636.224,1856.5143,
633.314,1884.3021,
630.403,1891.375,
627.493,1874.0916,
624.582,1860.1476,
621.672,1921.9231,
618.761,1925.8949,
615.850,1959.4343,
612.940,1973.0551,
610.029,1950.9261,
607.119,1972.2461,
604.208,2000.6455,
601.297,1996.918,
598.387,1981.2285,
595.476,1977.6322,
592.566,1969.7615,
589.655,1965.1355,
586.745,1947.3182,
583.834,1914.2979,
580.923,1871.5693,
578.013,1903.7434,
575.102,1901.4768,
572.192,1896.5906,
569.281,1909.1238,
566.371,1946.6897,
563.460,1962.368,
560.549,1961.5277,
557.639,1960.4777,
554.728,1974.375,
551.818,1974.375,
548.907,1973.7656,
545.996,1989.7042,
543.086,2016.0461,
540.175,2019.1606,
537.265,2009.2351,
534.354,2019.4223,
531.444,2037.2762,
528.533,2049.803,
525.622,2083.9447,
522.712,2099.2628,
519.801,2115.0676,
516.891,2133.627,
513.980,2139.8214,
511.070,2180.5228,
508.159,2221.2533,
505.248,2262.1464,
502.338,2307.482,
499.427,2345.3018,
496.517,2368.3851,
493.606,2389.1427,
490.695,2412.8356,
487.785,2430.5408,
484.874,2426.9128,
481.964,2404.2722,
479.053,2384.5455,
476.143,2414.496,
473.232,2378.2466,
470.321,2370.1871,
467.411,2363.6989,
464.500,2325.3143,
461.590,2401.8884,
458.679,2403.0141,
455.769,2403.0734,
452.858,2443.1131,
449.947,2479.0179,
447.037,2482.1277,
444.126,2481.5932,
441.216,2489.8728,
438.305,2515.7785,
435.395,2546.9117,
432.484,2554.2902,
429.573,2544.02,
426.663,2542.4997,
423.752,2568.1795,
420.842,2579.8317,
417.931,2598.4744,
415.020,2662.1765,
412.110,2659.9853,
409.199,2656.419,
406.289,2666.428,
403.378,2703.2495,
400.468,2666.2058,
397.557,2683.1674,
394.646,2705.5268,
391.736,2691.6507,
388.825,2669.0237,
385.915,2651.1989,
383.004,2646.2292,
380.094,2661.5613,
377.183,2724.0168,
374.272,2774.4846,
371.362,2805.0239,
368.451,2811.8309,
365.541,2819.3363,
362.630,2808.2652,
359.719,2819.8685,
356.809,2873.375,
353.898,2873.375,
350.988,2884.7672,
348.077,2886.2436,
345.167,2867.0183,
342.256,2879.7185,
339.345,2861.0548,
336.435,2848.3148,
333.524,2867.5729,
330.614,2905.5758,
327.703,2892.2181,
324.793,2863.477,
321.882,2849.485,
318.971,2894.835,
316.061,2912.8166,
313.150,2920.4559,
310.240,2936.7825,
307.329,2981.6825,
304.418,2954.2356,
301.508,2892.8919,
298.597,2864.7561,
295.687,2914.5225,
292.776,2968.1252,
289.866,3025.6566,
286.955,3107.6552,
284.044,3199.0699,
281.134,3272.0357,
278.223,3328.3686,
275.313,3403.5279,
272.402,3461.2,
269.492,3506.2671,
266.581,3543.2097,
263.670,3610.8462,
260.760,3654.4046,
257.849,3674.0654,
254.939,3667.4604,
252.028,3719.4918,
249.117,3727.4975,
246.207,3722.2773,
243.296,3756.683,
240.386,3719.2365,
237.475,3702.3694,
234.565,3702.4376,
231.654,3652.0412,
228.743,3608.0037,
225.833,3564.1665,
222.922,3520.5788,
220.012,3524.9502,
217.101,3501.3485,
214.191,3473.8451,
211.280,3468.7528,
208.369,3469.0478,
205.459,3477.36,
202.548,3483.8597,
199.638,3451.9311,
196.727,3489.1674,
193.816,3522.2781,
190.906,3523.5116,
187.995,3498.8947,
185.085,3515.9092,
182.174,3551.2309,
179.264,3576.5277,
176.353,3569.7633,
173.442,3574.1641,
170.532,3588.0147,
167.621,3559.1757,
164.711,3511.4319,
161.800,3425.9763,
158.890,3281.3111,
155.979,3112.0983,
153.068,2892.4802,
150.158,2616.2019,
147.247,2250.7643,
144.337,1879.4026,
141.426,1502.3263,
138.516,1118.7895,
135.605,763.23556,
132.694,512.4212,
129.784,347.05143,
126.873,237.63656,
123.963,157.89892,
121.052,104.17659,
118.141,78.476116,
115.231,57.76846,
112.320,44.715005,
109.410,37.556868,
106.499,33.283937,
103.589,34.055763,
100.678,31.843918,
97.767,22.601729,
94.857,21.682011,
91.946,23.793665,
89.036,25.794429,
86.125,15.865555,
83.215,19.746044,
80.304,23.459539,
77.393,17.794179,
74.483,12.13392,
71.572,11.186761,
68.662,14.375,
65.751,14.375,
62.840,14.375,
59.930,15.311431,
57.019,18.836841,
54.109,14.597713,
51.198,11.073391,
48.288,10.341025,
45.377,6.1207569,
42.466,9.7338514,
39.556,16.338933,
36.645,10.019221,
33.735,9.4134969,
30.824,10.154113,
27.914,9.4529378,
25.003,9.9976375,
22.092,11.020809,
19.182,12.786892,
16.271,25.377714,
13.361,110.45202,
10.450,260.63857,
7.539,494.57422,
4.629,650.89512,
1.718,643.30205,
-1.192,326.79843,
-4.103,99.212798,
-7.013,-15.544553,
-9.924,-1.625,
