,PLD376~1,
Raman shift [1/cm],Intensity,
3014.167,2.625,
3011.256,-0.52492484,
3008.346,56.75923,
3005.435,63.23984,
3002.525,71.720078,
2999.614,69.100327,
2996.704,75.395101,
2993.793,73.00576,
2990.882,70.88453,
2987.972,77.660315,
2985.061,78.861446,
2982.151,71.625,
2979.240,87.092687,
2976.329,92.144111,
2973.419,102.70202,
2970.508,96.158347,
2967.598,102.48163,
2964.687,95.326767,
2961.777,94.248968,
2958.866,106.62945,
2955.955,112.00773,
2953.045,102.86217,
2950.134,112.43254,
2947.224,112.90969,
2944.313,126.22044,
2941.403,126.27965,
2938.492,130.4651,
2935.581,127.55505,
2932.671,130.50483,
2929.760,126.95192,
2926.850,135.99793,
2923.939,134.50349,
2921.028,140.3956,
2918.118,150.54439,
2915.207,147.97946,
2912.297,130.70539,
2909.386,150.01916,
2906.476,137.95086,
2903.565,155.01316,
2900.654,136.40154,
2897.744,155.47413,
2894.833,142.80027,
2891.923,128.65059,
2889.012,144.87356,
2886.102,144.79257,
2883.191,134.63161,
2880.280,130.7159,
2877.370,122.53774,
2874.459,140.57457,
2871.549,135.76991,
2868.638,128.48687,
2865.727,152.28269,
2862.817,161.09692,
2859.906,153.01815,
2856.996,157.6884,
2854.085,148.02627,
2851.175,148.12796,
2848.264,157.8455,
2845.353,159.58187,
2842.443,151.23614,
2839.532,138.52054,
2836.622,154.95638,
2833.711,144.57319,
2830.801,141.82647,
2827.890,165.45716,
2824.979,162.83498,
2822.069,155.625,
2819.158,159.42554,
2816.248,161.88947,
2813.337,157.32621,
2810.427,165.36743,
2807.516,149.52438,
2804.605,152.99038,
2801.695,148.32237,
2798.784,146.84677,
2795.874,165.49573,
2792.963,157.76798,
2790.052,175.62178,
2787.142,165.625,
2784.231,163.49612,
2781.321,153.5679,
2778.410,158.91055,
2775.500,157.34706,
2772.589,164.04778,
2769.678,160.08916,
2766.768,167.92986,
2763.857,171.41498,
2760.947,166.56826,
2758.036,175.41492,
2755.126,164.72329,
2752.215,152.90223,
2749.304,165.32642,
2746.394,178.08471,
2743.483,169.175,
2740.573,180.27106,
2737.662,167.18861,
2734.751,172.06676,
2731.841,160.9217,
2728.930,176.01073,
2726.020,172.19676,
2723.109,180.19208,
2720.199,175.72177,
2717.288,180.29287,
2714.377,182.94566,
2711.467,182.01841,
2708.556,182.58247,
2705.646,184.16022,
2702.735,174.79253,
2699.825,179.53774,
2696.914,194.1491,
2694.003,170.65264,
2691.093,188.33979,
2688.182,178.71389,
2685.272,175.34193,
2682.361,187.17194,
2679.450,182.71557,
2676.540,184.72662,
2673.629,187.30214,
2670.719,190.97528,
2667.808,195.625,
2664.898,179.14445,
2661.987,187.99181,
2659.076,198.86207,
2656.166,192.49517,
2653.255,183.58759,
2650.345,184.625,
2647.434,196.625,
2644.524,201.64421,
2641.613,202.76768,
2638.702,197.65656,
2635.792,193.71773,
2632.881,203.93448,
2629.971,205.625,
2627.060,204.95875,
2624.149,208.51562,
2621.239,198.58943,
2618.328,199.9641,
2615.418,206.96136,
2612.507,201.90169,
2609.597,205.0741,
2606.686,207.85796,
2603.775,217.77975,
2600.865,216.67966,
2597.954,200.39163,
2595.044,216.94652,
2592.133,215.3447,
2589.223,217.0829,
2586.312,228.67523,
2583.401,224.7089,
2580.491,214.8846,
2577.580,218.6382,
2574.670,224.96458,
2571.759,221.72603,
2568.848,218.50896,
2565.938,216.4344,
2563.027,228.1364,
2560.117,233.87737,
2557.206,233.58441,
2554.296,223.11013,
2551.385,226.31906,
2548.474,213.92091,
2545.564,217.24513,
2542.653,227.32969,
2539.743,234.68661,
2536.832,224.33902,
2533.922,240.60923,
2531.011,232.47561,
2528.100,228.55188,
2525.190,244.78729,
2522.279,248.68704,
2519.369,226.00258,
2516.458,222.62854,
2513.548,243.61567,
2510.637,230.0391,
2507.726,243.81829,
2504.816,231.12557,
2501.905,251.66829,
2498.995,245.05825,
2496.084,259.95945,
2493.173,243.7303,
2490.263,239.04081,
2487.352,240.91713,
2484.442,250.47296,
2481.531,247.61978,
2478.621,248.60608,
2475.710,249.67867,
2472.799,254.89856,
2469.889,251.0793,
2466.978,244.68693,
2464.068,238.75197,
2461.157,248.54508,
2458.247,247.99279,
2455.336,256.0516,
2452.425,260.5401,
2449.515,267.93687,
2446.604,276.81865,
2443.694,252.53208,
2440.783,262.72185,
2437.872,271.26035,
2434.962,260.83698,
2432.051,266.91528,
2429.141,267.08393,
2426.230,263.625,
2423.320,272.15363,
2420.409,271.13779,
2417.498,273.625,
2414.588,279.34741,
2411.677,267.01944,
2408.767,284.45472,
2405.856,292.89887,
2402.946,285.78586,
2400.035,287.72594,
2397.124,281.63569,
2394.214,283.46141,
2391.303,273.30454,
2388.393,288.31573,
2385.482,282.10968,
2382.571,291.96687,
2379.661,286.76457,
2376.750,287.09788,
2373.840,280.99691,
2370.929,290.49504,
2368.019,305.61394,
2365.108,286.60144,
2362.197,293.20858,
2359.287,290.83503,
2356.376,284.63381,
2353.466,297.16947,
2350.555,306.48982,
2347.645,296.84884,
2344.734,308.23332,
2341.823,331.29334,
2338.913,305.80261,
2336.002,314.0412,
2333.092,322.68254,
2330.181,308.3079,
2327.270,323.52489,
2324.360,322.35614,
2321.449,313.19301,
2318.539,311.41402,
2315.628,317.65058,
2312.718,328.75717,
2309.807,319.30813,
2306.896,329.88478,
2303.986,326.6639,
2301.075,329.96538,
2298.165,319.26889,
2295.254,323.43111,
2292.344,336.88639,
2289.433,332.53999,
2286.522,332.18732,
2283.612,341.58417,
2280.701,318.45015,
2277.791,346.9838,
2274.880,333.33697,
2271.969,341.17233,
2269.059,348.65225,
2266.148,346.78861,
2263.238,361.71765,
2260.327,359.14191,
2257.417,330.13222,
2254.506,347.86148,
2251.595,352.05409,
2248.685,361.9365,
2245.774,351.20767,
2242.864,358.40304,
2239.953,367.57676,
2237.043,357.8975,
2234.132,359.13147,
2231.221,369.30978,
2228.311,358.57734,
2225.400,371.39984,
2222.490,361.58261,
2219.579,363.90783,
2216.669,385.625,
2213.758,392.14788,
2210.847,382.72829,
2207.937,392.09567,
2205.026,399.51421,
2202.116,391.14942,
2199.205,395.92477,
2196.294,398.939,
2193.384,392.65149,
2190.473,404.3527,
2187.563,403.61533,
2184.652,404.48663,
2181.742,428.60326,
2178.831,448.06469,
2175.920,445.12773,
2173.010,467.27693,
2170.099,462.75992,
2167.189,496.74698,
2164.278,516.70641,
2161.368,537.4818,
2158.457,559.45195,
2155.546,580.74616,
2152.636,603.92281,
2149.725,634.43035,
2146.815,655.05773,
2143.904,677.52092,
2140.993,676.23865,
2138.083,697.69494,
2135.172,690.58302,
2132.262,699.38028,
2129.351,718.23889,
2126.441,682.9841,
2123.530,666.08625,
2120.619,616.28565,
2117.709,597.406,
2114.798,584.4596,
2111.888,557.00113,
2108.977,516.73095,
2106.067,488.66556,
2103.156,473.82665,
2100.245,461.625,
2097.335,458.97579,
2094.424,438.42825,
2091.514,435.34006,
2088.603,436.625,
2085.692,427.16781,
2082.782,435.46828,
2079.871,420.26678,
2076.961,444.62309,
2074.050,408.91591,
2071.140,414.625,
2068.229,415.16927,
2065.318,421.21801,
2062.408,427.64013,
2059.497,430.23215,
2056.587,415.60202,
2053.676,409.44162,
2050.766,427.16237,
2047.855,402.68196,
2044.944,407.8173,
2042.034,426.72902,
2039.123,412.46338,
2036.213,395.74055,
2033.302,401.14664,
2030.391,416.28575,
2027.481,408.97878,
2024.570,407.1535,
2021.660,385.98497,
2018.749,418.96691,
2015.839,423.72408,
2012.928,396.55621,
2010.017,399.68907,
2007.107,410.99507,
2004.196,397.11309,
2001.286,402.66739,
1998.375,405.23327,
1995.465,403.05179,
1992.554,396.48976,
1989.643,386.93607,
1986.733,388.98289,
1983.822,381.8569,
1980.912,403.07018,
1978.001,384.8031,
1975.090,382.60974,
1972.180,380.90161,
1969.269,364.69969,
1966.359,358.625,
1963.448,357.89448,
1960.538,379.53576,
1957.627,359.65904,
1954.716,385.76319,
1951.806,373.78691,
1948.895,340.02781,
1945.985,353.30147,
1943.074,366.50325,
1940.164,350.46124,
1937.253,329.20755,
1934.342,332.12072,
1931.432,318.3474,
1928.521,338.4972,
1925.611,342.37188,
1922.700,342.37362,
1919.790,303.14569,
1916.879,318.02076,
1913.968,328.61393,
1911.058,326.88927,
1908.147,331.42209,
1905.237,338.41178,
1902.326,344.04278,
1899.415,339.625,
1896.505,329.83573,
1893.594,320.07624,
1890.684,308.03689,
1887.773,319.50358,
1884.863,327.23092,
1881.952,327.99492,
1879.041,311.95625,
1876.131,316.21192,
1873.220,325.59848,
1870.310,306.20351,
1867.399,305.60901,
1864.489,335.81972,
1861.578,341.2788,
1858.667,347.03818,
1855.757,337.04863,
1852.846,317.40959,
1849.936,330.36975,
1847.025,319.97536,
1844.114,339.67209,
1841.204,339.44668,
1838.293,328.61835,
1835.383,353.39198,
1832.472,348.68239,
1829.562,331.06979,
1826.651,358.34365,
1823.740,344.69008,
1820.830,357.00315,
1817.919,333.49307,
1815.009,342.03721,
1812.098,362.57774,
1809.188,340.23746,
1806.277,341.5586,
1803.366,352.07418,
1800.456,378.2403,
1797.545,369.32015,
1794.635,352.8171,
1791.724,384.88727,
1788.813,343.43503,
1785.903,378.14242,
1782.992,382.1138,
1780.082,358.00985,
1777.171,350.29202,
1774.261,379.73057,
1771.350,398.94374,
1768.439,360.86005,
1765.529,378.35373,
1762.618,374.5806,
1759.708,381.57086,
1756.797,398.93561,
1753.887,401.13812,
1750.976,383.98692,
1748.065,369.625,
1745.155,367.07018,
1742.244,383.50269,
1739.334,390.57088,
1736.423,377.6138,
1733.512,377.71851,
1730.602,399.82146,
1727.691,403.55436,
1724.781,417.56995,
1721.870,413.57733,
1718.960,421.49179,
1716.049,403.48961,
1713.138,415.86992,
1710.228,391.64579,
1707.317,406.201,
1704.407,448.15448,
1701.496,400.66678,
1698.586,434.43235,
1695.675,402.06807,
1692.764,451.6947,
1689.854,424.01081,
1686.943,431.32147,
1684.033,418.94787,
1681.122,416.65898,
1678.211,438.41562,
1675.301,445.60342,
1672.390,465.80145,
1669.480,524.07951,
1666.569,457.00588,
1663.659,487.09864,
1660.748,514.44881,
1657.837,455.28109,
1654.927,485.67931,
1652.016,529.91659,
1649.106,540.81713,
1646.195,508.33728,
1643.285,498.85808,
1640.374,594.39504,
1637.463,584.11139,
1634.553,610.891,
1631.642,628.9616,
1628.732,660.03386,
1625.821,728.64332,
1622.911,756.46722,
1620.000,800.07066,
1617.089,838.84888,
1614.179,902.79193,
1611.268,975.87383,
1608.358,991.0163,
1605.447,1042.5397,
1602.536,1079.1729,
1599.626,1082.5449,
1596.715,1066.2882,
1593.805,1052.9987,
1590.894,1074.5224,
1587.984,1081.0894,
1585.073,996.54332,
1582.162,1012.5158,
1579.252,1019.4433,
1576.341,1027.6356,
1573.431,1012.3952,
1570.520,977.8143,
1567.610,982.78208,
1564.699,954.99866,
1561.788,905.30141,
1558.878,872.55592,
1555.967,891.05159,
1553.057,878.47009,
1550.146,858.0941,
1547.235,812.71182,
1544.325,775.70755,
1541.414,770.16506,
1538.504,757.77994,
1535.593,746.59883,
1532.683,725.57408,
1529.772,707.38738,
1526.861,705.95747,
1523.951,689.74316,
1521.040,688.88443,
1518.130,669.292,
1515.219,654.14376,
1512.309,679.53035,
1509.398,626.7657,
1506.487,626.1603,
1503.577,640.71102,
1500.666,653.02876,
1497.756,607.78591,
1494.845,596.42434,
1491.934,567.625,
1489.024,567.625,
1486.113,569.47943,
1483.203,552.74981,
1480.292,574.38332,
1477.382,531.74661,
1474.471,522.92714,
1471.560,510.56301,
1468.650,496.74244,
1465.739,484.93912,
1462.829,484.2059,
1459.918,483.86255,
1457.008,510.05613,
1454.097,492.79567,
1451.186,444.78361,
1448.276,461.32511,
1445.365,460.65739,
1442.455,425.27143,
1439.544,452.88028,
1436.633,491.64289,
1433.723,427.36972,
1430.812,439.03394,
1427.902,431.37695,
1424.991,420.95157,
1422.081,418.79005,
1419.170,398.75161,
1416.259,386.71431,
1413.349,392.93265,
1410.438,369.03337,
1407.528,373.0748,
1404.617,335.24187,
1401.707,349.7897,
1398.796,389.73689,
1395.885,366.54215,
1392.975,350.08389,
1390.064,371.97622,
1387.154,367.96161,
1384.243,375.10766,
1381.332,370.52236,
1378.422,356.08856,
1375.511,403.86439,
1372.601,438.7231,
1369.690,433.05278,
1366.780,451.42588,
1363.869,491.4959,
1360.958,558.10252,
1358.048,598.67786,
1355.137,578.71238,
1352.227,590.14157,
1349.316,618.29418,
1346.406,613.69959,
1343.495,654.14067,
1340.584,659.37368,
1337.674,748.94823,
1334.763,776.872,
1331.853,783.36261,
1328.942,783.625,
1326.032,835.0091,
1323.121,890.3419,
1320.210,876.32449,
1317.300,898.21939,
1314.389,944.18096,
1311.479,977.60548,
1308.568,1003.8864,
1305.657,1029.3014,
1302.747,1074.4177,
1299.836,1144.5021,
1296.926,1146.9151,
1294.015,1217.703,
1291.105,1239.1164,
1288.194,1271.9772,
1285.283,1291.7971,
1282.373,1335.8592,
1279.462,1404.7418,
1276.552,1447.7353,
1273.641,1455.1434,
1270.731,1454.9787,
1267.820,1449.6637,
1264.909,1453.7459,
1261.999,1454.0591,
1259.088,1438.553,
1256.178,1465.8881,
1253.267,1436.1012,
1250.356,1390.4078,
1247.446,1356.6099,
1244.535,1310.4331,
1241.625,1259.4769,
1238.714,1227.2182,
1235.804,1193.3338,
1232.893,1140.4971,
1229.982,1152.3984,
1227.072,1116.186,
1224.161,1090.0909,
1221.251,1086.3695,
1218.340,1062.0081,
1215.430,1022.7498,
1212.519,998.00292,
1209.608,1012.0525,
1206.698,1045.3697,
1203.787,1051.4793,
1200.877,1087.4549,
1197.966,1068.5725,
1195.055,1095.7822,
1192.145,1126.922,
1189.234,1165.4694,
1186.324,1202.8998,
1183.413,1224.5996,
1180.503,1219.5073,
1177.592,1194.5138,
1174.681,1176.738,
1171.771,1171.2844,
1168.860,1199.8632,
1165.950,1150.2162,
1163.039,1153.6883,
1160.129,1155.3163,
1157.218,1144.8947,
1154.307,1151.724,
1151.397,1156.3348,
1148.486,1104.1726,
1145.576,1118.1239,
1142.665,1106.581,
1139.754,1095.8615,
1136.844,1094.3253,
1133.933,1108.1146,
1131.023,1103.9342,
1128.112,1086.4825,
1125.202,1075.1371,
1122.291,1058.8946,
1119.380,1109.4864,
1116.470,1095.366,
1113.559,1109.8632,
1110.649,1123.138,
1107.738,1116.9086,
1104.828,1122.1885,
1101.917,1156.5309,
1099.006,1174.0275,
1096.096,1099.9262,
1093.185,1088.5122,
1090.275,1124.0422,
1087.364,1151.8364,
1084.453,1130.8144,
1081.543,1122.0863,
1078.632,1148.1465,
1075.722,1164.4369,
1072.811,1163.3147,
1069.901,1158.9484,
1066.990,1152.1583,
1064.079,1193.4974,
1061.169,1188.2191,
1058.258,1183.7175,
1055.348,1210.0344,
1052.437,1222.7568,
1049.527,1233.0544,
1046.616,1218.2843,
1043.705,1232.8111,
1040.795,1254.2261,
1037.884,1266.1537,
1034.974,1273.4665,
1032.063,1268.7485,
1029.153,1233.2336,
1026.242,1279.9412,
1023.331,1281.625,
1020.421,1268.3801,
1017.510,1293.4402,
1014.600,1295.2097,
1011.689,1277.4532,
1008.778,1317.2488,
1005.868,1361.9879,
1002.957,1402.4246,
1000.047,1439.929,
997.136,1489.8012,
994.226,1518.8557,
991.315,1510.6646,
988.404,1482.8688,
985.494,1468.088,
982.583,1444.1044,
979.673,1454.5263,
976.762,1440.8377,
973.852,1432.4871,
970.941,1452.5549,
968.030,1484.573,
965.120,1478.5391,
962.209,1458.0781,
959.299,1502.0777,
956.388,1493.6268,
953.477,1483.9558,
950.567,1488.2924,
947.656,1455.5271,
944.746,1492.9075,
941.835,1493.8152,
938.925,1498.8894,
936.014,1494.5434,
933.103,1487.9781,
930.193,1485.6286,
927.282,1473.2584,
924.372,1466.4935,
921.461,1422.9138,
918.551,1390.197,
915.640,1379.3248,
912.729,1387.7972,
909.819,1399.732,
906.908,1362.6653,
903.998,1387.6674,
901.087,1409.9011,
898.176,1419.1022,
895.266,1421.212,
892.355,1430.5933,
889.445,1462.4854,
886.534,1460.1204,
883.624,1453.5695,
880.713,1479.7153,
877.802,1501.372,
874.892,1489.2573,
871.981,1487.4672,
869.071,1480.7839,
866.160,1462.376,
863.250,1459.867,
860.339,1476.4382,
857.428,1489.3987,
854.518,1454.7454,
851.607,1458.9057,
848.697,1448.6199,
845.786,1433.7646,
842.875,1426.7223,
839.965,1427.9307,
837.054,1416.1088,
834.144,1459.2039,
831.233,1440.2936,
828.323,1421.6793,
825.412,1404.7124,
822.501,1385.4337,
819.591,1417.6632,
816.680,1380.1634,
813.770,1365.613,
810.859,1366.2349,
807.949,1371.4518,
805.038,1368.3484,
802.127,1324.7227,
799.217,1342.2413,
796.306,1354.7331,
793.396,1355.1211,
790.485,1348.9933,
787.574,1347.3723,
784.664,1367.055,
781.753,1351.1665,
778.843,1363.1886,
775.932,1370.1932,
773.022,1340.3165,
770.111,1370.5669,
767.200,1405.3614,
764.290,1380.9523,
761.379,1353.2618,
758.469,1356.7401,
755.558,1382.7984,
752.648,1355.1018,
749.737,1348.3194,
746.826,1347.1588,
743.916,1354.4433,
741.005,1367.0135,
738.095,1299.6277,
735.184,1197.9522,
732.274,1126.4417,
729.363,1147.0683,
726.452,1257.2495,
723.542,1305.0037,
720.631,1349.6746,
717.721,1359.1879,
714.810,1349.7728,
711.899,1346.526,
708.989,1380.4169,
706.078,1324.5338,
703.168,1347.6655,
700.257,1360.8981,
697.347,1349.9724,
694.436,1365.4068,
691.525,1357.3687,
688.615,1349.3359,
685.704,1340.8764,
682.794,1332.7527,
679.883,1327.5261,
676.973,1347.5604,
674.062,1332.4825,
671.151,1335.2132,
668.241,1353.3397,
665.330,1355.8519,
662.420,1360.6443,
659.509,1349.5613,
656.598,1343.4905,
653.688,1348.0756,
650.777,1360.03,
647.867,1371.975,
644.956,1395.057,
642.046,1383.9929,
639.135,1353.9787,
636.224,1366.6011,
633.314,1361.8375,
630.403,1384.2734,
627.493,1385.6461,
624.582,1366.7456,
621.672,1389.7134,
618.761,1388.3452,
615.850,1410.2155,
612.940,1423.1604,
610.029,1418.8066,
607.119,1455.9192,
604.208,1461.755,
601.297,1472.5954,
598.387,1461.4142,
595.476,1411.8933,
592.566,1446.5243,
589.655,1424.1178,
586.745,1406.8891,
583.834,1404.8446,
580.923,1405.6013,
578.013,1401.6776,
575.102,1389.7268,
572.192,1397.7028,
569.281,1429.437,
566.371,1445.0895,
563.460,1416.9953,
560.549,1425.0907,
557.639,1456.0247,
554.728,1480.3439,
551.818,1460.0557,
548.907,1469.6415,
545.996,1483.2905,
543.086,1486.5987,
540.175,1467.9112,
537.265,1476.7649,
534.354,1476.6115,
531.444,1470.9531,
528.533,1468.3356,
525.622,1492.39,
522.712,1491.5575,
519.801,1518.9392,
516.891,1564.3038,
513.980,1537.9778,
511.070,1555.3467,
508.159,1599.92,
505.248,1629.1098,
502.338,1598.845,
499.427,1640.5239,
496.517,1671.423,
493.606,1695.0373,
490.695,1713.2298,
487.785,1724.7766,
484.874,1698.1911,
481.964,1669.7514,
479.053,1666.8852,
476.143,1730.6261,
473.232,1696.4966,
470.321,1657.7828,
467.411,1647.0608,
464.500,1689.2565,
461.590,1674.7075,
458.679,1667.3232,
455.769,1682.5837,
452.858,1719.6366,
449.947,1700.5383,
447.037,1714.2211,
444.126,1723.0371,
441.216,1719.551,
438.305,1724.8845,
435.395,1743.3272,
432.484,1759.7098,
429.573,1765.0099,
426.663,1745.2463,
423.752,1768.7321,
420.842,1769.1212,
417.931,1767.3984,
415.020,1805.3163,
412.110,1800.0405,
409.199,1799.092,
406.289,1818.5815,
403.378,1873.4816,
400.468,1831.1459,
397.557,1831.507,
394.646,1845.9717,
391.736,1849.8182,
388.825,1855.852,
385.915,1807.5988,
383.004,1774.4756,
380.094,1803.3909,
377.183,1838.0048,
374.272,1879.649,
371.362,1908.391,
368.451,1912.7618,
365.541,1915.0134,
362.630,1897.5991,
359.719,1896.5355,
356.809,1930.0328,
353.898,1936.772,
350.988,1953.8146,
348.077,1962.2689,
345.167,1951.1331,
342.256,1941.4212,
339.345,1937.5621,
336.435,1933.5715,
333.524,1926.2592,
330.614,1946.3784,
327.703,1943.8971,
324.793,1943.8743,
321.882,1967.6683,
318.971,1985.5109,
316.061,1970.6275,
313.150,1955.7845,
310.240,1978.7901,
307.329,1998.9202,
304.418,1996.594,
301.508,1980.6865,
298.597,1965.8782,
295.687,1986.2967,
292.776,1997.4583,
289.866,2011.3916,
286.955,2071.9671,
284.044,2116.6775,
281.134,2172.4321,
278.223,2232.0561,
275.313,2235.0035,
272.402,2265.832,
269.492,2306.953,
266.581,2350.149,
263.670,2371.4692,
260.760,2391.207,
257.849,2407.2178,
254.939,2417.4921,
252.028,2414.0058,
249.117,2412.1682,
246.207,2402.9121,
243.296,2369.2384,
240.386,2391.7447,
237.475,2386.0315,
234.565,2355.6603,
231.654,2362.2338,
228.743,2294.5808,
225.833,2243.3201,
222.922,2242.2853,
220.012,2234.9997,
217.101,2225.2643,
214.191,2217.8436,
211.280,2218.571,
208.369,2211.2241,
205.459,2208.4235,
202.548,2212.132,
199.638,2226.645,
196.727,2235.9634,
193.816,2247.5485,
190.906,2261.8981,
187.995,2212.6645,
185.085,2242.9106,
182.174,2280.1502,
179.264,2223.0517,
176.353,2244.1785,
173.442,2239.3218,
170.532,2199.2566,
167.621,2161.7659,
164.711,2140.0625,
161.800,2091.2857,
158.890,1979.0082,
155.979,1901.7303,
153.068,1768.1269,
150.158,1583.7137,
147.247,1372.6357,
144.337,1175.62,
141.426,956.85176,
138.516,696.62024,
135.605,475.57874,
132.694,308.91445,
129.784,192.77857,
126.873,131.99254,
123.963,89.464283,
121.052,60.675926,
118.141,45.683984,
115.231,33.545304,
112.320,27.777728,
109.410,24.852382,
106.499,15.594364,
103.589,20.348054,
100.678,22.093918,
97.767,12.851729,
94.857,14.703967,
91.946,14.818778,
89.036,13.286306,
86.125,11.15869,
83.215,11.686841,
80.304,12.864433,
77.393,13.572603,
74.483,9.6941903,
71.572,9.7991127,
68.662,13.140128,
65.751,8.19497,
62.840,6.625,
59.930,7.9360034,
57.019,12.871577,
54.109,12.430678,
51.198,9.8153443,
48.288,5.6193376,
45.377,4.9159595,
42.466,8.7471934,
39.556,14.164526,
36.645,11.355765,
33.735,6.4710123,
30.824,3.2876609,
27.914,5.3911867,
25.003,8.1155499,
22.092,7.3646681,
19.182,3.4259002,
16.271,27.908055,
13.361,100.42224,
10.450,208.73992,
7.539,337.22994,
4.629,311.24763,
1.718,146.79212,
-1.192,-208.05445,
-4.103,-254.59034,
-7.013,-178.15332,
-9.924,-1.375,
