,PLD1E6~1,
Wavenumbers [1/cm],Intensity,
3014.167,2.75,
3011.256,-1.0499571,
3008.346,337.48343,
3005.435,394.55919,
3002.525,400.95749,
2999.614,422.83963,
2996.704,438.20154,
2993.793,454.98848,
2990.882,456.97141,
2987.972,457.92153,
2985.061,504.60716,
2982.151,504.89789,
2979.240,535.00191,
2976.329,532.26365,
2973.419,573.47375,
2970.508,567.94988,
2967.598,570.99257,
2964.687,593.36209,
2961.777,614.3058,
2958.866,619.75148,
2955.955,643.55085,
2953.045,655.06994,
2950.134,674.50509,
2947.224,686.68947,
2944.313,715.60399,
2941.403,730.00045,
2938.492,753.28115,
2935.581,741.79293,
2932.671,735.62983,
2929.760,753.99618,
2926.850,766.01128,
2923.939,782.98831,
2921.028,791.06179,
2918.118,767.25252,
2915.207,784.80693,
2912.297,795.69499,
2909.386,811.52373,
2906.476,836.22186,
2903.565,792.26555,
2900.654,808.47901,
2897.744,797.44827,
2894.833,778.286,
2891.923,796.91351,
2889.012,771.00433,
2886.102,752.52163,
2883.191,723.77454,
2880.280,558.73559,
2877.370,307.47137,
2874.459,228.757,
2871.549,454.94872,
2868.638,721.08593,
2865.727,774.11922,
2862.817,802.97992,
2859.906,808.30839,
2856.996,837.77717,
2854.085,849.35507,
2851.175,849.1566,
2848.264,854.25484,
2845.353,860.34023,
2842.443,851.33329,
2839.532,873.51115,
2836.622,853.23307,
2833.711,856.84578,
2830.801,845.26838,
2827.890,887.18882,
2824.979,907.23191,
2822.069,897.6704,
2819.158,893.03033,
2816.248,911.6921,
2813.337,917.29634,
2810.427,928.08883,
2807.516,916.815,
2804.605,923.18029,
2801.695,922.5263,
2798.784,929.789,
2795.874,896.61016,
2792.963,897.60723,
2790.052,923.74485,
2787.142,908.48677,
2784.231,903.58851,
2781.321,901.63581,
2778.410,923.11042,
2775.500,905.32552,
2772.589,909.09785,
2769.678,937.99913,
2766.768,944.18495,
2763.857,915.01783,
2760.947,952.24054,
2758.036,949.90286,
2755.126,955.74359,
2752.215,977.53642,
2749.304,956.45327,
2746.394,969.13706,
2743.483,981.75,
2740.573,965.7809,
2737.662,953.00443,
2734.751,971.40054,
2731.841,997.29213,
2728.930,980.44485,
2726.020,993.08681,
2723.109,991.31708,
2720.199,999.75,
2717.288,997.03102,
2714.377,1002.5874,
2711.467,977.84781,
2708.556,1024.6431,
2705.646,1027.8485,
2702.735,1042.5979,
2699.825,1069.9555,
2696.914,1052.1777,
2694.003,1057.7224,
2691.093,1036.9101,
2688.182,1020.5137,
2685.272,1051.1042,
2682.361,1058.4738,
2679.450,1052.8282,
2676.540,1049.3191,
2673.629,1063.8084,
2670.719,1055.7352,
2667.808,1061.9445,
2664.898,1082.0749,
2661.987,1078.9502,
2659.076,1083.2586,
2656.166,1069.0918,
2653.255,1106.3061,
2650.345,1118.0785,
2647.434,1121.2076,
2644.524,1128.642,
2641.613,1128.7789,
2638.702,1150.4975,
2635.792,1132.5297,
2632.881,1145.9047,
2629.971,1133.6627,
2627.060,1146.0825,
2624.149,1146.7781,
2621.239,1138.9985,
2618.328,1148.3858,
2615.418,1160.4273,
2612.507,1162.5761,
2609.597,1150.4027,
2606.686,1161.9448,
2603.775,1165.1508,
2600.865,1180.7466,
2597.954,1213.9355,
2595.044,1196.4285,
2592.133,1193.75,
2589.223,1216.0395,
2586.312,1197.5791,
2583.401,1199.8923,
2580.491,1218.9951,
2577.580,1247.7566,
2574.670,1256.1778,
2571.759,1255.0882,
2568.848,1249.6893,
2565.938,1247.4644,
2563.027,1240.3863,
2560.117,1246.049,
2557.206,1251.9271,
2554.296,1255.3244,
2551.385,1258.9899,
2548.474,1247.75,
2545.564,1287.4521,
2542.653,1266.75,
2539.743,1280.0836,
2536.832,1308.0977,
2533.922,1331.135,
2531.011,1295.4998,
2528.100,1291.5548,
2525.190,1314.1635,
2522.279,1293.5155,
2519.369,1296.9004,
2516.458,1319.6416,
2513.548,1335.6953,
2510.637,1305.1478,
2507.726,1337.6905,
2504.816,1336.626,
2501.905,1341.1268,
2498.995,1359.5861,
2496.084,1367.2308,
2493.173,1355.8553,
2490.263,1353.559,
2487.352,1365.9603,
2484.442,1398.5915,
2481.531,1390.213,
2478.621,1377.1244,
2475.710,1393.704,
2472.799,1400.575,
2469.889,1430.0547,
2466.978,1416.8634,
2464.068,1404.2579,
2461.157,1409.9001,
2458.247,1402.706,
2455.336,1413.431,
2452.425,1430.5802,
2449.515,1431.4486,
2446.604,1456.743,
2443.694,1458.4473,
2440.783,1446.8919,
2437.872,1470.6041,
2434.962,1470.9528,
2432.051,1493.4786,
2429.141,1503.3265,
2426.230,1510.2285,
2423.320,1484.3785,
2420.409,1502.4997,
2417.498,1521.3652,
2414.588,1525.9249,
2411.677,1573.997,
2408.767,1548.185,
2405.856,1515.8025,
2402.946,1531.2924,
2400.035,1537.7594,
2397.124,1544.1297,
2394.214,1572.5864,
2391.303,1559.2141,
2388.393,1510.9731,
2385.482,1494.75,
2382.571,1469.1667,
2379.661,1503.9825,
2376.750,1557.528,
2373.840,1600.025,
2370.929,1597.7933,
2368.019,1612.423,
2365.108,1639.2631,
2362.197,1600.2622,
2359.287,1642.8263,
2356.376,1644.7729,
2353.466,1642.1438,
2350.555,1642.96,
2347.645,1660.1036,
2344.734,1665.6578,
2341.823,1637.1977,
2338.913,1677.5724,
2336.002,1687.8743,
2333.092,1715.7613,
2330.181,1730.2947,
2327.270,1721.4101,
2324.360,1726.8515,
2321.449,1708.2126,
2318.539,1729.4106,
2315.628,1745.1193,
2312.718,1732.8513,
2309.807,1740.6381,
2306.896,1754.5137,
2303.986,1774.9774,
2301.075,1781.1756,
2298.165,1756.7882,
2295.254,1738.0731,
2292.344,1787.1691,
2289.433,1794.0782,
2286.522,1805.5847,
2283.612,1842.5919,
2280.701,1826.9205,
2277.791,1832.3511,
2274.880,1847.392,
2271.969,1839.6924,
2269.059,1839.3903,
2266.148,1878.0138,
2263.238,1868.8581,
2260.327,1845.1638,
2257.417,1860.7133,
2254.506,1895.9865,
2251.595,1905.3172,
2248.685,1904.3308,
2245.774,1896.4424,
2242.864,1895.3984,
2239.953,1911.1223,
2237.043,1926.9054,
2234.132,1931.5162,
2231.221,1922.8533,
2228.311,1921.7088,
2225.400,1955.5662,
2222.490,1989.5058,
2219.579,2021.5881,
2216.669,2030.2715,
2213.758,2043.3618,
2210.847,2064.8407,
2207.937,2036.0937,
2205.026,2083.0844,
2202.116,2059.7808,
2199.205,2102.7357,
2196.294,2138.626,
2193.384,2144.855,
2190.473,2174.3474,
2187.563,2199.9723,
2184.652,2252.2263,
2181.742,2305.593,
2178.831,2373.4505,
2175.920,2448.9686,
2173.010,2529.229,
2170.099,2635.4068,
2167.189,2791.525,
2164.278,2922.6676,
2161.368,3108.3158,
2158.457,3297.1902,
2155.546,3508.4262,
2152.636,3692.2125,
2149.725,3899.3606,
2146.815,4028.4465,
2143.904,4174.4005,
2140.993,4320.4957,
2138.083,4389.6315,
2135.172,4443.658,
2132.262,4480.3266,
2129.351,4426.5222,
2126.441,4397.1965,
2123.530,4282.9664,
2120.619,4016.5582,
2117.709,3832.5946,
2114.798,3608.9491,
2111.888,3361.8303,
2108.977,3145.3923,
2106.067,2980.5771,
2103.156,2842.0496,
2100.245,2681.6923,
2097.335,2579.2736,
2094.424,2496.7663,
2091.514,2448.4325,
2088.603,2380.5611,
2085.692,2341.8802,
2082.782,2314.734,
2079.871,2271.9624,
2076.961,2312.3919,
2074.050,2253.9742,
2071.140,2243.2554,
2068.229,2259.9466,
2065.318,2230.6502,
2062.408,2214.2273,
2059.497,2194.1071,
2056.587,2212.3774,
2053.676,2201.2515,
2050.766,2203.1342,
2047.855,2175.8671,
2044.944,2150.1394,
2042.034,2179.698,
2039.123,2178.6692,
2036.213,2180.9212,
2033.302,2205.7063,
2030.391,2174.5308,
2027.481,2177.7863,
2024.570,2183.3787,
2021.660,2211.917,
2018.749,2187.7757,
2015.839,2211.7323,
2012.928,2194.6124,
2010.017,2187.5676,
2007.107,2211.3799,
2004.196,2224.2381,
2001.286,2199.5804,
1998.375,2169.1368,
1995.465,2147.0179,
1992.554,2162.9086,
1989.643,2154.1648,
1986.733,2146.7298,
1983.822,2173.1451,
1980.912,2131.6816,
1978.001,2155.5812,
1975.090,2106.4278,
1972.180,2097.472,
1969.269,2148.4886,
1966.359,2154.8309,
1963.448,2133.6007,
1960.538,2140.1111,
1957.627,2099.9512,
1954.716,2159.8253,
1951.806,2112.6874,
1948.895,2149.4949,
1945.985,2133.2484,
1943.074,2073.9456,
1940.164,2084.8946,
1937.253,2091.9245,
1934.342,2071.3655,
1931.432,2077.8226,
1928.521,2079.244,
1925.611,2077.7046,
1922.700,2025.0981,
1919.790,2031.559,
1916.879,2051.4945,
1913.968,2088.7057,
1911.058,2085.3716,
1908.147,2058.6581,
1905.237,2081.7131,
1902.326,2005.144,
1899.415,2019.739,
1896.505,1952.9063,
1893.594,1957.7227,
1890.684,2030.3381,
1887.773,2053.5257,
1884.863,2077.5222,
1881.952,2080.3801,
1879.041,2088.0974,
1876.131,2112.1095,
1873.220,2061.8338,
1870.310,2055.6065,
1867.399,2067.5581,
1864.489,2104.1658,
1861.578,2091.4312,
1858.667,2109.3638,
1855.757,2121.3407,
1852.846,2127.9808,
1849.936,2116.1454,
1847.025,2132.0371,
1844.114,2154.0935,
1841.204,2161.8514,
1838.293,2187.2525,
1835.383,2161.1575,
1832.472,2148.4596,
1829.562,2170.9977,
1826.651,2160.9205,
1823.740,2191.7884,
1820.830,2232.9865,
1817.919,2182.9293,
1815.009,2210.8492,
1812.098,2198.8996,
1809.188,2240.8352,
1806.277,2191.923,
1803.366,2247.7334,
1800.456,2246.0356,
1797.545,2237.4378,
1794.635,2276.717,
1791.724,2295.9248,
1788.813,2281.7371,
1785.903,2229.0873,
1782.992,2156.6322,
1780.082,2034.6947,
1777.171,1906.0605,
1774.261,1895.9415,
1771.350,2107.483,
1768.439,2252.8808,
1765.529,2320.0297,
1762.618,2366.6825,
1759.708,2367.7283,
1756.797,2362.447,
1753.887,2402.7529,
1750.976,2396.6532,
1748.065,2385.3399,
1745.155,2390.6404,
1742.244,2368.548,
1739.334,2417.6347,
1736.423,2439.8042,
1733.512,2440.6606,
1730.602,2483.6389,
1727.691,2496.9823,
1724.781,2505.4023,
1721.870,2520.6263,
1718.960,2497.4386,
1716.049,2532.8598,
1713.138,2614.2796,
1710.228,2618.9173,
1707.317,2624.8266,
1704.407,2557.4718,
1701.496,2615.3814,
1698.586,2646.6976,
1695.675,2627.2287,
1692.764,2740.3033,
1689.854,2695.0886,
1686.943,2739.1312,
1684.033,2780.7317,
1681.122,2805.3422,
1678.211,2865.179,
1675.301,2854.7839,
1672.390,2902.8008,
1669.480,2920.5362,
1666.569,3018.1563,
1663.659,3050.5503,
1660.748,3100.5818,
1657.837,3193.5313,
1654.927,3184.2654,
1652.016,3209.735,
1649.106,3370.3375,
1646.195,3396.9628,
1643.285,3529.2083,
1640.374,3592.189,
1637.463,3616.7672,
1634.553,3837.1982,
1631.642,3936.4428,
1628.732,4182.9529,
1625.821,4384.9011,
1622.911,4614.4483,
1620.000,4951.4664,
1617.089,5242.9191,
1614.179,5587.9078,
1611.268,5986.7301,
1608.358,6264.8268,
1605.447,6525.7234,
1602.536,6592.0038,
1599.626,6618.7483,
1596.715,6677.9289,
1593.805,6590.7395,
1590.894,6539.2392,
1587.984,6480.9184,
1585.073,6442.1206,
1582.162,6338.2334,
1579.252,6257.3774,
1576.341,6214.9117,
1573.431,6168.5913,
1570.520,6224.2508,
1567.610,6162.788,
1564.699,6028.1706,
1561.788,5951.1306,
1558.878,5865.4254,
1555.967,5770.6475,
1553.057,5665.3887,
1550.146,5502.0703,
1547.235,5404.4982,
1544.325,5326.4104,
1541.414,5215.6434,
1538.504,5119.5906,
1535.593,5069.4986,
1532.683,4994.516,
1529.772,4910.4189,
1526.861,4893.9104,
1523.951,4878.9046,
1521.040,4858.0749,
1518.130,4812.2505,
1515.219,4759.9904,
1512.309,4714.3039,
1509.398,4615.1131,
1506.487,4606.3651,
1503.577,4516.2877,
1500.666,4448.295,
1497.756,4438.657,
1494.845,4456.347,
1491.934,4326.6587,
1489.024,4298.7464,
1486.113,4229.1361,
1483.203,4188.2233,
1480.292,4089.5652,
1477.382,4012.9396,
1474.471,3945.0335,
1471.560,3938.1837,
1468.650,3891.871,
1465.739,3827.1181,
1462.829,3819.8641,
1459.918,3776.6059,
1457.008,3714.4728,
1454.097,3710.1526,
1451.186,3748.2065,
1448.276,3749.1255,
1445.365,3727.6126,
1442.455,3780.9973,
1439.544,3743.9171,
1436.633,3729.8672,
1433.723,3745.2907,
1430.812,3654.518,
1427.902,3702.0206,
1424.991,3713.3937,
1422.081,3694.483,
1419.170,3764.467,
1416.259,3723.0959,
1413.349,3728.8758,
1410.438,3748.0458,
1407.528,3762.7624,
1404.617,3723.7154,
1401.707,3663.6033,
1398.796,3650.0227,
1395.885,3677.3918,
1392.975,3684.7078,
1390.064,3664.8102,
1387.154,3671.152,
1384.243,3672.8184,
1381.332,3660.41,
1378.422,3683.3144,
1375.511,3868.797,
1372.601,3994.3189,
1369.690,4049.3256,
1366.780,4131.9933,
1363.869,4201.1504,
1360.958,4308.219,
1358.048,4403.5882,
1355.137,4449.8407,
1352.227,4521.6,
1349.316,4661.7951,
1346.406,4777.0521,
1343.495,4817.4208,
1340.584,4896.9992,
1337.674,4967.403,
1334.763,5122.3619,
1331.853,5112.1623,
1328.942,5214.9278,
1326.032,5335.4119,
1323.121,5476.0814,
1320.210,5588.6694,
1317.300,5649.5397,
1314.389,5761.8213,
1311.479,5865.2936,
1308.568,5981.5276,
1305.657,6192.5887,
1302.747,6319.7618,
1299.836,6481.5437,
1296.926,6576.8168,
1294.015,6814.9216,
1291.105,7036.08,
1288.194,7219.7061,
1285.283,7429.1587,
1282.373,7579.0153,
1279.462,7722.8266,
1276.552,7890.4827,
1273.641,8025.0165,
1270.731,8068.6351,
1267.820,8046.3345,
1264.909,8044.8709,
1261.999,8045.8166,
1259.088,8047.6408,
1256.178,7925.2767,
1253.267,7718.3215,
1250.356,7456.5421,
1247.446,7244.9249,
1244.535,7014.1076,
1241.625,6740.4466,
1238.714,6479.6164,
1235.804,6259.2697,
1232.893,6107.0335,
1229.982,5951.101,
1227.072,5843.3689,
1224.161,5696.2264,
1221.251,5581.1534,
1218.340,5526.781,
1215.430,5463.6513,
1212.519,5398.301,
1209.608,5350.3225,
1206.698,5306.537,
1203.787,5283.7601,
1200.877,5323.8674,
1197.966,5358.0354,
1195.055,5529.5465,
1192.145,5627.1222,
1189.234,5796.3771,
1186.324,5955.9395,
1183.413,6006.8515,
1180.503,5982.3657,
1177.592,5965.8508,
1174.681,5941.7774,
1171.771,5954.6991,
1168.860,5909.1516,
1165.950,5899.9123,
1163.039,5869.4171,
1160.129,5847.3123,
1157.218,5798.4452,
1154.307,5740.1351,
1151.397,5723.9636,
1148.486,5730.5079,
1145.576,5681.7841,
1142.665,5636.5005,
1139.754,5560.337,
1136.844,5513.637,
1133.933,5457.3485,
1131.023,5422.9732,
1128.112,5416.9645,
1125.202,5412.3007,
1122.291,5404.9926,
1119.380,5385.75,
1116.470,5385.75,
1113.559,5415.1335,
1110.649,5375.2914,
1107.738,5336.8904,
1104.828,5333.6559,
1101.917,5336.4656,
1099.006,5310.2656,
1096.096,5282.3839,
1093.185,5325.406,
1090.275,5356.2652,
1087.364,5402.5451,
1084.453,5462.9348,
1081.543,5534.3134,
1078.632,5589.7045,
1075.722,5602.5619,
1072.811,5599.8884,
1069.901,5573.6906,
1066.990,5558.0084,
1064.079,5533.6541,
1061.169,5481.2228,
1058.258,5461.9955,
1055.348,5486.5715,
1052.437,5508.8691,
1049.527,5575.9178,
1046.616,5580.262,
1043.705,5606.1852,
1040.795,5585.0173,
1037.884,5613.7607,
1034.974,5680.8402,
1032.063,5716.4117,
1029.153,5706.2693,
1026.242,5710.5941,
1023.331,5810.7436,
1020.421,5791.7123,
1017.510,5813.9693,
1014.600,5862.936,
1011.689,5913.1213,
1008.778,5980.8551,
1005.868,6006.1245,
1002.957,6159.2676,
1000.047,6400.4221,
997.136,6617.4222,
994.226,6757.3647,
991.315,6798.4406,
988.404,6758.7784,
985.494,6722.3664,
982.583,6705.2353,
979.673,6684.4588,
976.762,6704.1696,
973.852,6755.9008,
970.941,6795.0826,
968.030,6788.75,
965.120,6789.0829,
962.209,6868.3694,
959.299,6849.8788,
956.388,6845.1495,
953.477,6849.6949,
950.567,6851.1942,
947.656,6867.0923,
944.746,6892.579,
941.835,6894.5598,
938.925,6864.4797,
936.014,6859.8782,
933.103,6842.1494,
930.193,6792.5466,
927.282,6796.9674,
924.372,6671.8176,
921.461,6522.4616,
918.551,6443.3796,
915.640,6365.5073,
912.729,6259.3523,
909.819,6173.4164,
906.908,6170.8891,
903.998,6153.252,
901.087,6165.9357,
898.176,6171.9324,
895.266,6200.1247,
892.355,6288.5972,
889.445,6389.3092,
886.534,6458.2095,
883.624,6552.4899,
880.713,6596.3432,
877.802,6558.3682,
874.892,6400.4313,
871.981,6046.8513,
869.071,5797.0629,
866.160,5912.4407,
863.250,6177.705,
860.339,6341.9368,
857.428,6346.1941,
854.518,6448.1894,
851.607,6255.9814,
848.697,6026.7221,
845.786,5904.5362,
842.875,5973.0218,
839.965,6186.8479,
837.054,6320.3361,
834.144,6372.5475,
831.233,6363.4181,
828.323,6353.75,
825.412,6328.9589,
822.501,6262.7497,
819.591,6185.0681,
816.680,6097.814,
813.770,5963.353,
810.859,5875.8954,
807.949,5831.906,
805.038,5784.8275,
802.127,5826.8069,
799.217,5714.469,
796.306,5679.2906,
793.396,5693.2616,
790.485,5713.1193,
787.574,5726.871,
784.664,5756.395,
781.753,5811.4028,
778.843,5850.4525,
775.932,5895.9964,
773.022,5958.6781,
770.111,5925.975,
767.200,5883.4004,
764.290,5835.4994,
761.379,5799.1156,
758.469,5776.2627,
755.558,5750.4614,
752.648,5707.2874,
749.737,5681.7775,
746.826,5650.3714,
743.916,5585.1001,
741.005,5473.121,
738.095,5387.8739,
735.184,5311.2494,
732.274,5286.3277,
729.363,5338.857,
726.452,5468.8393,
723.542,5629.9086,
720.631,5678.506,
717.721,5755.4816,
714.810,5776.3411,
711.899,5748.6807,
708.989,5821.304,
706.078,5830.5643,
703.168,5779.3146,
700.257,5728.2471,
697.347,5708.2279,
694.436,5719.7898,
691.525,5684.4224,
688.615,5680.5235,
685.704,5734.9849,
682.794,5794.8565,
679.883,5766.1825,
676.973,5775.799,
674.062,5780.9404,
671.151,5756.0119,
668.241,5719.6058,
665.330,5712.6366,
662.420,5710.2404,
659.509,5737.052,
656.598,5758.8085,
653.688,5793.2049,
650.777,5881.237,
647.867,5866.1067,
644.956,5853.4627,
642.046,5737.4669,
639.135,5596.213,
636.224,5650.9171,
633.314,5684.2625,
630.403,5706.3478,
627.493,5714.5978,
624.582,5707.4529,
621.672,5683.693,
618.761,5681.9901,
615.850,5767.7041,
612.940,5836.3839,
610.029,5823.3597,
607.119,5760.9789,
604.208,5766.8202,
601.297,5789.6966,
598.387,5788.5456,
595.476,5742.9784,
592.566,5766.5904,
589.655,5732.5245,
586.745,5695.2592,
583.834,5669.3583,
580.923,5653.3662,
578.013,5589.8027,
575.102,5621.505,
572.192,5681.3308,
569.281,5730.2176,
566.371,5766.2183,
563.460,5785.9758,
560.549,5753.2804,
557.639,5735.9207,
554.728,5802.6862,
551.818,5817.5122,
548.907,5834.1571,
545.996,5887.072,
543.086,5940.6448,
540.175,5865.8948,
537.265,5889.7212,
534.354,5920.8176,
531.444,5946.3232,
528.533,5969.7999,
525.622,6097.0552,
522.712,6099.8731,
519.801,6127.6662,
516.891,6207.0448,
513.980,6248.0824,
511.070,6322.8891,
508.159,6400.5066,
505.248,6483.7949,
502.338,6581.1103,
499.427,6730.0738,
496.517,6853.4671,
493.606,6947.6978,
490.695,7004.6103,
487.785,6989.2145,
484.874,7003.5518,
481.964,6982.4347,
479.053,6938.6469,
476.143,6934.0391,
473.232,6869.7231,
470.321,6858.8607,
467.411,6869.1913,
464.500,6858.4263,
461.590,6964.0984,
458.679,7013.0103,
455.769,7064.9824,
452.858,7148.2835,
449.947,7191.8276,
447.037,7284.483,
444.126,7365.7379,
441.216,7413.2052,
438.305,7421.5864,
435.395,7481.1017,
432.484,7516.751,
429.573,7512.0349,
426.663,7461.8656,
423.752,7085.3282,
420.842,6655.2186,
417.931,6345.4461,
415.020,6379.5722,
412.110,7173.087,
409.199,7610.4491,
406.289,7730.2968,
403.378,7627.5861,
400.468,7579.2024,
397.557,7684.061,
394.646,7832.4956,
391.736,7929.8647,
388.825,8027.1605,
385.915,8037.1232,
383.004,8044.1646,
380.094,8105.8979,
377.183,8167.601,
374.272,8235.7714,
371.362,8285.5195,
368.451,8305.6708,
365.541,8370.2169,
362.630,8411.7846,
359.719,8431.75,
356.809,8433.5624,
353.898,8463.5143,
350.988,8519.4888,
348.077,8549.2953,
345.167,8524.4311,
342.256,8537.8784,
339.345,8549.1901,
336.435,8551.3085,
333.524,8541.3942,
330.614,8593.5551,
327.703,8602.0489,
324.793,8614.5999,
321.882,8671.7212,
318.971,8659.8261,
316.061,8755.8544,
313.150,8893.7761,
310.240,8999.8987,
307.329,9080.2162,
304.418,9113.9417,
301.508,9101.2084,
298.597,9039.0134,
295.687,9005.3059,
292.776,9027.1669,
289.866,9109.7564,
286.955,9266.3662,
284.044,9343.7774,
281.134,9370.1957,
278.223,9373.1448,
275.313,9457.8832,
272.402,9490.2726,
269.492,9475.7186,
266.581,9418.3868,
263.670,9371.3352,
260.760,9492.0025,
257.849,9665.0489,
254.939,9808.8899,
252.028,9829.57,
249.117,9849.998,
246.207,9888.8581,
243.296,9978.1666,
240.386,10009.299,
237.475,10044.954,
234.565,10084.44,
231.654,10088.823,
228.743,10089.175,
225.833,10089.055,
222.922,10090.362,
220.012,10103.476,
217.101,10091.066,
214.191,10089.486,
211.280,10141.864,
208.369,10139.022,
205.459,10134.951,
202.548,10135.756,
199.638,10147.366,
196.727,10173.375,
193.816,10194.964,
190.906,10204.623,
187.995,10201.003,
185.085,10265.004,
182.174,10342.059,
179.264,10357.96,
176.353,10387.944,
173.442,10388.885,
170.532,10352.837,
167.621,10267.762,
164.711,10129.651,
161.800,9873.8675,
158.890,9429.0758,
155.979,8981.8592,
153.068,8375.6855,
150.158,7595.5677,
147.247,6571.7678,
144.337,5464.9105,
141.426,4341.4462,
138.516,3229.5478,
135.605,2321.2028,
132.694,1591.9309,
129.784,1037.8037,
126.873,704.5532,
123.963,478.5485,
121.052,321.35582,
118.141,227.12076,
115.231,181.98407,
112.320,149.77001,
109.410,125.5685,
106.499,98.506601,
103.589,92.189746,
100.678,85.502701,
97.767,69.151137,
94.857,74.986901,
91.946,76.943778,
89.036,72.588859,
86.125,52.731111,
83.215,46.157239,
80.304,44.031702,
77.393,41.907192,
74.483,42.405135,
71.572,44.199408,
68.662,46.680733,
65.751,45.974281,
62.840,38.52447,
59.930,30.75,
57.019,30.75,
54.109,29.555678,
51.198,30.559656,
48.288,34.687713,
45.377,26.950554,
42.466,23.75,
39.556,23.519763,
36.645,22.115382,
33.735,20.192255,
30.824,19.854435,
27.914,23.360311,
25.003,29.976375,
22.092,30.19805,
19.182,22.635586,
16.271,19.138135,
13.361,35.451235,
10.450,56.504877,
7.539,37.650362,
4.629,-91.684319,
1.718,-191.14463,
-1.192,-135.37307,
-4.103,-117.31195,
-7.013,-79.239718,
-9.924,-8.25,
