,PL6838~1,
Wavenumbers [1/cm],Intensity,
3014.167,1,
3011.256,-1.5999141,
3008.346,336.53149,
3005.435,406.34629,
3002.525,399.86745,
2999.614,429,
2996.704,445.35463,
2993.793,444.99078,
2990.882,468.94647,
2987.972,471.08072,
2985.061,500.30051,
2982.151,514.35798,
2979.240,535.05038,
2976.329,539.01092,
2973.419,562.29217,
2970.508,584.03325,
2967.598,592.04779,
2964.687,598.2534,
2961.777,591.31611,
2958.866,629.6731,
2955.955,652.11279,
2953.045,670.46757,
2950.134,672.75509,
2947.224,689.22416,
2944.313,723.80912,
2941.403,728.90511,
2938.492,726.17075,
2935.581,743.93005,
2932.671,714.20173,
2929.760,738.50387,
2926.850,752.94774,
2923.939,769.40188,
2921.028,783.80609,
2918.118,771.68262,
2915.207,789.46831,
2912.297,778.03808,
2909.386,794.01459,
2906.476,805.64325,
2903.565,776.09629,
2900.654,797.45802,
2897.744,809.33367,
2894.833,762.36073,
2891.923,777.2981,
2889.012,739.04046,
2886.102,722.46218,
2883.191,681.02643,
2880.280,531.17697,
2877.370,243.52958,
2874.459,178.47868,
2871.549,424.83058,
2868.638,707.38129,
2865.727,746.53073,
2862.817,794.51601,
2859.906,804.90027,
2856.996,847.97736,
2854.085,823.95163,
2851.175,842.28317,
2848.264,853.40232,
2845.353,862.18045,
2842.443,834.98259,
2839.532,846.89554,
2836.622,836.18554,
2833.711,855.05181,
2830.801,855.10074,
2827.890,877.9353,
2824.979,874.06195,
2822.069,889.13647,
2819.158,897.19946,
2816.248,899.96526,
2813.337,904.29879,
2810.427,912.03028,
2807.516,889.54719,
2804.605,913.70912,
2801.695,893.60526,
2798.784,928.04308,
2795.874,913.58049,
2792.963,902.42851,
2790.052,882.00408,
2787.142,878.26323,
2784.231,887.41925,
2781.321,887.99424,
2778.410,880.05456,
2775.500,909.91241,
2772.589,878.2324,
2769.678,906.71329,
2766.768,911,
2763.857,903.16185,
2760.947,925.43381,
2758.036,930.2485,
2755.126,919.57051,
2752.215,934.23197,
2749.304,932.78778,
2746.394,940.55449,
2743.483,937.19994,
2740.573,937.35394,
2737.662,958.86243,
2734.751,948.25717,
2731.841,945.97252,
2728.930,935.08455,
2726.020,971.34201,
2723.109,977.11342,
2720.199,969,
2717.288,979.87592,
2714.377,974.19606,
2711.467,1000.967,
2708.556,993.88337,
2705.646,1016.3381,
2702.735,1022.1727,
2699.825,1015.2836,
2696.914,1030.3341,
2694.003,1032.174,
2691.093,1021.4825,
2688.182,1032.7637,
2685.272,997.34565,
2682.361,1033.6354,
2679.450,1024.3375,
2676.540,1045.0651,
2673.629,1010.6188,
2670.719,1044.2043,
2667.808,1016.7509,
2664.898,1043.8055,
2661.987,1056.2005,
2659.076,1036.8492,
2656.166,1036.9392,
2653.255,1081.0748,
2650.345,1082.1361,
2647.434,1089.8285,
2644.524,1086.4556,
2641.613,1098.4004,
2638.702,1093.1894,
2635.792,1080.6231,
2632.881,1084.6073,
2629.971,1099.6847,
2627.060,1097.0012,
2624.149,1089.7562,
2621.239,1102.0178,
2618.328,1100.2543,
2615.418,1106.9955,
2612.507,1115.8261,
2609.597,1120.9082,
2606.686,1113.5201,
2603.775,1116.127,
2600.865,1155.0547,
2597.954,1141.5271,
2595.044,1159.9291,
2592.133,1174.1656,
2589.223,1169.4337,
2586.312,1178.2412,
2583.401,1155.5109,
2580.491,1181.9422,
2577.580,1197.9851,
2574.670,1193.1511,
2571.759,1181.9795,
2568.848,1175.5249,
2565.938,1189.9525,
2563.027,1190.6113,
2560.117,1212.1776,
2557.206,1205.8635,
2554.296,1203.7986,
2551.385,1203.6941,
2548.474,1227.1855,
2545.564,1203.013,
2542.653,1226.0839,
2539.743,1233.4938,
2536.832,1241.5514,
2533.922,1271.5112,
2531.011,1253.099,
2528.100,1288.1986,
2525.190,1272.0262,
2522.279,1257.2496,
2519.369,1239.2832,
2516.458,1258.5737,
2513.548,1262.0093,
2510.637,1278.6148,
2507.726,1277.3829,
2504.816,1272.0023,
2501.905,1288.4348,
2498.995,1281.6569,
2496.084,1287.4007,
2493.173,1278.6579,
2490.263,1315.1006,
2487.352,1305.5425,
2484.442,1325.4047,
2481.531,1335.5746,
2478.621,1331.8389,
2475.710,1339.2607,
2472.799,1371.7668,
2469.889,1345.216,
2466.978,1339.7627,
2464.068,1324.0158,
2461.157,1361.46,
2458.247,1366.5148,
2455.336,1372.7671,
2452.425,1364.434,
2449.515,1351.8025,
2446.604,1379.7051,
2443.694,1369.9531,
2440.783,1383.8615,
2437.872,1421.7083,
2434.962,1419.5161,
2432.051,1440.3643,
2429.141,1424.6473,
2426.230,1430.9569,
2423.320,1452.743,
2420.409,1455.4549,
2417.498,1456.6404,
2414.588,1443.7301,
2411.677,1455.4343,
2408.767,1487.6762,
2405.856,1468.531,
2402.946,1485.1135,
2400.035,1471.4225,
2397.124,1469.9091,
2394.214,1488.244,
2391.303,1485.3537,
2388.393,1482.2256,
2385.482,1436.2031,
2382.571,1405.5941,
2379.661,1457.0694,
2376.750,1501.2093,
2373.840,1525.3937,
2370.929,1534.9567,
2368.019,1556.7346,
2365.108,1565.5812,
2362.197,1573.9726,
2359.287,1578,
2356.376,1562.0282,
2353.466,1574.4093,
2350.555,1580.6903,
2347.645,1583.9351,
2344.734,1583.3042,
2341.823,1609.5854,
2338.913,1598.4672,
2336.002,1603.0454,
2333.092,1615.5632,
2330.181,1640.1432,
2327.270,1646.11,
2324.360,1675.8491,
2321.449,1666.5238,
2318.539,1666.2966,
2315.628,1680.713,
2312.718,1670.685,
2309.807,1674.7704,
2306.896,1667.3224,
2303.986,1701.9611,
2301.075,1694.9575,
2298.165,1693.779,
2295.254,1667.6247,
2292.344,1724.054,
2289.433,1720.3436,
2286.522,1708.1117,
2283.612,1723.6722,
2280.701,1754.3094,
2277.791,1736.0019,
2274.880,1761.712,
2271.969,1769.9342,
2269.059,1761.8283,
2266.148,1785.1002,
2263.238,1779.9073,
2260.327,1815.6895,
2257.417,1798.9489,
2254.506,1808.473,
2251.595,1835.6981,
2248.685,1858.575,
2245.774,1838.5718,
2242.864,1840.5736,
2239.953,1826.5999,
2237.043,1834.1936,
2234.132,1849.5453,
2231.221,1901.6073,
2228.311,1889.9936,
2225.400,1923.9719,
2222.490,1925.0424,
2219.579,1950.7533,
2216.669,1960.1097,
2213.758,1961.787,
2210.847,1976.6121,
2207.937,1980.8371,
2205.026,1978.4426,
2202.116,2028.689,
2199.205,2041.9113,
2196.294,2074.43,
2193.384,2099.473,
2190.473,2095.8462,
2187.563,2151.1257,
2184.652,2184.0788,
2181.742,2233.7512,
2178.831,2295.2531,
2175.920,2404.6193,
2173.010,2475.5522,
2170.099,2600.3869,
2167.189,2709.8467,
2164.278,2848.7166,
2161.368,3033.85,
2158.457,3214.4665,
2155.546,3408.5531,
2152.636,3606.5264,
2149.725,3805.9462,
2146.815,3926.9634,
2143.904,4123.7174,
2140.993,4178.8041,
2138.083,4246.8965,
2135.172,4312.8237,
2132.262,4336.5035,
2129.351,4332.7138,
2126.441,4187.8733,
2123.530,4108.3511,
2120.619,3848.1663,
2117.709,3634.6457,
2114.798,3415.5451,
2111.888,3195.1783,
2108.977,3007.6556,
2106.067,2846.9612,
2103.156,2699.1021,
2100.245,2553.9711,
2097.335,2495.2356,
2094.424,2393.3834,
2091.514,2348.1235,
2088.603,2294.166,
2085.692,2243.9927,
2082.782,2240.1365,
2079.871,2237.7853,
2076.961,2214.4853,
2074.050,2180.9818,
2071.140,2158.5864,
2068.229,2140.013,
2065.318,2140.4583,
2062.408,2141.8858,
2059.497,2097.3631,
2056.587,2134.6504,
2053.676,2117.4356,
2050.766,2087.7706,
2047.855,2104.5191,
2044.944,2060.9166,
2042.034,2109.318,
2039.123,2115.9192,
2036.213,2095.1755,
2033.302,2100.7388,
2030.391,2093.882,
2027.481,2090.4145,
2024.570,2102.4283,
2021.660,2122.8174,
2018.749,2098.2537,
2015.839,2128.1168,
2012.928,2111.4027,
2010.017,2101.8437,
2007.107,2110.2318,
2004.196,2109.0953,
2001.286,2097.894,
1998.375,2085.2165,
1995.465,2050.9625,
1992.554,2068.2939,
1989.643,2074.8963,
1986.733,2065.3211,
1983.822,2070.0126,
1980.912,2057.1678,
1978.001,2037.7625,
1975.090,2042.8122,
1972.180,2035.5864,
1969.269,2032.4339,
1966.359,2037.1893,
1963.448,2040.7305,
1960.538,2056.4187,
1957.627,2041.2755,
1954.716,2050.6553,
1951.806,2051.5225,
1948.895,1990.6113,
1945.985,2036.1487,
1943.074,2053.3433,
1940.164,2021.0191,
1937.253,1984.0223,
1934.342,1958.5984,
1931.432,1975.7729,
1928.521,2011.8204,
1925.611,1962.689,
1922.700,1953.6202,
1919.790,1959.7225,
1916.879,1943.2555,
1913.968,2007.9188,
1911.058,1968.1501,
1908.147,1945.0555,
1905.237,1957.4558,
1902.326,1937.2844,
1899.415,1922.0414,
1896.505,1836.3073,
1893.594,1849.3598,
1890.684,1906.5683,
1887.773,1954.1551,
1884.863,1986.8907,
1881.952,1984.0752,
1879.041,1978.026,
1876.131,1957.0118,
1873.220,1979.0222,
1870.310,1944.0135,
1867.399,1935.096,
1864.489,1972.6106,
1861.578,1964.401,
1858.667,1984.7485,
1855.757,2017.6229,
1852.846,1994.7641,
1849.936,2000.8839,
1847.025,2008.3479,
1844.114,2020.5388,
1841.204,2026.1993,
1838.293,2045.5108,
1835.383,2026.4305,
1832.472,2007.6974,
1829.562,2046.0774,
1826.651,2051.8542,
1823.740,2042.272,
1820.830,2084.4413,
1817.919,2100.2575,
1815.009,2080.4504,
1812.098,2068.0236,
1809.188,2093.2635,
1806.277,2056.8631,
1803.366,2096,
1800.456,2099.0776,
1797.545,2146.8371,
1794.635,2104.5141,
1791.724,2171.0775,
1788.813,2196.5738,
1785.903,2105.3857,
1782.992,2044.4917,
1780.082,1922.727,
1777.171,1804.3212,
1774.261,1781.9955,
1771.350,1924.4993,
1768.439,2128.2407,
1765.529,2202.0019,
1762.618,2224.1456,
1759.708,2216.0976,
1756.797,2232.9621,
1753.887,2235.9213,
1750.976,2231.5105,
1748.065,2243,
1745.155,2225.1163,
1742.244,2222.2835,
1739.334,2257.4965,
1736.423,2280.4785,
1733.512,2340.0286,
1730.602,2373.7163,
1727.691,2354.2025,
1724.781,2387.902,
1721.870,2394.1714,
1718.960,2386.4221,
1716.049,2426.9487,
1713.138,2426.45,
1710.228,2403.2426,
1707.317,2438.9211,
1704.407,2471.8503,
1701.496,2536.9852,
1698.586,2506.9646,
1695.675,2559.2068,
1692.764,2541.2254,
1689.854,2577.311,
1686.943,2571.2698,
1684.033,2615.8575,
1681.122,2707.4367,
1678.211,2701.0761,
1675.301,2739.8797,
1672.390,2762.1585,
1669.480,2815.3369,
1666.569,2857.7364,
1663.659,2916.4372,
1660.748,3004.9667,
1657.837,3105.6561,
1654.927,3135.164,
1652.016,3143.871,
1649.106,3221.0564,
1646.195,3304.7263,
1643.285,3378.2357,
1640.374,3518.0662,
1637.463,3570.9184,
1634.553,3732.8374,
1631.642,3924.367,
1628.732,4141.0192,
1625.821,4312.1884,
1622.911,4598.3771,
1620.000,4877.4598,
1617.089,5210.3134,
1614.179,5596.0016,
1611.268,5983.4634,
1608.358,6282.9999,
1605.447,6480.8586,
1602.536,6588.9163,
1599.626,6626.3578,
1596.715,6614.4784,
1593.805,6577.2267,
1590.894,6508.7111,
1587.984,6393.4707,
1585.073,6305.5314,
1582.162,6179.4555,
1579.252,6149.6353,
1576.341,6106.3447,
1573.431,6073.2879,
1570.520,6047.8906,
1567.610,6034.5489,
1564.699,5929.7708,
1561.788,5862.127,
1558.878,5787.1858,
1555.967,5640.4017,
1553.057,5504.087,
1550.146,5405.0765,
1547.235,5322.1836,
1544.325,5221.7017,
1541.414,5090.6116,
1538.504,4976.244,
1535.593,4924.2094,
1532.683,4833.7684,
1529.772,4726.2189,
1526.861,4690.2743,
1523.951,4673.2815,
1521.040,4687.01,
1518.130,4643.1237,
1515.219,4590.5605,
1512.309,4553.4369,
1509.398,4473.814,
1506.487,4391.2609,
1503.577,4291.1255,
1500.666,4234.4916,
1497.756,4276.0072,
1494.845,4154.96,
1491.934,4153.7953,
1489.024,4091.2332,
1486.113,3998.1329,
1483.203,3954.5851,
1480.292,3890.6042,
1477.382,3850.9031,
1474.471,3725.0563,
1471.560,3691.177,
1468.650,3623.6726,
1465.739,3583.0331,
1462.829,3555.9178,
1459.918,3527.7402,
1457.008,3506.846,
1454.097,3515.4863,
1451.186,3534.9207,
1448.276,3560.7796,
1445.365,3623.5024,
1442.455,3639.9739,
1439.544,3594.0908,
1436.633,3537.7855,
1433.723,3499.2492,
1430.812,3499.3746,
1427.902,3478.1882,
1424.991,3444.0688,
1422.081,3479.6991,
1419.170,3540.892,
1416.259,3547.5698,
1413.349,3525.8533,
1410.438,3556.7881,
1407.528,3552.4003,
1404.617,3464.6733,
1401.707,3435.3773,
1398.796,3457.472,
1395.885,3463.7875,
1392.975,3464.5622,
1390.064,3438.639,
1387.154,3419.0474,
1384.243,3442.8604,
1381.332,3404.7546,
1378.422,3458.3424,
1375.511,3600.7331,
1372.601,3759.667,
1369.690,3794.4306,
1366.780,3903.3407,
1363.869,4021.0832,
1360.958,4082.7291,
1358.048,4199.0496,
1355.137,4243.7672,
1352.227,4328.9745,
1349.316,4479.5521,
1346.406,4552.0402,
1343.495,4631.4983,
1340.584,4651.3916,
1337.674,4746.6129,
1334.763,4836.729,
1331.853,4882.1633,
1328.942,4967.6096,
1326.032,5070.9808,
1323.121,5152.0181,
1320.210,5284.2088,
1317.300,5401.3841,
1314.389,5514.4042,
1311.479,5642.6015,
1308.568,5766.1805,
1305.657,5893.6056,
1302.747,6046.9132,
1299.836,6189.6244,
1296.926,6402.0758,
1294.015,6575.8279,
1291.105,6804.8965,
1288.194,6984.3649,
1285.283,7221.0489,
1282.373,7430.9917,
1279.462,7571.2341,
1276.552,7689.9688,
1273.641,7801.3034,
1270.731,7873.1134,
1267.820,7898.275,
1264.909,7871.4072,
1261.999,7915.9694,
1259.088,7860.3301,
1256.178,7749.0865,
1253.267,7514.6509,
1250.356,7294.5861,
1247.446,7044.3951,
1244.535,6775.7995,
1241.625,6509.9077,
1238.714,6240.9028,
1235.804,5982.3547,
1232.893,5784.1402,
1229.982,5710.2778,
1227.072,5570.8597,
1224.161,5504.6862,
1221.251,5404.6589,
1218.340,5283.3063,
1215.430,5191.0582,
1212.519,5168.2245,
1209.608,5147.5624,
1206.698,5074.8296,
1203.787,5060.9699,
1200.877,5117.2846,
1197.966,5154.1501,
1195.055,5272.8951,
1192.145,5411.7123,
1189.234,5601.5198,
1186.324,5745.1878,
1183.413,5796.1168,
1180.503,5805.1177,
1177.592,5800.3732,
1174.681,5721.5342,
1171.771,5737.2691,
1168.860,5662.2496,
1165.950,5656.6126,
1163.039,5633.9527,
1160.129,5619.2812,
1157.218,5592.4439,
1154.307,5537.689,
1151.397,5485.6539,
1148.486,5467.9106,
1145.576,5405.9251,
1142.665,5427.2351,
1139.754,5364.7233,
1136.844,5337.3945,
1133.933,5329.654,
1131.023,5270.4043,
1128.112,5210.6422,
1125.202,5224.0724,
1122.291,5235.2372,
1119.380,5202.0346,
1116.470,5205.5648,
1113.559,5200.5873,
1110.649,5199,
1107.738,5178.6389,
1104.828,5146.4365,
1101.917,5125.7041,
1099.006,5119.9177,
1096.096,5097.8814,
1093.185,5128.6115,
1090.275,5217.5919,
1087.364,5166.6432,
1084.453,5195.3086,
1081.543,5298.6541,
1078.632,5369.6866,
1075.722,5368.4358,
1072.811,5366.8067,
1069.901,5378.1591,
1066.990,5371.725,
1064.079,5310.1148,
1061.169,5268.7448,
1058.258,5249.1068,
1055.348,5264.6321,
1052.437,5332.6399,
1049.527,5339.4559,
1046.616,5299.4898,
1043.705,5377.4719,
1040.795,5383.4834,
1037.884,5391.7123,
1034.974,5431.2281,
1032.063,5477.015,
1029.153,5511.8043,
1026.242,5535.1581,
1023.331,5580.1638,
1020.421,5614.7928,
1017.510,5647.2905,
1014.600,5702.0637,
1011.689,5755.7104,
1008.778,5768.0636,
1005.868,5816.444,
1002.957,5977.3303,
1000.047,6218.9441,
997.136,6435.0849,
994.226,6557.6611,
991.315,6601.4381,
988.404,6600.626,
985.494,6485.8056,
982.583,6521.7809,
979.673,6559.9241,
976.762,6551.4514,
973.852,6573.6869,
970.941,6622.371,
968.030,6629.3526,
965.120,6637.1432,
962.209,6671.2449,
959.299,6669.9175,
956.388,6648.5212,
953.477,6684.9674,
950.567,6734.4719,
947.656,6675.5759,
944.746,6733.3457,
941.835,6706.0369,
938.925,6741.1152,
936.014,6743.2728,
933.103,6690.8091,
930.193,6610.6236,
927.282,6527.913,
924.372,6434.0507,
921.461,6322.586,
918.551,6207.4121,
915.640,6133.0023,
912.729,6087.7264,
909.819,6023.8863,
906.908,6000.2984,
903.998,6005.3629,
901.087,5992.3604,
898.176,6007.3826,
895.266,6073.6271,
892.355,6169.1671,
889.445,6212.809,
886.534,6262.2574,
883.624,6321.1167,
880.713,6400.6288,
877.802,6392.5117,
874.892,6216.6983,
871.981,5943.8115,
869.071,5724.0979,
866.160,5809.5028,
863.250,6035.3659,
860.339,6201.4552,
857.428,6224.487,
854.518,6230.7393,
851.607,6083.463,
848.697,5844.7767,
845.786,5742.2914,
842.875,5812.852,
839.965,5989.2049,
837.054,6150.1302,
834.144,6161.7328,
831.233,6149.3344,
828.323,6075.2328,
825.412,6019.5566,
822.501,6012.4885,
819.591,5826.5487,
816.680,5750.4871,
813.770,5706.0604,
810.859,5648.9371,
807.949,5583.5658,
805.038,5541.9049,
802.127,5532.8505,
799.217,5522.3099,
796.306,5458.2698,
793.396,5437.6949,
790.485,5483.4751,
787.574,5505.3389,
784.664,5540.6037,
781.753,5573.8394,
778.843,5654.1413,
775.932,5727.0864,
773.022,5721.1934,
770.111,5638.618,
767.200,5660.4072,
764.290,5619.3025,
761.379,5561.3373,
758.469,5520.8849,
755.558,5494.1702,
752.648,5499.8724,
749.737,5465.0966,
746.826,5451.1284,
743.916,5393.6159,
741.005,5219.0871,
738.095,5122.4738,
735.184,4942.2459,
732.274,4939.6854,
729.363,5075.333,
726.452,5240.7174,
723.542,5311.1347,
720.631,5422.8,
717.721,5502.4005,
714.810,5573.5452,
711.899,5618.5148,
708.989,5556.3816,
706.078,5565.6156,
703.168,5556.4628,
700.257,5525.0708,
697.347,5483.1747,
694.436,5454.8036,
691.525,5447.5694,
688.615,5467.383,
685.704,5484.3169,
682.794,5503.3403,
679.883,5546.135,
676.973,5526.9021,
674.062,5531.2951,
671.151,5518.9051,
668.241,5480.0844,
665.330,5426.9076,
662.420,5446.0771,
659.509,5464.6034,
656.598,5476.0292,
653.688,5503.2343,
650.777,5583.2952,
647.867,5650.9831,
644.956,5588.6062,
642.046,5487.5168,
639.135,5403.8252,
636.224,5373.0318,
633.314,5379.3833,
630.403,5394.5978,
627.493,5415.5222,
624.582,5427.9966,
621.672,5401.0688,
618.761,5406.8395,
615.850,5417.8158,
612.940,5449.249,
610.029,5491.5282,
607.119,5464.6808,
604.208,5434.3095,
601.297,5445.9318,
598.387,5474.7326,
595.476,5483.3548,
592.566,5423.5376,
589.655,5410.4084,
586.745,5390.3394,
583.834,5360.0712,
580.923,5338.7868,
578.013,5303.4737,
575.102,5283.1018,
572.192,5315.7304,
569.281,5386.0474,
566.371,5369.6123,
563.460,5381.4039,
560.549,5426.9568,
557.639,5451.2748,
554.728,5407.9271,
551.818,5485.9587,
548.907,5541.393,
545.996,5560.1682,
543.086,5557.5427,
540.175,5587.9099,
537.265,5636.3539,
534.354,5630.4205,
531.444,5626.5061,
528.533,5676.8345,
525.622,5674.5066,
522.712,5741.9564,
519.801,5815.0229,
516.891,5879.2155,
513.980,5964.3881,
511.070,6067.7912,
508.159,6157.1893,
505.248,6225.2707,
502.338,6272.2021,
499.427,6415.7629,
496.517,6533.1918,
493.606,6625.9667,
490.695,6691.1397,
487.785,6706.5355,
484.874,6705.7689,
481.964,6677.4222,
479.053,6646.2512,
476.143,6672.3619,
473.232,6581.9163,
470.321,6595.6308,
467.411,6641.9218,
464.500,6626.5987,
461.590,6729.2079,
458.679,6761.3018,
455.769,6800.2324,
452.858,6887.3512,
449.947,6967.564,
447.037,7026.4732,
444.126,7087.6424,
441.216,7155.3185,
438.305,7214.7492,
435.395,7239.3909,
432.484,7253.4178,
429.573,7261.1775,
426.663,7261.9376,
423.752,6971.8737,
420.842,6616.7436,
417.931,6341.1989,
415.020,6331.3403,
412.110,7005.5473,
409.199,7445.1758,
406.289,7615.4985,
403.378,7521.5056,
400.468,7375.5987,
397.557,7465.7638,
394.646,7635.1325,
391.736,7746.1489,
388.825,7813.2755,
385.915,7818.0986,
383.004,7822.7037,
380.094,7870.9157,
377.183,7947.6683,
374.272,8072.6711,
371.362,8157.9397,
368.451,8152.5897,
365.541,8145.8349,
362.630,8170.2195,
359.719,8220.1169,
356.809,8288.8124,
353.898,8318.7643,
350.988,8311.8104,
348.077,8294.3535,
345.167,8280.1997,
342.256,8224.9167,
339.345,8240.3545,
336.435,8261.0602,
333.524,8243.3288,
330.614,8253.761,
327.703,8274.4558,
324.793,8308.5298,
321.882,8359.2199,
318.971,8449.92,
316.061,8544.9691,
313.150,8625.8571,
310.240,8670.3841,
307.329,8773.4784,
304.418,8842.2691,
301.508,8846.6584,
298.597,8736.3363,
295.687,8780.502,
292.776,8790.1666,
289.866,8809.258,
286.955,9005.0202,
284.044,9113.9599,
281.134,9180.9955,
278.223,9234.8317,
275.313,9370.4131,
272.402,9398.4191,
269.492,9381.5237,
266.581,9340.5873,
263.670,9264.8637,
260.760,9409.1179,
257.849,9604.1134,
254.939,9727.4056,
252.028,9794.146,
249.117,9797.0723,
246.207,9781.9858,
243.296,9824.444,
240.386,9825.082,
237.475,9876.402,
234.565,9945.6652,
231.654,9841.9507,
228.743,9821.7261,
225.833,9814.7678,
222.922,9798.7858,
220.012,9858.5274,
217.101,9884.3793,
214.191,9864.3356,
211.280,9775.5852,
208.369,9856.4657,
205.459,9876.2427,
202.548,9838.2395,
199.638,9816.4701,
196.727,9886.9081,
193.816,9910.9947,
190.906,9840.93,
187.995,9895.9559,
185.085,9975.0527,
182.174,10048.856,
179.264,10074.153,
176.353,10091.738,
173.442,10103.263,
170.532,10104.38,
167.621,10064.726,
164.711,9920.5058,
161.800,9666.5498,
158.890,9275.7377,
155.979,8780.4405,
153.068,8148.9175,
150.158,7381.9412,
147.247,6452.911,
144.337,5377.198,
141.426,4280.3865,
138.516,3217.2368,
135.605,2304.4973,
132.694,1573.6047,
129.784,1017.545,
126.873,671.4222,
123.963,455.31805,
121.052,308.73898,
118.141,217.35952,
115.231,177.20806,
112.320,144.4782,
109.410,118.31841,
106.499,99.090217,
103.589,93.319237,
100.678,86.295944,
97.767,71.366255,
94.857,66.149077,
91.946,62.387557,
89.036,58.758123,
86.125,50.956865,
83.215,50.592761,
80.304,51.521135,
77.393,50.104795,
74.483,44.103785,
71.572,39.912944,
68.662,38.207802,
65.751,40.327156,
62.840,33.77447,
59.930,26.749145,
57.019,29.569473,
54.109,24.028392,
51.198,21.206437,
48.288,23.994338,
45.377,23.290959,
42.466,18.053368,
39.556,12.036067,
36.645,18.355779,
33.735,17.923006,
30.824,15.779113,
27.914,15.077938,
25.003,18.113187,
22.092,17.093859,
19.182,10.588108,
16.271,-2.0027139,
13.361,-46.195592,
10.450,-160.21507,
7.539,-510.07107,
4.629,-869.48899,
1.718,-1055.7858,
-1.192,-843.15671,
-4.103,-553.48678,
-7.013,-267.86345,
-9.924,-2,
