,PLE6E5~1,
Wavenumbers [1/cm],Intensity,
3014.167,2.125,
3011.256,-0.97502147,
3008.346,231.17643,
3005.435,250.16387,
3002.525,268.76762,
2999.614,267.68995,
2996.704,275.03634,
2993.793,264.86809,
2990.882,272.94941,
2987.972,287.09978,
2985.061,279.90825,
2982.151,298.26115,
2979.240,313.75808,
2976.329,312.8709,
2973.419,316.60176,
2970.508,323.74166,
2967.598,328.125,
2964.687,322.39402,
2961.777,325.18492,
2958.866,330.78474,
2955.955,343.16039,
2953.045,341.22568,
2950.134,339.45443,
2947.224,337.52356,
2944.313,347.08013,
2941.403,356.03011,
2938.492,355.67784,
2935.581,355.57652,
2932.671,342.97054,
2929.760,374.86731,
2926.850,360.11786,
2923.939,353.32594,
2921.028,363.22513,
2918.118,343.82651,
2915.207,354.94777,
2912.297,357.11231,
2909.386,347.48268,
2906.476,344.63622,
2903.565,323.81908,
2900.654,293.71452,
2897.744,297.84841,
2894.833,263.7541,
2891.923,255.0449,
2889.012,203.29841,
2886.102,139.44531,
2883.191,-2.766438,
2880.280,-466.0474,
2877.370,-1278.4781,
2874.459,-1533.8416,
2871.549,-757.10623,
2868.638,-46.112416,
2865.727,91.817244,
2862.817,164.75598,
2859.906,239.58084,
2856.996,264.52763,
2854.085,292.28678,
2851.175,316.7184,
2848.264,312.9045,
2845.353,342.9309,
2842.443,338.11804,
2839.532,350.33392,
2836.622,385.91146,
2833.711,375.44368,
2830.801,361.33382,
2827.890,384.51833,
2824.979,369.55702,
2822.069,381.22735,
2819.158,388.22473,
2816.248,399.32,
2813.337,405.46524,
2810.427,401.91151,
2807.516,408.5925,
2804.605,422.79085,
2801.695,396.99342,
2798.784,413.72046,
2795.874,400.125,
2792.963,400.76787,
2790.052,385.12843,
2787.142,382.94092,
2784.231,393.57687,
2781.321,396.94218,
2778.410,391.28112,
2775.500,389.10085,
2772.589,392.00956,
2769.678,379.0568,
2766.768,407.33088,
2763.857,399.283,
2760.947,403.64706,
2758.036,396.95933,
2755.126,393.50534,
2752.215,389.27493,
2749.304,407.67713,
2746.394,403.58471,
2743.483,401.82497,
2740.573,413.44803,
2737.662,401.79512,
2734.751,406.91622,
2731.841,418.93636,
2728.930,391.84099,
2726.020,406.4566,
2723.109,408.67133,
2720.199,408.84996,
2717.288,405.33667,
2714.377,405.8332,
2711.467,414.9283,
2708.556,418.2951,
2705.646,416.20949,
2702.735,431.11468,
2699.825,432.37414,
2696.914,444.125,
2694.003,447.5559,
2691.093,425.21406,
2688.182,439.745,
2685.272,445.29286,
2682.361,423.33679,
2679.450,420.00155,
2676.540,447.88111,
2673.629,434.46582,
2670.719,439.47528,
2667.808,430.8059,
2664.898,446.34582,
2661.987,442.99164,
2659.076,439.50647,
2656.166,441.27209,
2653.255,460.31207,
2650.345,451.98888,
2647.434,455.23961,
2644.524,465.19454,
2641.613,466.23939,
2638.702,475.99875,
2635.792,471.28153,
2632.881,458.73232,
2629.971,480.78961,
2627.060,481.95844,
2624.149,471.93751,
2621.239,476.15464,
2618.328,462.7859,
2615.418,461.09773,
2612.507,472.50445,
2609.597,471.21682,
2606.686,481.68324,
2603.775,483.32341,
2600.865,478.88951,
2597.954,506.98126,
2595.044,504.45538,
2592.133,501.45617,
2589.223,483.96814,
2586.312,494.41648,
2583.401,492.8586,
2580.491,499.67308,
2577.580,498.12335,
2574.670,491.31352,
2571.759,478.87757,
2568.848,481.125,
2565.938,485.93454,
2563.027,479.00231,
2560.117,486.01288,
2557.206,494.22094,
2554.296,497.38587,
2551.385,510.93498,
2548.474,508.125,
2545.564,505.21997,
2542.653,523.36661,
2539.743,518.32216,
2536.832,499.85958,
2533.922,521.98308,
2531.011,519.72444,
2528.100,526.99605,
2525.190,531.56475,
2522.279,511.45329,
2519.369,515.71005,
2516.458,499.56197,
2513.548,500.02488,
2510.637,527.86279,
2507.726,544.43356,
2504.816,534.18474,
2501.905,526.05244,
2498.995,540.76669,
2496.084,535.125,
2493.173,545.62533,
2490.263,550.93403,
2487.352,564.83287,
2484.442,556.98582,
2481.531,559.9175,
2478.621,562.82167,
2475.710,555.21701,
2472.799,571.81105,
2469.889,568.18868,
2466.978,563.55785,
2464.068,561.4636,
2461.157,589.84771,
2458.247,562.80156,
2455.336,568.50856,
2452.425,552.75234,
2449.515,602.73831,
2446.604,607.125,
2443.694,590.84535,
2440.783,600.1768,
2437.872,584.41672,
2434.962,595.27707,
2432.051,602.17435,
2429.141,611.51309,
2426.230,613.32057,
2423.320,630.55377,
2420.409,622.8814,
2417.498,615.74859,
2414.588,610.125,
2411.677,632.73056,
2408.767,629.96653,
2405.856,642.33696,
2402.946,628.75592,
2400.035,632.62031,
2397.124,612.69718,
2394.214,621.881,
2391.303,594.76051,
2388.393,550.25052,
2385.482,493.32809,
2382.571,389.7447,
2379.661,449.05449,
2376.750,591.6344,
2373.840,635.71254,
2370.929,647.96255,
2368.019,670.2814,
2365.108,684.61191,
2362.197,685.38795,
2359.287,676.92333,
2356.376,690.10211,
2353.466,689.27564,
2350.555,710.4203,
2347.645,723.71705,
2344.734,701.27241,
2341.823,714.79334,
2338.913,714.32945,
2336.002,702.87849,
2333.092,727.32029,
2330.181,707.22737,
2327.270,717.0799,
2324.360,713.45284,
2321.449,712.67943,
2318.539,728.80698,
2315.628,731.54546,
2312.718,735.30782,
2309.807,744.78343,
2306.896,740.88087,
2303.986,746.60555,
2301.075,742.48673,
2298.165,773.03913,
2295.254,745.92209,
2292.344,755.60223,
2289.433,741.11727,
2286.522,753.49988,
2283.612,756.77422,
2280.701,777.22361,
2277.791,781.2853,
2274.880,788.97693,
2271.969,793.06738,
2269.059,791.0896,
2266.148,811.60914,
2263.238,810.62693,
2260.327,791.09065,
2257.417,805.31111,
2254.506,816.40708,
2251.595,811.71055,
2248.685,819.27493,
2245.774,803.59792,
2242.864,842.76342,
2239.953,821.53193,
2237.043,819.24214,
2234.132,825.77694,
2231.221,828.5462,
2228.311,820.42656,
2225.400,850.7442,
2222.490,874.35306,
2219.579,893.0145,
2216.669,903.15839,
2213.758,895.47271,
2210.847,891.90082,
2207.937,884.41003,
2205.026,914.79118,
2202.116,922.09423,
2199.205,904.30006,
2196.294,928.41493,
2193.384,936.75698,
2190.473,968.16022,
2187.563,975.10567,
2184.652,973.38418,
2181.742,1003.559,
2178.831,1039.409,
2175.920,1072.3436,
2173.010,1122.8767,
2170.099,1170.9871,
2167.189,1206.5268,
2164.278,1270.7823,
2161.368,1345.6935,
2158.457,1435.9316,
2155.546,1493.6241,
2152.636,1561.0823,
2149.725,1632.3934,
2146.815,1720.4221,
2143.904,1764.4447,
2140.993,1819.8074,
2138.083,1850.5961,
2135.172,1882.4361,
2132.262,1898.8662,
2129.351,1858.1213,
2126.441,1813.4356,
2123.530,1765.2832,
2120.619,1681.63,
2117.709,1595.2289,
2114.798,1496.817,
2111.888,1395.0404,
2108.977,1295.615,
2106.067,1215.7299,
2103.156,1183.0476,
2100.245,1119.1081,
2097.335,1089.7166,
2094.424,1064.9445,
2091.514,1039.9798,
2088.603,1026.632,
2085.692,1016.125,
2082.782,1008.3499,
2079.871,975.55208,
2076.961,996.25224,
2074.050,986.46439,
2071.140,988.78052,
2068.229,968.57421,
2065.318,971.68025,
2062.408,953.32168,
2059.497,952.75002,
2056.587,949.06706,
2053.676,945.75823,
2050.766,952.58614,
2047.855,938.03956,
2044.944,932.19873,
2042.034,921.18291,
2039.123,949.50547,
2036.213,936.43604,
2033.302,901.08172,
2030.391,920.39536,
2027.481,933.40552,
2024.570,922.85382,
2021.660,917.36152,
2018.749,897.125,
2015.839,899.14272,
2012.928,912.35487,
2010.017,913.125,
2007.107,915.63715,
2004.196,919.63691,
2001.286,907.43598,
1998.375,907.4754,
1995.465,907.97857,
1992.554,884.33696,
1989.643,872.43607,
1986.733,863.60658,
1983.822,870.43224,
1980.912,863.54112,
1978.001,873.24374,
1975.090,859.96011,
1972.180,847.09042,
1969.269,846.99281,
1966.359,827.31395,
1963.448,837.57943,
1960.538,812.66461,
1957.627,827.41604,
1954.716,811.67081,
1951.806,813.82693,
1948.895,800.21824,
1945.985,748.57598,
1943.074,769.0621,
1940.164,788.23057,
1937.253,781.59436,
1934.342,780.5095,
1931.432,746.91995,
1928.521,741.21654,
1925.611,743.96268,
1922.700,748.66505,
1919.790,731.17724,
1916.879,713.24099,
1913.968,727.10656,
1911.058,712.30519,
1908.147,739.8038,
1905.237,701.64695,
1902.326,622.73095,
1899.415,560.89691,
1896.505,505.51657,
1893.594,548.82638,
1890.684,632.6542,
1887.773,690.27087,
1884.863,720.96782,
1881.952,712.47765,
1879.041,731.84567,
1876.131,736.05311,
1873.220,722.04973,
1870.310,696.91876,
1867.399,733.50125,
1864.489,714.8524,
1861.578,709.43259,
1858.667,718.16395,
1855.757,700.30638,
1852.846,720.37116,
1849.936,714.19508,
1847.025,707.24179,
1844.114,727.62153,
1841.204,743.10402,
1838.293,740.1117,
1835.383,749.218,
1832.472,750.125,
1829.562,746.93099,
1826.651,756.06544,
1823.740,790.9718,
1820.830,804.43998,
1817.919,774.99307,
1815.009,785.24968,
1812.098,771.96753,
1809.188,768.24904,
1806.277,809.19546,
1803.366,767.29136,
1800.456,778.00431,
1797.545,792.75622,
1794.635,790.28602,
1791.724,790.53287,
1788.813,745.91703,
1785.903,701.42746,
1782.992,589.91174,
1780.082,345.13895,
1777.171,12.757721,
1774.261,-27.003248,
1771.350,332.28959,
1768.439,716.09168,
1765.529,823.76487,
1762.618,834.04685,
1759.708,849.73398,
1756.797,876.04924,
1753.887,873.43258,
1750.976,868.58704,
1748.065,891.31701,
1745.155,881.57679,
1742.244,894.93474,
1739.334,887.89912,
1736.423,892.96236,
1733.512,887.48269,
1730.602,924.26593,
1727.691,895.13601,
1724.781,906.50887,
1721.870,916.34407,
1718.960,945.90312,
1716.049,954.64192,
1713.138,953.41501,
1710.228,976.62302,
1707.317,978.35586,
1704.407,1015.8577,
1701.496,986.39773,
1698.586,1000.6807,
1695.675,1058.2675,
1692.764,1084.8463,
1689.854,1066.0344,
1686.943,1050.6309,
1684.033,1060.8518,
1681.122,1116.1734,
1678.211,1128.0203,
1675.301,1169.9955,
1672.390,1210.0652,
1669.480,1190.6464,
1666.569,1255.3535,
1663.659,1273.076,
1660.748,1272.0146,
1657.837,1368.0594,
1654.927,1366.5307,
1652.016,1424.7362,
1649.106,1411.3038,
1646.195,1497.2619,
1643.285,1463.8568,
1640.374,1538.8149,
1637.463,1572.7463,
1634.553,1661.657,
1631.642,1698.0914,
1628.732,1786.605,
1625.821,1867.2611,
1622.911,2073.9529,
1620.000,2106.7218,
1617.089,2312.9459,
1614.179,2458.0359,
1611.268,2597.8829,
1608.358,2772.7905,
1605.447,2770.7535,
1602.536,2840.0165,
1599.626,2881.9223,
1596.715,2835.2069,
1593.805,2738.9031,
1590.894,2733.409,
1587.984,2730.6606,
1585.073,2606.7566,
1582.162,2580.1157,
1579.252,2530.8452,
1576.341,2532.942,
1573.431,2489.1346,
1570.520,2473.0675,
1567.610,2481.0663,
1564.699,2450.0486,
1561.788,2389.9424,
1558.878,2317.5522,
1555.967,2270.6624,
1553.057,2204.2635,
1550.146,2150.3869,
1547.235,2097.7538,
1544.325,2047.3727,
1541.414,2003.2023,
1538.504,1990.3734,
1535.593,1955.3027,
1532.683,1870.9953,
1529.772,1820.0876,
1526.861,1798.0435,
1523.951,1790.9157,
1521.040,1805.5607,
1518.130,1790.6829,
1515.219,1783.7658,
1512.309,1725.1654,
1509.398,1644.0221,
1506.487,1682.567,
1503.577,1596.7702,
1500.666,1607.9838,
1497.756,1572.6077,
1494.845,1542.045,
1491.934,1539.9675,
1489.024,1491.8429,
1486.113,1463.2357,
1483.203,1469.1185,
1480.292,1389.5164,
1477.382,1414.7292,
1474.471,1361.9673,
1471.560,1330.063,
1468.650,1295.061,
1465.739,1265.7532,
1462.829,1223.7032,
1459.918,1186.2077,
1457.008,1180.2174,
1454.097,1184.7385,
1451.186,1190.6105,
1448.276,1222.8942,
1445.365,1254.3383,
1442.455,1232.0122,
1439.544,1214.0987,
1436.633,1230.9681,
1433.723,1164.0004,
1430.812,1163.2728,
1427.902,1165.8691,
1424.991,1197.1453,
1422.081,1144.9113,
1419.170,1137.5328,
1416.259,1150.086,
1413.349,1147.0831,
1410.438,1150.0235,
1407.528,1133.4565,
1404.617,1086.1359,
1401.707,1082.3825,
1398.796,1068.1391,
1395.885,1024.7509,
1392.975,1034.8341,
1390.064,1078.3088,
1387.154,1097.4142,
1384.243,1081.9544,
1381.332,1126.137,
1378.422,1104.8784,
1375.511,1158.2749,
1372.601,1211.6545,
1369.690,1279.5595,
1366.780,1318.6383,
1363.869,1358.8165,
1360.958,1408.0971,
1358.048,1457.9772,
1355.137,1502.7808,
1352.227,1530.9878,
1349.316,1583.4515,
1346.406,1676.7541,
1343.495,1728.8689,
1340.584,1750.3739,
1337.674,1820.6226,
1334.763,1786.3007,
1331.853,1869.7515,
1328.942,1944.2821,
1326.032,2011.8497,
1323.121,2054.0226,
1320.210,2092.0937,
1317.300,2156.885,
1314.389,2240.4315,
1311.479,2351.2216,
1308.568,2438.3577,
1305.657,2477.278,
1302.747,2573.852,
1299.836,2639.7812,
1296.926,2782.8597,
1294.015,2841.6964,
1291.105,2931.2986,
1288.194,3063.7352,
1285.283,3169.3053,
1282.373,3278.8591,
1279.462,3369.5947,
1276.552,3418.6684,
1273.641,3417.5611,
1270.731,3383.0101,
1267.820,3328.9254,
1264.909,3220.8737,
1261.999,3332.053,
1259.088,3439.6833,
1256.178,3404.1586,
1253.267,3308.1303,
1250.356,3256.7439,
1247.446,3161.223,
1244.535,3002.0271,
1241.625,2894.0695,
1238.714,2835.6185,
1235.804,2715.8581,
1232.893,2674.2575,
1229.982,2637.5799,
1227.072,2562.439,
1224.161,2535.2719,
1221.251,2499.1111,
1218.340,2466.0994,
1215.430,2435.9573,
1212.519,2420.6722,
1209.608,2392.4837,
1206.698,2338.8058,
1203.787,2330.8386,
1200.877,2339.0663,
1197.966,2321.9823,
1195.055,2466.1773,
1192.145,2553.4865,
1189.234,2598.7791,
1186.324,2641.5824,
1183.413,2691.2976,
1180.503,2725.823,
1177.592,2722.5289,
1174.681,2694.125,
1171.771,2692.7856,
1168.860,2634.7348,
1165.950,2687.9841,
1163.039,2672.0937,
1160.129,2653.8163,
1157.218,2624.1653,
1154.307,2610.966,
1151.397,2621.527,
1148.486,2579.076,
1145.576,2572.8552,
1142.665,2566.6398,
1139.754,2610.061,
1136.844,2590.012,
1133.933,2548.9727,
1131.023,2546.5925,
1128.112,2563.9825,
1125.202,2561.0912,
1122.291,2565.3784,
1119.380,2574.4455,
1116.470,2607.099,
1113.559,2558.5441,
1110.649,2577.177,
1107.738,2580.1221,
1104.828,2587.5139,
1101.917,2591.5677,
1099.006,2541.0114,
1096.096,2576.5124,
1093.185,2550.1723,
1090.275,2573.2124,
1087.364,2604.5115,
1084.453,2632.4365,
1081.543,2658.7098,
1078.632,2678.9455,
1075.722,2687.7578,
1072.811,2701.6691,
1069.901,2737.4728,
1066.990,2708.6001,
1064.079,2681.3901,
1061.169,2668.8112,
1058.258,2659.7727,
1055.348,2671.4081,
1052.437,2720.289,
1049.527,2722.0313,
1046.616,2745.4897,
1043.705,2758.1449,
1040.795,2773.8951,
1037.884,2784.6652,
1034.974,2790.732,
1032.063,2790.3559,
1029.153,2779.7988,
1026.242,2818.7218,
1023.331,2828.4578,
1020.421,2840.5815,
1017.510,2872.0182,
1014.600,2885.9352,
1011.689,2856.7402,
1008.778,2790.6783,
1005.868,2689.1327,
1002.957,2689.9931,
1000.047,2925.2691,
997.136,3156.4325,
994.226,3274.5247,
991.315,3301.6052,
988.404,3309.2611,
985.494,3284.3552,
982.583,3294.6338,
979.673,3307.0997,
976.762,3330.4994,
973.852,3299.924,
970.941,3277.9124,
968.030,3354.9689,
965.120,3337.1393,
962.209,3340.5495,
959.299,3343.958,
956.388,3369.2035,
953.477,3387.3029,
950.567,3385.6022,
947.656,3382.4538,
944.746,3369.7105,
941.835,3395.8488,
938.925,3416.6021,
936.014,3393.2696,
933.103,3387.4885,
930.193,3420.7389,
927.282,3371.642,
924.372,3307.3759,
921.461,3271.8782,
918.551,3212.1647,
915.640,3160.827,
912.729,3138.2465,
909.819,3132.1242,
906.908,3124.5423,
903.998,3117.7621,
901.087,3150.4963,
898.176,3187.304,
895.266,3217.5514,
892.355,3239.9262,
889.445,3228.1764,
886.534,3260.685,
883.624,3320.2787,
880.713,3318.5658,
877.802,3185.1284,
874.892,2875.6555,
871.981,2386.1154,
869.071,2046.9378,
866.160,2340.6944,
863.250,2784.2913,
860.339,3109.3502,
857.428,3229.0815,
854.518,3224.3629,
851.607,2921.4896,
848.697,2590.5591,
845.786,2475.0233,
842.875,2629.4885,
839.965,2951.1119,
837.054,3193.5902,
834.144,3235.0278,
831.233,3241.1251,
828.323,3249.0273,
825.412,3251.6857,
822.501,3232.1674,
819.591,3199.1114,
816.680,3158.8621,
813.770,3112.7878,
810.859,3085.2589,
807.949,3073.9908,
805.038,3062.229,
802.127,3054.8208,
799.217,3051.8888,
796.306,3058.5034,
793.396,3077.7511,
790.485,3092.3864,
787.574,3068.246,
784.664,3097.77,
781.753,3134.6612,
778.843,3161.3969,
775.932,3181.7668,
773.022,3201.2518,
770.111,3202.0694,
767.200,3177.763,
764.290,3186.3056,
761.379,3185.9151,
758.469,3159.3821,
755.558,3130.3681,
752.648,3138.5142,
749.737,3116.6246,
746.826,3122.3076,
743.916,3131.1183,
741.005,3093.7974,
738.095,3037.7779,
735.184,3028.2648,
732.274,2996.0971,
729.363,3008.8089,
726.452,3092.6333,
723.542,3112.0587,
720.631,3138.3548,
717.721,3167.3203,
714.810,3199.8749,
711.899,3218.4715,
708.989,3181.353,
706.078,3196.3498,
703.168,3187.3734,
700.257,3191.5022,
697.347,3203.4734,
694.436,3183.0595,
691.525,3180.6481,
688.615,3180.7539,
685.704,3178.1031,
682.794,3184.8908,
679.883,3219.9087,
676.973,3215.1005,
674.062,3230.0771,
671.151,3233.4267,
668.241,3215.1656,
665.330,3180.4275,
662.420,3186.8174,
659.509,3209.0777,
656.598,3216.3648,
653.688,3214.2658,
650.777,3227.666,
647.867,3214.1284,
644.956,3118.8716,
642.046,2953.9149,
639.135,2822.5051,
636.224,2903.9048,
633.314,3059.5168,
630.403,3172.4351,
627.493,3234.6472,
624.582,3252.7719,
621.672,3251.1879,
618.761,3260.2443,
615.850,3293.9803,
612.940,3314.3435,
610.029,3305.9141,
607.119,3310.6519,
604.208,3286.2745,
601.297,3301.5494,
598.387,3321.3924,
595.476,3305.4909,
592.566,3288.1754,
589.655,3278.6461,
586.745,3246.4831,
583.834,3228.2288,
580.923,3295.9449,
578.013,3266.125,
575.102,3269.5968,
572.192,3266.6919,
569.281,3246.5468,
566.371,3248.8947,
563.460,3276.6383,
560.549,3310.5398,
557.639,3335.4678,
554.728,3339.9626,
551.818,3353.228,
548.907,3379.8921,
545.996,3388.9044,
543.086,3384.4934,
540.175,3409.4101,
537.265,3432.1291,
534.354,3415.5422,
531.444,3404.5006,
528.533,3444.4225,
525.622,3518.9134,
522.712,3518.7427,
519.801,3525.3096,
516.891,3558.2897,
513.980,3583.8414,
511.070,3603.0293,
508.159,3635.436,
505.248,3703.6837,
502.338,3825.0572,
499.427,3822.7417,
496.517,3891.135,
493.606,3960.6131,
490.695,3992.5901,
487.785,3988.7411,
484.874,4013.974,
481.964,4028.5403,
479.053,4018.0935,
476.143,3972.0158,
473.232,3939.6294,
470.321,3938.3431,
467.411,3933.1696,
464.500,3886.9395,
461.590,3919.1006,
458.679,3963.8942,
455.769,4010.1385,
452.858,4052.8515,
449.947,4107.8546,
447.037,4150.6765,
444.126,4192.5674,
441.216,4219.3357,
438.305,4162.9527,
435.395,4185.9399,
432.484,4200.0412,
429.573,4161.2696,
426.663,4007.7212,
423.752,3268.4144,
420.842,2359.4332,
417.931,1687.1691,
415.020,1806.9897,
412.110,2966.3422,
409.199,3675.6993,
406.289,3917.0578,
403.378,3741.7075,
400.468,3618.4804,
397.557,3717.9454,
394.646,3972.4853,
391.736,4308.9117,
388.825,4364.7248,
385.915,4400.284,
383.004,4431.4022,
380.094,4468.4302,
377.183,4494.0144,
374.272,4513.6089,
371.362,4537.3697,
368.451,4569.8089,
365.541,4581.0669,
362.630,4593.9573,
359.719,4611.8919,
356.809,4633.0408,
353.898,4598.5961,
350.988,4588.04,
348.077,4595.8373,
345.167,4617.7305,
342.256,4629.6836,
339.345,4644.8165,
336.435,4659.2889,
333.524,4669.5613,
330.614,4651.6776,
327.703,4655.8797,
324.793,4680.0769,
321.882,4723.1611,
318.971,4738.0299,
316.061,4759.2394,
313.150,4805.6868,
310.240,4900.6777,
307.329,4910.5567,
304.418,4977.4144,
301.508,5043.2942,
298.597,5002.5713,
295.687,5014.0243,
292.776,5062.3752,
289.866,5133.8258,
286.955,5198.8336,
284.044,5258.0924,
281.134,5350.4442,
278.223,5462.0051,
275.313,5488.5319,
272.402,5435.4538,
269.492,5325.0016,
266.581,5169.9796,
263.670,5056.0267,
260.760,5208.0487,
257.849,5446.1577,
254.939,5643.5721,
252.028,5677.9742,
249.117,5739.4624,
246.207,5847.3718,
243.296,6037.7014,
240.386,6139.749,
237.475,6229.6116,
234.565,6306.5407,
231.654,6321.8788,
228.743,6386.114,
225.833,6446.6747,
222.922,6485.7262,
220.012,6562.9531,
217.101,6633.2709,
214.191,6710.942,
211.280,6813.5143,
208.369,6885.7151,
205.459,6952.259,
202.548,7012.6459,
199.638,7056.1849,
196.727,7089.3261,
193.816,7143.8498,
190.906,7232.8581,
187.995,7339.2897,
185.085,7435.232,
182.174,7499.362,
179.264,7492.8572,
176.353,7515.193,
173.442,7524.4994,
170.532,7509.0522,
167.621,7431.1869,
164.711,7214.6138,
161.800,6903.446,
158.890,6509.0353,
155.979,6131.336,
153.068,5696.5157,
150.158,5186.6044,
147.247,4531.114,
144.337,3781.2016,
141.426,3020.3962,
138.516,2285.5826,
135.605,1614.4909,
132.694,1094.8884,
129.784,709.53378,
126.873,449.94165,
123.963,304.93564,
121.052,209.34568,
118.141,144.3806,
115.231,120.67618,
112.320,101.80501,
109.410,86.53425,
106.499,73.003301,
103.589,57.799402,
100.678,47.581757,
97.767,46.159881,
94.857,48.203967,
91.946,44.69078,
89.036,36.431531,
86.125,25.793452,
83.215,28.965124,
80.304,31.970106,
77.393,25.596576,
74.483,29.710945,
71.572,28.863831,
68.662,23.055733,
65.751,22.349281,
62.840,19.71649,
59.930,16.001283,
57.019,11.770791,
54.109,17.693769,
51.198,20.918563,
48.288,18.085363,
45.377,13.161716,
42.466,14.010535,
39.556,18.125,
36.645,18.125,
33.735,22.278988,
30.824,25.683226,
27.914,24.280876,
25.003,22.257088,
22.092,22.739523,
19.182,27.040315,
16.271,55.01992,
13.361,203.5203,
10.450,522.53089,
7.539,1280.2031,
4.629,1928.393,
1.718,2293.1806,
-1.192,2104.2544,
-4.103,1296.2314,
-7.013,550.25135,
-9.924,1.125,
