,PL6E66~1,
Wavenumbers [1/cm],Intensity,
3014.167,3.375,
3011.256,-0.87494632,
3008.346,305.64228,
3005.435,349.18419,
3002.525,356.375,
2999.614,381.31659,
2996.704,386.0647,
2993.793,394.24194,
2990.882,397.55059,
2987.972,421.36491,
2985.061,441.54252,
2982.151,450.88087,
2979.240,481.42538,
2976.329,480.87773,
2973.419,503.63662,
2970.508,504.07498,
2967.598,522.04046,
2964.687,527.79212,
2961.777,516.00722,
2958.866,540.7019,
2955.955,553.16924,
2953.045,573.1446,
2950.134,599.22632,
2947.224,618.8305,
2944.313,630.77956,
2941.403,627.24407,
2938.492,651.82216,
2935.581,642.06338,
2932.671,653.41361,
2929.760,671.50196,
2926.850,665.89042,
2923.939,685.17406,
2921.028,696.08096,
2918.118,683.23773,
2915.207,700.07747,
2912.297,700.35807,
2909.386,679.55749,
2906.476,680.43679,
2903.565,708.55353,
2900.654,677.52871,
2897.744,694.22413,
2894.833,692.27172,
2891.923,695.0224,
2889.012,678.03974,
2886.102,669.27366,
2883.191,653.38066,
2880.280,583.45631,
2877.370,407.7184,
2874.459,331.62715,
2871.549,496.53376,
2868.638,664.93161,
2865.727,702.1942,
2862.817,717.01805,
2859.906,709.17272,
2856.996,724.83198,
2854.085,733.49475,
2851.175,753.51362,
2848.264,755.13516,
2845.353,765.46918,
2842.443,739.54854,
2839.532,760.82277,
2836.622,763.55469,
2833.711,749.69368,
2830.801,758.96471,
2827.890,773.41343,
2824.979,768.28893,
2822.069,784.12481,
2819.158,773.77663,
2816.248,802.08737,
2813.337,803.90062,
2810.427,800.50034,
2807.516,784.12344,
2804.605,815.17067,
2801.695,818.33553,
2798.784,799.14915,
2795.874,816.12703,
2792.963,783.58936,
2790.052,796.37264,
2787.142,789.44081,
2784.231,789.24612,
2781.321,784.56358,
2778.410,789.0349,
2775.500,795.20431,
2772.589,796.7588,
2769.678,810.83221,
2766.768,828.38857,
2763.857,799.11489,
2760.947,830.91598,
2758.036,834.83358,
2755.126,830.27671,
2752.215,841.03412,
2749.304,845.1196,
2746.394,840.58669,
2743.483,841.925,
2740.573,829.95459,
2737.662,845.8528,
2734.751,853.86065,
2731.841,855.75413,
2728.930,859.803,
2726.020,858.26794,
2723.109,863.14817,
2720.199,878.00318,
2717.288,875.90055,
2714.377,872.6668,
2711.467,893.60467,
2708.556,883.76868,
2705.646,892.36094,
2702.735,898.54768,
2699.825,898.50589,
2696.914,907.75638,
2694.003,915.30182,
2691.093,919.89246,
2688.182,913.19352,
2685.272,894.25124,
2682.361,907.92194,
2679.450,899.92649,
2676.540,921.47662,
2673.629,924.38398,
2670.719,936.43324,
2667.808,938.71545,
2664.898,921.27091,
2661.987,923.30816,
2659.076,940.81464,
2656.166,947.23203,
2653.255,962.34268,
2650.345,950.15903,
2647.434,1004.0032,
2644.524,986.67235,
2641.613,977.57487,
2638.702,982.26453,
2635.792,972.93731,
2632.881,1002.0888,
2629.971,976.13311,
2627.060,987.87531,
2624.149,995.02186,
2621.239,1004.872,
2618.328,998.29023,
2615.418,998.36591,
2612.507,1001.1339,
2609.597,1016.7223,
2606.686,1013.1802,
2603.775,1021.498,
2600.865,1037.4911,
2597.954,1044.9438,
2595.044,1032.08,
2592.133,1047.2224,
2589.223,1042.7602,
2586.312,1039.7669,
2583.401,1053.6195,
2580.491,1070.1682,
2577.580,1048.4179,
2574.670,1073.5448,
2571.759,1077.4306,
2568.848,1072.4965,
2565.938,1062.3273,
2563.027,1077.2295,
2560.117,1090.5526,
2557.206,1111.3602,
2554.296,1109.7411,
2551.385,1091.755,
2548.474,1105.8196,
2545.564,1117.1218,
2542.653,1109.4052,
2539.743,1130.9797,
2536.832,1118.5993,
2533.922,1142.17,
2531.011,1133.2247,
2528.100,1130.5805,
2525.190,1152.5791,
2522.279,1139.7184,
2519.369,1126.9787,
2516.458,1146.1654,
2513.548,1167.6567,
2510.637,1139.6209,
2507.726,1148.059,
2504.816,1162.8756,
2501.905,1139.5927,
2498.995,1170.5542,
2496.084,1167.2426,
2493.173,1160.0068,
2490.263,1176.5434,
2487.352,1198.7089,
2484.442,1206.0902,
2481.531,1202.742,
2478.621,1204.2139,
2475.710,1206.467,
2472.799,1217.8817,
2469.889,1211.0426,
2466.978,1208.2616,
2464.068,1217.9941,
2461.157,1224.4924,
2458.247,1235.5074,
2455.336,1234.418,
2452.425,1256.4458,
2449.515,1224.8282,
2446.604,1244.1377,
2443.694,1254.352,
2440.783,1285.2849,
2437.872,1270.7396,
2434.962,1281.163,
2432.051,1299.9556,
2429.141,1310.9692,
2426.230,1299.9617,
2423.320,1290.6173,
2420.409,1318.2916,
2417.498,1309.6222,
2414.588,1317.9947,
2411.677,1357.4068,
2408.767,1329.0984,
2405.856,1323.7821,
2402.946,1341.804,
2400.035,1357.4666,
2397.124,1325.0595,
2394.214,1327.9942,
2391.303,1329.419,
2388.393,1354.6006,
2385.482,1319.0934,
2382.571,1286.64,
2379.661,1325.6538,
2376.750,1359.6877,
2373.840,1381.1406,
2370.929,1386.3533,
2368.019,1414.1933,
2365.108,1431.608,
2362.197,1423.7914,
2359.287,1398.2235,
2356.376,1421.3239,
2353.466,1418.9349,
2350.555,1436.4853,
2347.645,1446.1909,
2344.734,1439.8589,
2341.823,1438.375,
2338.913,1439.1049,
2336.002,1474.5447,
2333.092,1483.9731,
2330.181,1478.6921,
2327.270,1514.5048,
2324.360,1507.2735,
2321.449,1530.4362,
2318.539,1520.2465,
2315.628,1511.5852,
2312.718,1496.2428,
2309.807,1510.282,
2306.896,1500.918,
2303.986,1523.0309,
2301.075,1530.375,
2298.165,1530.375,
2295.254,1533.3104,
2292.344,1538.2089,
2289.433,1564.6723,
2286.522,1557.4286,
2283.612,1580.0766,
2280.701,1575.5275,
2277.791,1555.6956,
2274.880,1570.4369,
2271.969,1589.412,
2269.059,1579.4922,
2266.148,1614.6638,
2263.238,1621.9773,
2260.327,1621.306,
2257.417,1625.3567,
2254.506,1635.7112,
2251.595,1656.4912,
2248.685,1669.5366,
2245.774,1675.3858,
2242.864,1660.5047,
2239.953,1661.9198,
2237.043,1670.1161,
2234.132,1677.6659,
2231.221,1676.3492,
2228.311,1685.3338,
2225.400,1721.8402,
2222.490,1715.815,
2219.579,1774.4778,
2216.669,1758.9871,
2213.758,1767.9894,
2210.847,1808.7503,
2207.937,1756.8181,
2205.026,1799.2627,
2202.116,1826.4419,
2199.205,1817.8498,
2196.294,1836.549,
2193.384,1871.111,
2190.473,1878.659,
2187.563,1886.6505,
2184.652,1948.044,
2181.742,2000.9692,
2178.831,2074.9276,
2175.920,2143.7484,
2173.010,2233.4039,
2170.099,2313.0347,
2167.189,2427.2504,
2164.278,2570.0916,
2161.368,2725.2287,
2158.457,2866.8498,
2155.546,3044.9011,
2152.636,3197.4758,
2149.725,3341.8984,
2146.815,3461.0047,
2143.904,3624.9028,
2140.993,3707.2743,
2138.083,3781.9068,
2135.172,3853.1483,
2132.262,3869.735,
2129.351,3830.9024,
2126.441,3721.4232,
2123.530,3656.5006,
2120.619,3474.3115,
2117.709,3311.2095,
2114.798,3091.0551,
2111.888,2891.4419,
2108.977,2695.9246,
2106.067,2568.6042,
2103.156,2455.752,
2100.245,2325.3198,
2097.335,2229.0661,
2094.424,2157.3649,
2091.514,2099.8506,
2088.603,2062.6976,
2085.692,2058.691,
2082.782,2036.4112,
2079.871,1989.123,
2076.961,2001.8897,
2074.050,1980.7083,
2071.140,1932.2368,
2068.229,1953.1914,
2065.318,1955.375,
2062.408,1940.1095,
2059.497,1929.1845,
2056.587,1901.8755,
2053.676,1903.2575,
2050.766,1898.0678,
2047.855,1867.4889,
2044.944,1877.6266,
2042.034,1916.716,
2039.123,1912.7353,
2036.213,1899.0127,
2033.302,1900.1138,
2030.391,1917.0869,
2027.481,1911.1677,
2024.570,1914.432,
2021.660,1946.4237,
2018.749,1928.6409,
2015.839,1933.3573,
2012.928,1917.1569,
2010.017,1904.4271,
2007.107,1897.0255,
2004.196,1896.9822,
2001.286,1899.5623,
1998.375,1892.8081,
1995.465,1858.9107,
1992.554,1859.1396,
1989.643,1871.9602,
1986.733,1893.1075,
1983.822,1889.0803,
1980.912,1884.0376,
1978.001,1836.6978,
1975.090,1810.3445,
1972.180,1840.7181,
1969.269,1875.6595,
1966.359,1880.2398,
1963.448,1830.3525,
1960.538,1853.9505,
1957.627,1857.1335,
1954.716,1828.2081,
1951.806,1841.4311,
1948.895,1826.9458,
1945.985,1847.6985,
1943.074,1827.4858,
1940.164,1822.3368,
1937.253,1825.7405,
1934.342,1786.2039,
1931.432,1780.8072,
1928.521,1797.2196,
1925.611,1784.518,
1922.700,1776.0007,
1919.790,1763.3173,
1916.879,1764.1658,
1913.968,1786.3479,
1911.058,1800.8164,
1908.147,1745.5415,
1905.237,1792.669,
1902.326,1761.6801,
1899.415,1784.2579,
1896.505,1708.1099,
1893.594,1708.8232,
1890.684,1749.7735,
1887.773,1759.6254,
1884.863,1755.0288,
1881.952,1797.7371,
1879.041,1794.7063,
1876.131,1807.1057,
1873.220,1753.8438,
1870.310,1794.5722,
1867.399,1778.6949,
1864.489,1813.973,
1861.578,1779.1882,
1858.667,1783.83,
1855.757,1819.3822,
1852.846,1809.1135,
1849.936,1807.2118,
1847.025,1825.7837,
1844.114,1850.6409,
1841.204,1869.6302,
1838.293,1885.3534,
1835.383,1859.5735,
1832.472,1857.6202,
1829.562,1887.3182,
1826.651,1879.3832,
1823.740,1884.2946,
1820.830,1893.7766,
1817.919,1895.375,
1815.009,1911.6434,
1812.098,1878.4695,
1809.188,1922.2121,
1806.277,1906.7955,
1803.366,1919.5913,
1800.456,1933.694,
1797.545,1955.5453,
1794.635,1950.6001,
1791.724,1972.375,
1788.813,1966.3673,
1785.903,1930.6503,
1782.992,1863.6715,
1780.082,1760.9727,
1777.171,1708.3771,
1774.261,1740.8305,
1771.350,1830.865,
1768.439,1956.1483,
1765.529,2007.3712,
1762.618,2018.6432,
1759.708,2044.6249,
1756.797,2039.8295,
1753.887,2044.8109,
1750.976,2050.8613,
1748.065,2066.4349,
1745.155,2072.7363,
1742.244,2083.6313,
1739.334,2104.4385,
1736.423,2083.8199,
1733.512,2114.5784,
1730.602,2136.3591,
1727.691,2160.6372,
1724.781,2159.5092,
1721.870,2182.3228,
1718.960,2170.2859,
1716.049,2194.9001,
1713.138,2243.1248,
1710.228,2243.4126,
1707.317,2268.0276,
1704.407,2240.8295,
1701.496,2277.4831,
1698.586,2287.8429,
1695.675,2312.7034,
1692.764,2303.0143,
1689.854,2304.2884,
1686.943,2295.6785,
1684.033,2408.494,
1681.122,2422.1881,
1678.211,2463.9753,
1675.301,2448.4243,
1672.390,2508.5395,
1669.480,2563.4873,
1666.569,2578.0225,
1663.659,2629.6653,
1660.748,2708.3584,
1657.837,2758.7905,
1654.927,2778.6636,
1652.016,2836.9432,
1649.106,3019.5426,
1646.195,2987.3341,
1643.285,3027.9245,
1640.374,3095.8175,
1637.463,3166.5636,
1634.553,3342.7247,
1631.642,3500.7431,
1628.732,3626.4771,
1625.821,3811.551,
1622.911,4078.8592,
1620.000,4362.7718,
1617.089,4596.6984,
1614.179,4902.6327,
1611.268,5252.214,
1608.358,5535.1241,
1605.447,5660.5759,
1602.536,5802.4986,
1599.626,5828.9338,
1596.715,5856.6954,
1593.805,5821.8131,
1590.894,5682.6325,
1587.984,5662.6428,
1585.073,5614.7293,
1582.162,5507.8584,
1579.252,5406.5449,
1576.341,5368.3484,
1573.431,5372.7731,
1570.520,5383.0188,
1567.610,5336.1978,
1564.699,5247.5971,
1561.788,5166.8544,
1558.878,5068.5883,
1555.967,4953.4346,
1553.057,4861.341,
1550.146,4793.0442,
1547.235,4702.2584,
1544.325,4607.1737,
1541.414,4516.4494,
1538.504,4439.5192,
1535.593,4370.9088,
1532.683,4275.7071,
1529.772,4196.7127,
1526.861,4148.4073,
1523.951,4131.8382,
1521.040,4164.7276,
1518.130,4119.9407,
1515.219,4062.5356,
1512.309,4038.6588,
1509.398,4006.3221,
1506.487,3908.5493,
1503.577,3819.9592,
1500.666,3846.1072,
1497.756,3793.3238,
1494.845,3756.0548,
1491.934,3748.0789,
1489.024,3657.6046,
1486.113,3594.106,
1483.203,3569.8353,
1480.292,3518.1613,
1477.382,3454.4141,
1474.471,3396.0996,
1471.560,3335.2067,
1468.650,3283.8946,
1465.739,3235.0695,
1462.829,3209.2132,
1459.918,3214.8723,
1457.008,3203.5747,
1454.097,3189.4587,
1451.186,3183.315,
1448.276,3170.4337,
1445.365,3181.8758,
1442.455,3187.2752,
1439.544,3180.4132,
1436.633,3190.7047,
1433.723,3163.6544,
1430.812,3101.8028,
1427.902,3181.7436,
1424.991,3155.2063,
1422.081,3160.7973,
1419.170,3245.1889,
1416.259,3218.6819,
1413.349,3218.4379,
1410.438,3208.779,
1407.528,3203.375,
1404.617,3166.3859,
1401.707,3128.7163,
1398.796,3083.445,
1395.885,3067.9382,
1392.975,3117.6673,
1390.064,3142.6661,
1387.154,3130.9077,
1384.243,3133.5137,
1381.332,3155.035,
1378.422,3173.6886,
1375.511,3276.7345,
1372.601,3436.8851,
1369.690,3461.5189,
1366.780,3555.2511,
1363.869,3650.5697,
1360.958,3658.2287,
1358.048,3786.6166,
1355.137,3862.9761,
1352.227,3905.8525,
1349.316,4005.1483,
1346.406,4062.5089,
1343.495,4121.7584,
1340.584,4239.8738,
1337.674,4327.9863,
1334.763,4392.5394,
1331.853,4423.138,
1328.942,4460.843,
1326.032,4536.334,
1323.121,4703.5317,
1320.210,4801.6576,
1317.300,4860.3792,
1314.389,4983.5297,
1311.479,5104.336,
1308.568,5190.3026,
1305.657,5332.476,
1302.747,5493.0422,
1299.836,5616.4195,
1296.926,5808.058,
1294.015,5930.328,
1291.105,6091.2309,
1288.194,6298.4821,
1285.283,6531.5358,
1282.373,6673.0857,
1279.462,6773.315,
1276.552,6911.1785,
1273.641,7023.3836,
1270.731,7041.9631,
1267.820,7052.5155,
1264.909,7076.9784,
1261.999,7003.8383,
1259.088,7071.3353,
1256.178,6942.6243,
1253.267,6835.2163,
1250.356,6591.9765,
1247.446,6336.4127,
1244.535,6093.1031,
1241.625,5846.9901,
1238.714,5631.3958,
1235.804,5456.6617,
1232.893,5269.0206,
1229.982,5173.2285,
1227.072,5109.8567,
1224.161,5000.312,
1221.251,4918.5807,
1218.340,4818.9898,
1215.430,4731.2311,
1212.519,4680.7922,
1209.608,4656.2244,
1206.698,4644.9496,
1203.787,4650.5458,
1200.877,4628.4983,
1197.966,4695.0361,
1195.055,4860.4922,
1192.145,4937.9637,
1189.234,5089.9726,
1186.324,5232.6544,
1183.413,5285.9588,
1180.503,5266.5475,
1177.592,5231.4758,
1174.681,5195.6182,
1171.771,5128.272,
1168.860,5123.8065,
1165.950,5166.1083,
1163.039,5142.8517,
1160.129,5121.8866,
1157.218,5096.7034,
1154.307,5053.5976,
1151.397,5017.593,
1148.486,5003.9859,
1145.576,4939.1052,
1142.665,4932.8898,
1139.754,4924.2387,
1136.844,4869.152,
1133.933,4817.0497,
1131.023,4768.5213,
1128.112,4728.4477,
1125.202,4705.6117,
1122.291,4689.2632,
1119.380,4723.349,
1116.470,4720.7014,
1113.559,4754.398,
1110.649,4730.323,
1107.738,4699.5154,
1104.828,4712.0927,
1101.917,4728.5104,
1099.006,4683.6432,
1096.096,4661.9125,
1093.185,4670.6926,
1090.275,4718.3127,
1087.364,4747.2142,
1084.453,4807.6842,
1081.543,4884.7473,
1078.632,4915.0785,
1075.722,4878.9989,
1072.811,4874.6447,
1069.901,4836.2212,
1066.990,4857.6249,
1064.079,4833.4324,
1061.169,4827.6595,
1058.258,4823.7879,
1055.348,4818.1938,
1052.437,4841.1789,
1049.527,4851.147,
1046.616,4871.1301,
1043.705,4958.1592,
1040.795,4946.3417,
1037.884,4969.3742,
1034.974,5003.4369,
1032.063,4997.6747,
1029.153,5030.5947,
1026.242,5057.4084,
1023.331,5067.5411,
1020.421,5099.3504,
1017.510,5134.2258,
1014.600,5175.0591,
1011.689,5237.0223,
1008.778,5312.4013,
1005.868,5319.2476,
1002.957,5416.4676,
1000.047,5657.0551,
997.136,5895.2543,
994.226,5995.7905,
991.315,5978.4592,
988.404,5968.4815,
985.494,6009.0132,
982.583,5948.1977,
979.673,5967.9092,
976.762,5936.6907,
973.852,5950.692,
970.941,5996.78,
968.030,5975.0224,
965.120,5967.6686,
962.209,6037.577,
959.299,6024.5863,
956.388,6061.412,
953.477,6069.6031,
950.567,6029.4207,
947.656,6036.8314,
944.746,6070.8137,
941.835,6086.1418,
938.925,6110.4326,
936.014,6095.5779,
933.103,6066.491,
930.193,6035.2044,
927.282,5935.9461,
924.372,5891.1289,
921.461,5760.9234,
918.551,5693.1377,
915.640,5626.6566,
912.729,5545.4205,
909.819,5502.0372,
906.908,5461.6008,
903.998,5445.0584,
901.087,5424.8258,
898.176,5476.456,
895.266,5574.7975,
892.355,5648.9715,
889.445,5684.2207,
886.534,5731.1278,
883.624,5794.2016,
880.713,5828.0303,
877.802,5808.2785,
874.892,5705.3464,
871.981,5470.9029,
869.071,5323.8702,
866.160,5376.3404,
863.250,5559.2002,
860.339,5705.1882,
857.428,5717.7661,
854.518,5677.4272,
851.607,5540.9679,
848.697,5395.6314,
845.786,5312.3508,
842.875,5373.7621,
839.965,5550.0259,
837.054,5612.5983,
834.144,5632.4883,
831.233,5612.3767,
828.323,5580.5921,
825.412,5553.9357,
822.501,5520.7149,
819.591,5411.6302,
816.680,5322.6377,
813.770,5241.8573,
810.859,5191.0328,
807.949,5158.3188,
805.038,5117.6914,
802.127,5087.2356,
799.217,5050.8324,
796.306,5021.7803,
793.396,5024.337,
790.485,5042.4258,
787.574,5018.0564,
784.664,5062.3425,
781.753,5144.8542,
778.843,5219.6014,
775.932,5262.77,
773.022,5265.6835,
770.111,5235.4331,
767.200,5164.0956,
764.290,5124.4608,
761.379,5097.5896,
758.469,5062.3541,
755.558,5009.6668,
752.648,5019.442,
749.737,4993.9579,
746.826,4987.3008,
743.916,4965.9395,
741.005,4873.3441,
738.095,4749.127,
735.184,4666.4443,
732.274,4673.5583,
729.363,4753.8009,
726.452,4864.9695,
723.542,4940.2431,
720.631,5009.3608,
717.721,5047.1332,
714.810,5087.0226,
711.899,5127.3651,
708.989,5114.4543,
706.078,5113.5737,
703.168,5081.1923,
700.257,5050.0607,
697.347,5035.5924,
694.436,5036.6805,
691.525,5047.9338,
688.615,5029.6209,
685.704,5033.7794,
682.794,5061.46,
679.883,5080.9425,
676.973,5071.326,
674.062,5133.1832,
671.151,5132.5553,
668.241,5071.0801,
665.330,5024.2027,
662.420,4999.442,
659.509,5015.9627,
656.598,5042.223,
653.688,5088.6702,
650.777,5184.3741,
647.867,5213.8382,
644.956,5146.077,
642.046,5062.6466,
639.135,5000.3618,
636.224,4966.753,
633.314,5042.1771,
630.403,5032.9969,
627.493,5040.2602,
624.582,5072.9573,
621.672,5026.2296,
618.761,5006.1365,
615.850,5016.3536,
612.940,5058.747,
610.029,5115.375,
607.119,5115.375,
604.208,5057.1539,
601.297,5038.3602,
598.387,5046.2413,
595.476,5055.3805,
592.566,5076.6314,
589.655,5038.2621,
586.745,5000.6201,
583.834,4976.3246,
580.923,4958.2613,
578.013,4939.4277,
575.102,4941.2581,
572.192,4967.4548,
569.281,5005.5156,
566.371,5006.2982,
563.460,5043.7648,
560.549,5054.5022,
557.639,5058.2376,
554.728,5087.45,
551.818,5167.8225,
548.907,5168.3114,
545.996,5169.4275,
543.086,5188.8783,
540.175,5191.2142,
537.265,5201.5149,
534.354,5201.3615,
531.444,5210.7506,
528.533,5244.6024,
525.622,5233.7392,
522.712,5328.4555,
519.801,5408.5596,
516.891,5449.5214,
513.980,5514.5623,
511.070,5551.3663,
508.159,5617.3849,
505.248,5715.9337,
502.338,5839.2953,
499.427,5904.901,
496.517,5963.6679,
493.606,6029.3607,
490.695,6106.1106,
487.785,6176.1615,
484.874,6186.7288,
481.964,6156.475,
479.053,6110.6978,
476.143,6095.3386,
473.232,6044.7361,
470.321,6070.14,
467.411,6119.4011,
464.500,6125.0841,
461.590,6113.598,
458.679,6192.3689,
455.769,6278.909,
452.858,6324.1587,
449.947,6350.8963,
447.037,6415.8375,
444.126,6479.1447,
441.216,6529.7092,
438.305,6577.7109,
435.395,6586.3419,
432.484,6621.1319,
429.573,6649.5598,
426.663,6568.9849,
423.752,6358.7286,
420.842,6058.9294,
417.931,5839.0489,
415.020,5950.5276,
412.110,6512.5958,
409.199,6816.6414,
406.289,6920.375,
403.378,6920.0958,
400.468,6837.6924,
397.557,6865.8749,
394.646,6965.3185,
391.736,7095.9545,
388.825,7114.056,
385.915,7115.1175,
383.004,7123.9389,
380.094,7158.8684,
377.183,7227.3438,
374.272,7320.7359,
371.362,7369.2473,
368.451,7339.0679,
365.541,7399.8613,
362.630,7463.3517,
359.719,7476.0339,
356.809,7419.537,
353.898,7521.3736,
350.988,7552.0874,
348.077,7544.5011,
345.167,7521.6616,
342.256,7547.0619,
339.345,7518.2376,
336.435,7492.2044,
333.524,7508.1031,
330.614,7531.203,
327.703,7590.2289,
324.793,7629.8367,
321.882,7602.7085,
318.971,7740.2454,
316.061,7779.0737,
313.150,7803.4011,
310.240,7909.5237,
307.329,7976.263,
304.418,7982.225,
301.508,7965.8735,
298.597,7990.3072,
295.687,7972.735,
292.776,7994.6252,
289.866,8044.6026,
286.955,8074.1516,
284.044,8183.3699,
281.134,8258.8162,
278.223,8284.4528,
275.313,8291.8214,
272.402,8360.1789,
269.492,8381.1257,
266.581,8322.1648,
263.670,8319.2241,
260.760,8406.1354,
257.849,8538.9836,
254.939,8689.4295,
252.028,8743.4918,
249.117,8724.0878,
246.207,8696.6949,
243.296,8771.3627,
240.386,8797.0058,
237.475,8812.1378,
234.565,8815.7383,
231.654,8779.9495,
228.743,8777.5533,
225.833,8773.1428,
222.922,8754.6808,
220.012,8761.2378,
217.101,8812.9373,
214.191,8879.6742,
211.280,8930.5966,
208.369,8910.1537,
205.459,8878.8117,
202.548,8845.4892,
199.638,8822.9941,
196.727,8853.5242,
193.816,8881.4822,
190.906,8886.5528,
187.995,8891.6209,
185.085,8917.0178,
182.174,8953.1692,
179.264,8989.3075,
176.353,9056.8121,
173.442,9094.1878,
170.532,9089.8984,
167.621,9025.7315,
164.711,8829.682,
161.800,8574.2472,
158.890,8298.5915,
155.979,7841.6817,
153.068,7285.4299,
150.158,6611.3471,
147.247,5706.0093,
144.337,4733.7175,
141.426,3768.0838,
138.516,2844.011,
135.605,2039.7716,
132.694,1384.342,
129.784,884.85702,
126.873,610.24716,
123.963,424.62701,
121.052,288.69753,
118.141,193.74857,
115.231,160.68876,
112.320,133.81865,
109.410,112.23883,
106.499,95.859259,
103.589,82.290419,
100.678,73.560135,
97.767,71.427322,
94.857,58.208208,
91.946,57.615441,
89.036,63.794429,
86.125,53.865555,
83.215,45.003956,
80.304,40.572163,
77.393,44.113013,
74.483,42.409595,
71.572,40.287944,
68.662,38.375,
65.751,38.375,
62.840,33.076278,
59.930,28.686003,
57.019,33.621577,
54.109,28.403392,
51.198,25.279828,
48.288,27.3297,
45.377,21.702676,
42.466,20.611658,
39.556,22.375,
36.645,22.375,
33.735,20.817255,
30.824,19.154113,
27.914,18.452938,
25.003,20.86555,
22.092,20.437573,
19.182,16.21482,
16.271,11.318389,
13.361,-30.663508,
10.450,-136.58546,
7.539,-432.67117,
4.629,-758.49364,
1.718,-949.28922,
-1.192,-811.2546,
-4.103,-552.98788,
-7.013,-277.23214,
-9.924,-1.625,
