,PLD8DD~1,
Wavenumbers [1/cm],Intensity,
3014.167,1.75,
3011.256,-3.1998819,
3008.346,383.62733,
3005.435,442.55919,
3002.525,462.43009,
2999.614,488.64225,
2996.704,495.07681,
2993.793,480.83698,
2990.882,517.65835,
2987.972,520.81054,
2985.061,540.28696,
2982.151,560.31808,
2979.240,588.58461,
2976.329,598.28003,
2973.419,613.01162,
2970.508,633.79987,
2967.598,649.79779,
2964.687,658.86889,
2961.777,660.50206,
2958.866,680.07541,
2955.955,706.68582,
2953.045,716.5196,
2950.134,740.78208,
2947.224,755.74641,
2944.313,780.7614,
2941.403,791.47673,
2938.492,800.72831,
2935.581,797.08864,
2932.671,808.71139,
2929.760,814.68077,
2926.850,814.69774,
2923.939,838.50699,
2921.028,844.12642,
2918.118,868.48929,
2915.207,870.40199,
2912.297,844.88117,
2909.386,866.16605,
2906.476,887.26122,
2903.565,865.84629,
2900.654,866.40926,
2897.744,878.43569,
2894.833,848.80164,
2891.923,878.24052,
2889.012,792.83093,
2886.102,804.97837,
2883.191,779.77643,
2880.280,633.63511,
2877.370,392.52364,
2874.459,275.29152,
2871.549,508.05421,
2868.638,798.58695,
2865.727,813.99226,
2862.817,874.73793,
2859.906,860.85255,
2856.996,916.14358,
2854.085,908.94112,
2851.175,923.39159,
2848.264,921.88733,
2845.353,912.0088,
2842.443,933.73259,
2839.532,934.77994,
2836.622,954.53646,
2833.711,932.4988,
2830.801,925.04485,
2827.890,945.8147,
2824.979,960.60197,
2822.069,969.6704,
2819.158,965.03033,
2816.248,985.18631,
2813.337,977.96705,
2810.427,1011.1026,
2807.516,998.54141,
2804.605,993.34135,
2801.695,994.57895,
2798.784,969.89377,
2795.874,998.31992,
2792.963,977.24946,
2790.052,982.74614,
2787.142,966.32892,
2784.231,953.1056,
2781.321,970.94434,
2778.410,986.67513,
2775.500,986.04759,
2772.589,968.67354,
2769.678,994.31646,
2766.768,1018.185,
2763.857,1003.8059,
2760.947,1034.2721,
2758.036,1017.4187,
2755.126,1011.406,
2752.215,1044.0046,
2749.304,1018.9641,
2746.394,1032.7863,
2743.483,1031.1,
2740.573,1027.2168,
2737.662,1043.7707,
2734.751,1047.7016,
2731.841,1027.2628,
2728.930,1051.038,
2726.020,1077.1991,
2723.109,1060.3586,
2720.199,1078.3001,
2717.288,1077.7135,
2714.377,1079.9126,
2711.467,1096.1599,
2708.556,1114.0793,
2705.646,1093.0316,
2702.735,1097.2629,
2699.825,1112.6846,
2696.914,1106.845,
2694.003,1126.1175,
2691.093,1135.2133,
2688.182,1116.6233,
2685.272,1126.3161,
2682.361,1117.6321,
2679.450,1107.0999,
2676.540,1129.0955,
2673.629,1131.481,
2670.719,1127.1585,
2667.808,1138.8473,
2664.898,1134.6848,
2661.987,1143.0832,
2659.076,1131.7672,
2656.166,1158.2175,
2653.255,1153.8248,
2650.345,1172.9188,
2647.434,1205.9495,
2644.524,1194.0858,
2641.613,1207.8072,
2638.702,1221.5448,
2635.792,1202.6892,
2632.881,1203.0295,
2629.971,1212.75,
2627.060,1176.41,
2624.149,1230.2094,
2621.239,1219.4778,
2618.328,1220.5805,
2615.418,1225.0455,
2612.507,1257.8843,
2609.597,1255.0354,
2606.686,1249.4247,
2603.775,1256.2659,
2600.865,1237.3984,
2597.954,1261.0375,
2595.044,1268.0715,
2592.133,1283.5909,
2589.223,1277.4847,
2586.312,1310.6545,
2583.401,1324.75,
2580.491,1306.601,
2577.580,1293.7962,
2574.670,1325.9011,
2571.759,1337.851,
2568.848,1341.2196,
2565.938,1310.3688,
2563.027,1334.8705,
2560.117,1321.5631,
2557.206,1328.2703,
2554.296,1359.5189,
2551.385,1343.932,
2548.474,1351.8244,
2545.564,1360.655,
2542.653,1377.9077,
2539.743,1380.2685,
2536.832,1386.3014,
2533.922,1367.3019,
2531.011,1400.9251,
2528.100,1384.3562,
2525.190,1394.6766,
2522.279,1385.5004,
2519.369,1389.279,
2516.458,1381.6523,
2513.548,1371.6685,
2510.637,1409.4263,
2507.726,1419.1255,
2504.816,1426.7511,
2501.905,1422.3878,
2498.995,1433.5708,
2496.084,1432.5897,
2493.173,1435.6447,
2490.263,1437.1432,
2487.352,1485.0004,
2484.442,1483.3453,
2481.531,1462.117,
2478.621,1475.1055,
2475.710,1505.3666,
2472.799,1456.9832,
2469.889,1467.052,
2466.978,1486.7396,
2464.068,1493.6654,
2461.157,1502.2851,
2458.247,1488.603,
2455.336,1500.3019,
2452.425,1531.6038,
2449.515,1502.8727,
2446.604,1517.8513,
2443.694,1554.2155,
2440.783,1566.6081,
2437.872,1557.3124,
2434.962,1549.6901,
2432.051,1572.4539,
2429.141,1566.9561,
2426.230,1593.4031,
2423.320,1596.4358,
2420.409,1596.641,
2417.498,1606.9298,
2414.588,1607.6626,
2411.677,1606.1485,
2408.767,1642.9911,
2405.856,1638.4048,
2402.946,1629.5891,
2400.035,1638.4378,
2397.124,1649.381,
2394.214,1630.5356,
2391.303,1658.54,
2388.393,1635.9034,
2385.482,1609.455,
2382.571,1573.9914,
2379.661,1571.9123,
2376.750,1651.3212,
2373.840,1689.8687,
2370.929,1702.6525,
2368.019,1713.0265,
2365.108,1731.4935,
2362.197,1744.7226,
2359.287,1709.6319,
2356.376,1701.7465,
2353.466,1735.4642,
2350.555,1712.4652,
2347.645,1748.2082,
2344.734,1735.8052,
2341.823,1783.8048,
2338.913,1781.1052,
2336.002,1800.1781,
2333.092,1814.5434,
2330.181,1808.0313,
2327.270,1810.695,
2324.360,1840.9599,
2321.449,1844.2262,
2318.539,1837.3035,
2315.628,1823.0114,
2312.718,1824.5826,
2309.807,1841.2035,
2306.896,1840.5528,
2303.986,1873.8021,
2301.075,1860.5161,
2298.165,1874.4718,
2295.254,1863.1809,
2292.344,1896.2854,
2289.433,1869.8118,
2286.522,1890.8839,
2283.612,1933.0128,
2280.701,1903.8801,
2277.791,1913.7519,
2274.880,1946.9518,
2271.969,1969.1451,
2269.059,1951.8672,
2266.148,1987.7684,
2263.238,1974.6612,
2260.327,1987.6467,
2257.417,2001.1733,
2254.506,2011.0093,
2251.595,2019.3209,
2248.685,2019.75,
2245.774,2024.2554,
2242.864,2039.8423,
2239.953,2029.9361,
2237.043,2039.5811,
2234.132,2044.3578,
2231.221,2045.4864,
2228.311,2086.3724,
2225.400,2104.3841,
2222.490,2098.8055,
2219.579,2142.0585,
2216.669,2141.8645,
2213.758,2153.6259,
2210.847,2177.5863,
2207.937,2172.9943,
2205.026,2207.5267,
2202.116,2234.8657,
2199.205,2242.0114,
2196.294,2263.75,
2193.384,2280.802,
2190.473,2313.4894,
2187.563,2333.0883,
2184.652,2407.1177,
2181.742,2447.7065,
2178.831,2529.7191,
2175.920,2625.9686,
2173.010,2708.4042,
2170.099,2838.8041,
2167.189,2969.0057,
2164.278,3168.2817,
2161.368,3364.7442,
2158.457,3559.732,
2155.546,3781.1531,
2152.636,3995.2975,
2149.725,4172.5821,
2146.815,4306.0127,
2143.904,4555.1812,
2140.993,4652.8661,
2138.083,4739.2454,
2135.172,4810.8428,
2132.262,4844.7289,
2129.351,4760.2323,
2126.441,4658.0022,
2123.530,4496.9766,
2120.619,4309.9256,
2117.709,4068.2315,
2114.798,3841.072,
2111.888,3558.3811,
2108.977,3324.3923,
2106.067,3183.0868,
2103.156,3009.8175,
2100.245,2885.676,
2097.335,2754.8652,
2094.424,2650.2186,
2091.514,2598.1584,
2088.603,2551.4597,
2085.692,2507.1963,
2082.782,2490.9909,
2079.871,2440.9974,
2076.961,2409.1707,
2074.050,2470.3258,
2071.140,2414.5438,
2068.229,2381.2747,
2065.318,2402.157,
2062.408,2376.5299,
2059.497,2379.3929,
2056.587,2370.3434,
2053.676,2353.4004,
2050.766,2384.0557,
2047.855,2310.2374,
2044.944,2298.4695,
2042.034,2348.3109,
2039.123,2374.8072,
2036.213,2350.8456,
2033.302,2361.8151,
2030.391,2344.5642,
2027.481,2339.189,
2024.570,2360.2924,
2021.660,2386.3309,
2018.749,2322.7133,
2015.839,2390.8898,
2012.928,2346.75,
2010.017,2354.8662,
2007.107,2372.5874,
2004.196,2380.9167,
2001.286,2376.8737,
1998.375,2344.0029,
1995.465,2315.4446,
1992.554,2309.8735,
1989.643,2322.3007,
1986.733,2335.3219,
1983.822,2319.8504,
1980.912,2281.3151,
1978.001,2308.1062,
1975.090,2300.1332,
1972.180,2296.1303,
1969.269,2319.2817,
1966.359,2307.4792,
1963.448,2283.0974,
1960.538,2279.3155,
1957.627,2287.6664,
1954.716,2284.8649,
1951.806,2298.7196,
1948.895,2249.677,
1945.985,2295.0229,
1943.074,2245.248,
1940.164,2281.5098,
1937.253,2272.2287,
1934.342,2224.0832,
1931.432,2238.8099,
1928.521,2229.332,
1925.611,2201.38,
1922.700,2232.5732,
1919.790,2228.8311,
1916.879,2185.819,
1913.968,2275.6356,
1911.058,2251.0413,
1908.147,2219.5252,
1905.237,2249.8528,
1902.326,2191.3767,
1899.415,2161.7866,
1896.505,2111.6174,
1893.594,2122.1952,
1890.684,2192.9,
1887.773,2220.9574,
1884.863,2238.9163,
1881.952,2289.8347,
1879.041,2271.2209,
1876.131,2246.9056,
1873.220,2202.7808,
1870.310,2218.0997,
1867.399,2244.3502,
1864.489,2312.6345,
1861.578,2236.9642,
1858.667,2251.0973,
1855.757,2267.54,
1852.846,2286.0372,
1849.936,2305.3316,
1847.025,2306.806,
1844.114,2326.59,
1841.204,2350.2815,
1838.293,2335.8016,
1835.383,2304.2035,
1832.472,2294.2613,
1829.562,2344.6034,
1826.651,2322.0478,
1823.740,2336.0604,
1820.830,2362.3249,
1817.919,2333.9893,
1815.009,2390.9675,
1812.098,2371.2303,
1809.188,2414.6491,
1806.277,2348.3214,
1803.366,2410.9663,
1800.456,2423.3103,
1797.545,2413.8139,
1794.635,2397.33,
1791.724,2421.3519,
1788.813,2449.3431,
1785.903,2420.9497,
1782.992,2360.6575,
1780.082,2213.6695,
1777.171,2092.7387,
1774.261,2089.4408,
1771.350,2248.564,
1768.439,2451.7375,
1765.529,2508.1082,
1762.618,2498.3894,
1759.708,2507.3803,
1756.797,2528.4015,
1753.887,2569.2121,
1750.976,2569.8534,
1748.065,2584.7976,
1745.155,2597.3887,
1742.244,2543.4548,
1739.334,2589.6982,
1736.423,2629.4023,
1733.512,2655.0346,
1730.602,2644.3016,
1727.691,2667.6888,
1724.781,2719.2251,
1721.870,2732.3595,
1718.960,2714.6609,
1716.049,2745.148,
1713.138,2823.5696,
1710.228,2758.2936,
1707.317,2776.8254,
1704.407,2757.3917,
1701.496,2782.0964,
1698.586,2871.6045,
1695.675,2884.3643,
1692.764,2913.1517,
1689.854,2925.2736,
1686.943,2900.6269,
1684.033,3012.869,
1681.122,3044.2572,
1678.211,3083.3788,
1675.301,3090.7284,
1672.390,3119.07,
1669.480,3226.6725,
1666.569,3340.2929,
1663.659,3305.8279,
1660.748,3373.5459,
1657.837,3515.422,
1654.927,3503.0461,
1652.016,3601.1556,
1649.106,3698.4355,
1646.195,3727.4044,
1643.285,3797.6667,
1640.374,3924.0253,
1637.463,3987.407,
1634.553,4189.6612,
1631.642,4385.9759,
1628.732,4589.8107,
1625.821,4767.9888,
1622.911,5130.6932,
1620.000,5341.0917,
1617.089,5799.4962,
1614.179,6159.5694,
1611.268,6508.6634,
1608.358,6876.3318,
1605.447,7121.9233,
1602.536,7222.4155,
1599.626,7351.1011,
1596.715,7377.1792,
1593.805,7221.3476,
1590.894,7134.9384,
1587.984,7100.6333,
1585.073,6978.4865,
1582.162,6908.4917,
1579.252,6812.8284,
1576.341,6769.7181,
1573.431,6779.4135,
1570.520,6736.3586,
1567.610,6667.357,
1564.699,6576.9721,
1561.788,6477.9197,
1558.878,6386.9841,
1555.967,6299.2902,
1553.057,6148.8202,
1550.146,6019.9101,
1547.235,5905.5979,
1544.325,5776.9687,
1541.414,5661.5039,
1538.504,5595.7945,
1535.593,5533.98,
1532.683,5410.8687,
1529.772,5308.0877,
1526.861,5283.1174,
1523.951,5280.7135,
1521.040,5281.5006,
1518.130,5238.823,
1515.219,5187.3897,
1512.309,5159.0922,
1509.398,5041.5276,
1506.487,5012.9084,
1503.577,4937.7787,
1500.666,4930.8786,
1497.756,4823.0289,
1494.845,4750.8684,
1491.934,4681.7469,
1489.024,4680.7844,
1486.113,4642.7342,
1483.203,4505.6367,
1480.292,4431.8997,
1477.382,4396.6943,
1474.471,4311.71,
1471.560,4280.4933,
1468.650,4171.8426,
1465.739,4129.7954,
1462.829,4110.4741,
1459.918,4069.3354,
1457.008,4044.1807,
1454.097,4037.4392,
1451.186,4065.5237,
1448.276,4110.2259,
1445.365,4109.2137,
1442.455,4116.5093,
1439.544,4130.3993,
1436.633,4034.5355,
1433.723,4002.8535,
1430.812,4048.5387,
1427.902,3997.8246,
1424.991,4085.0187,
1422.081,4014.3518,
1419.170,4095.0201,
1416.259,4068.2468,
1413.349,4091.2254,
1410.438,4119.9443,
1407.528,4081.4006,
1404.617,4043.4203,
1401.707,3992.8847,
1398.796,3990.208,
1395.885,4030.8169,
1392.975,4015.3326,
1390.064,3975.8638,
1387.154,3960.5817,
1384.243,3972.615,
1381.332,4043.5487,
1378.422,4009.8652,
1375.511,4167.2444,
1372.601,4379.868,
1369.690,4402.8933,
1366.780,4532.0597,
1363.869,4594.0826,
1360.958,4689.9179,
1358.048,4806.7274,
1355.137,4876.726,
1352.227,4934.5542,
1349.316,5068.07,
1346.406,5210.4556,
1343.495,5247.9191,
1340.584,5342.3911,
1337.674,5452.3196,
1334.763,5430.7718,
1331.853,5615.2908,
1328.942,5624.5289,
1326.032,5690.8153,
1323.121,5813.9308,
1320.210,5958.9632,
1317.300,6032.8179,
1314.389,6178.3081,
1311.479,6346.8759,
1308.568,6486.7231,
1305.657,6672.6793,
1302.747,6792.1931,
1299.836,6906.9173,
1296.926,7102.3813,
1294.015,7288.0846,
1291.105,7648.8473,
1288.194,7818.1589,
1285.283,8100.0671,
1282.373,8247.8436,
1279.462,8393.2379,
1276.552,8565.4747,
1273.641,8704.3765,
1270.731,8772.8724,
1267.820,8731.0107,
1264.909,8709.9801,
1261.999,8661.8152,
1259.088,8691.0031,
1256.178,8555.717,
1253.267,8388.5173,
1250.356,8143.6056,
1247.446,7854.13,
1244.535,7510.6166,
1241.625,7182.2726,
1238.714,6926.2391,
1235.804,6687.3912,
1232.893,6472.2708,
1229.982,6375.1129,
1227.072,6297.2561,
1224.161,6136.2568,
1221.251,6016.6644,
1218.340,5922.2644,
1215.430,5809.0234,
1212.519,5751.5414,
1209.608,5729.6281,
1206.698,5689.5589,
1203.787,5723.7148,
1200.877,5679.4863,
1197.966,5755.9148,
1195.055,5932.1062,
1192.145,6072.9488,
1189.234,6257.6747,
1186.324,6369.3894,
1183.413,6434.613,
1180.503,6480.0402,
1177.592,6468.1034,
1174.681,6443.1199,
1171.771,6375.6991,
1168.860,6330.1516,
1165.950,6269.3097,
1163.039,6252.9564,
1160.129,6274.7543,
1157.218,6294.1152,
1154.307,6243.9513,
1151.397,6147.0151,
1148.486,6122.6577,
1145.576,6074.3215,
1142.665,6018.383,
1139.754,5971.4413,
1136.844,5935.8388,
1133.933,5894.8382,
1131.023,5853.4499,
1128.112,5821.8227,
1125.202,5800.1945,
1122.291,5780.7446,
1119.380,5767.0791,
1116.470,5800.6152,
1113.559,5779.2328,
1110.649,5740.3174,
1107.738,5726.9649,
1104.828,5679.8181,
1101.917,5622.7683,
1099.006,5645.5131,
1096.096,5612.1791,
1093.185,5700.8573,
1090.275,5752.2599,
1087.364,5762.75,
1084.453,5797.6228,
1081.543,5879.0894,
1078.632,5945.9295,
1075.722,5948.5888,
1072.811,5985.6331,
1069.901,5969.9144,
1066.990,5914.5918,
1064.079,5858.8776,
1061.169,5831.5701,
1058.258,5829.9849,
1055.348,5835.1621,
1052.437,5837.8497,
1049.527,5862.5766,
1046.616,5961.6231,
1043.705,5985.0822,
1040.795,5982.365,
1037.884,5973.6926,
1034.974,6010.0889,
1032.063,6076.8886,
1029.153,6069.5157,
1026.242,6084.2199,
1023.331,6099.749,
1020.421,6154.3355,
1017.510,6195.2391,
1014.600,6259.2328,
1011.689,6342.7139,
1008.778,6383.7763,
1005.868,6391.9894,
1002.957,6641.4922,
1000.047,6854.4701,
997.136,7117.6788,
994.226,7314.7491,
991.315,7339.255,
988.404,7224.9133,
985.494,7193.254,
982.583,7126.4426,
979.673,7188.4514,
976.762,7226.492,
973.852,7276.741,
970.941,7298.9264,
968.030,7230.5593,
965.120,7257.7822,
962.209,7265.4551,
959.299,7310.6614,
956.388,7340.5092,
953.477,7326.7325,
950.567,7306.0369,
947.656,7343.0896,
944.746,7360.9303,
941.835,7425.7253,
938.925,7380.8674,
936.014,7367.4539,
933.103,7361.7989,
930.193,7289.1872,
927.282,7165.5585,
924.372,7143.5727,
921.461,7007.4616,
918.551,6886.5524,
915.640,6787.0062,
912.729,6699.5979,
909.819,6629.0794,
906.908,6593.6975,
903.998,6548.8003,
901.087,6583.5784,
898.176,6656.5151,
895.266,6730.9201,
892.355,6776.8235,
889.445,6755.8418,
886.534,6885.1551,
883.624,6976.0147,
880.713,7054.1924,
877.802,7030.3138,
874.892,6850.6406,
871.981,6618.8377,
869.071,6410.8199,
866.160,6478.2439,
863.250,6707.1726,
860.339,6862.7267,
857.428,6832.8888,
854.518,6781.3538,
851.607,6733.0938,
848.697,6488.1409,
845.786,6391.1293,
842.875,6485.6903,
839.965,6659.9155,
837.054,6734.2338,
834.144,6777.3289,
831.233,6780.4171,
828.323,6724.3362,
825.412,6662.6668,
822.501,6633.7497,
819.591,6556.0681,
816.680,6447.1793,
813.770,6304.2205,
810.859,6201.3582,
807.949,6154.9622,
805.038,6136.6637,
802.127,6111.1468,
799.217,6116.9493,
796.306,6087.966,
793.396,6060.2461,
790.485,6052.223,
787.574,6046.6422,
784.664,6149.1562,
781.753,6201.9702,
778.843,6266.7781,
775.932,6323.54,
773.022,6334.4389,
770.111,6306.6412,
767.200,6251.4581,
764.290,6220.3031,
761.379,6204.2359,
758.469,6171.2658,
755.558,6080.0143,
752.648,6122.3737,
749.737,6077.2213,
746.826,6037.5607,
743.916,5995.1522,
741.005,5896.2823,
738.095,5697.3725,
735.184,5584.3675,
732.274,5581.8815,
729.363,5706.567,
726.452,5904.2748,
723.542,5962.5511,
720.631,6055.2011,
717.721,6096.4983,
714.810,6139.8691,
711.899,6189.9876,
708.989,6173.8491,
706.078,6165.737,
703.168,6137.6395,
700.257,6093.1077,
697.347,6056.7932,
694.436,6067.379,
691.525,6053.7143,
688.615,6046.9765,
685.704,6052.0888,
682.794,6081.4094,
679.883,6147.0476,
676.973,6175.8969,
674.062,6192.5974,
671.151,6200.9417,
668.241,6178.0192,
665.330,6093.3298,
662.420,6042.2109,
659.509,6076.1952,
656.598,6105.212,
653.688,6167.2606,
650.777,6358.8859,
647.867,6333.4034,
644.956,6260.8818,
642.046,6154.6581,
639.135,6057.5098,
636.224,6037.8694,
633.314,6061.6875,
630.403,6073.0709,
627.493,6084.8156,
624.582,6093.6889,
621.672,6075.473,
618.761,6063.3509,
615.850,6082.3405,
612.940,6120.2175,
610.029,6150.5163,
607.119,6107.0866,
604.208,6099.1999,
601.297,6090.7708,
598.387,6084.3233,
595.476,6089.5382,
592.566,6129.6787,
589.655,6055.1158,
586.745,5995.9951,
583.834,5978.2871,
580.923,5983.8732,
578.013,6004.2763,
575.102,5988.5272,
572.192,5996.6881,
569.281,6046.2176,
566.371,6082.2183,
563.460,6111.8523,
560.549,6111.0553,
557.639,6097.4072,
554.728,6097.4946,
551.818,6156.7986,
548.907,6204.4866,
545.996,6243.8567,
543.086,6268.7368,
540.175,6259.3931,
537.265,6258.75,
534.354,6292.865,
531.444,6318.1116,
528.533,6300.5509,
525.622,6368.0583,
522.712,6464.0549,
519.801,6551.883,
516.891,6625.9655,
513.980,6711.1381,
511.070,6739.8804,
508.159,6814.1766,
505.248,6914.041,
502.338,7002.4325,
499.427,7128.2411,
496.517,7257.9115,
493.606,7343.5272,
490.695,7375.5227,
487.785,7438.6456,
484.874,7452.6273,
481.964,7429.0027,
479.053,7393.3016,
476.143,7395.6055,
473.232,7378.4843,
470.321,7395.1057,
467.411,7412.4055,
464.500,7392.1075,
461.590,7445.7093,
458.679,7516.3298,
455.769,7617.2013,
452.858,7735.2049,
449.947,7710.7591,
447.037,7763.999,
444.126,7852.7682,
441.216,7952.4497,
438.305,8025.5951,
435.395,8021.9816,
432.484,8036.4211,
429.573,8064.0875,
426.663,8052.6854,
423.752,7704.4353,
420.842,7299.3759,
417.931,7003.8605,
415.020,7028.8863,
412.110,7753.3154,
409.199,8214.3488,
406.289,8409.8947,
403.378,8382.102,
400.468,8190.8354,
397.557,8249.0327,
394.646,8438.7828,
391.736,8645.3838,
388.825,8571.4691,
385.915,8581.6816,
383.004,8642.3019,
380.094,8729.0861,
377.183,8833.6803,
374.272,8906.7152,
371.362,8945.8103,
368.451,8952.984,
365.541,8989.7602,
362.630,9047.2729,
359.719,9097.1089,
356.809,9121.2063,
353.898,9112.2207,
350.988,9076.1158,
348.077,9064.3033,
345.167,9106.1501,
342.256,9133.7917,
339.345,9134.8414,
336.435,9129.5828,
333.524,9133.8874,
330.614,9201.6966,
327.703,9223.2634,
324.793,9232.2571,
321.882,9256.9465,
318.971,9337.9818,
316.061,9427.2776,
313.150,9525.9309,
310.240,9635.764,
307.329,9674.7672,
304.418,9682.8226,
301.508,9679.4915,
298.597,9693.5595,
295.687,9648.6977,
292.776,9677.5836,
289.866,9767.7442,
286.955,9857.8688,
284.044,9982.0699,
281.134,10101.923,
278.223,10203.618,
275.313,10257.408,
272.402,10343.106,
269.492,10357.777,
266.581,10275.116,
263.670,10294.231,
260.760,10376.54,
257.849,10520.659,
254.939,10732.017,
252.028,10710.139,
249.117,10719.937,
246.207,10751.842,
243.296,10786.979,
240.386,10890.658,
237.475,10963.728,
234.565,10988.963,
231.654,10945.87,
228.743,10926.969,
225.833,10908.774,
222.922,10887.351,
220.012,10964.578,
217.101,10971.594,
214.191,10971.765,
211.280,11035.054,
208.369,11049.842,
205.459,11053.552,
202.548,11048.742,
199.638,11031.326,
196.727,11068.661,
193.816,11093.934,
190.906,11085.239,
187.995,11156.193,
185.085,11197.773,
182.174,11232.225,
179.264,11289.323,
176.353,11328.43,
173.442,11353.276,
170.532,11364.414,
167.621,11361.53,
164.711,11118.989,
161.800,10797.037,
158.890,10493.312,
155.979,9846.761,
153.068,9119.0475,
150.158,8286.9866,
147.247,7189.2376,
144.337,6005.6854,
141.426,4787.4455,
138.516,3552.9588,
135.605,2547.6306,
132.694,1750.5353,
129.784,1147.4903,
126.873,761.32023,
123.963,520.56501,
121.052,358.08951,
118.141,258.14323,
115.231,205.16779,
112.320,164.68638,
109.410,133.84121,
106.499,108.20362,
103.589,102.18975,
100.678,97.404053,
97.767,86.029052,
94.857,75.355164,
91.946,72.765554,
89.036,73.717838,
86.125,60.952143,
83.215,50.848035,
80.304,45.468298,
77.393,47.592808,
74.483,48.405135,
71.572,44.764127,
68.662,37.403663,
65.751,33.871407,
62.840,36.603616,
59.930,40.75,
57.019,40.75,
54.109,32.986909,
51.198,27.75,
48.288,27.710363,
45.377,22.786716,
42.466,22.398877,
39.556,24.174407,
36.645,20.663456,
33.735,18.711503,
30.824,17.087339,
27.914,14.983813,
25.003,22.844287,
22.092,25.812573,
19.182,21.177928,
16.271,3.6906751,
13.361,-40.75976,
10.450,-127.82617,
7.539,-334.52752,
4.629,-608.20444,
1.718,-785.17088,
-1.192,-690.35922,
-4.103,-450.37394,
-7.013,-211.13122,
-9.924,-0.25,
