,PLD7AB~1,
Raman shift [1/cm],Intensity,
3014.167,-0.5,
3011.256,0.29995705,
3008.346,92.403279,
3005.435,90.84629,
3002.525,104.9726,
2999.614,101.96626,
2996.704,100.41959,
2993.793,116.61463,
2990.882,118.28629,
2987.972,112.57063,
2985.061,123.39655,
2982.151,131.82942,
2979.240,133.66539,
2976.329,131.48362,
2973.419,141.6846,
2970.508,149.2833,
2967.598,145.02209,
2964.687,144.57405,
2961.777,144.53409,
2958.866,158.16122,
2955.955,169.29424,
2953.045,159.78412,
2950.134,165.5,
2947.224,186.18684,
2944.313,174.60114,
2941.403,181.32162,
2938.492,185.21274,
2935.581,173.23131,
2932.671,192.41844,
2929.760,186.63846,
2926.850,172.38835,
2923.939,192.41586,
2921.028,191.85868,
2918.118,188.92192,
2915.207,201.55693,
2912.297,209.45769,
2909.386,204.66789,
2906.476,201.17414,
2903.565,207.82297,
2900.654,208.84074,
2897.744,209.29884,
2894.833,194.32473,
2891.923,200.3654,
2889.012,201.33237,
2886.102,196.04325,
2883.191,182.50755,
2880.280,165.71531,
2877.370,132.31987,
2874.459,118.01591,
2871.549,154.72376,
2868.638,191.9577,
2865.727,207.39233,
2862.817,198.77139,
2859.906,197.43732,
2856.996,212.00226,
2854.085,222.9433,
2851.175,210.3825,
2848.264,203.73017,
2845.353,207.78037,
2842.443,210.91671,
2839.532,198.05223,
2836.622,203.5,
2833.711,200.87048,
2830.801,198.5,
2827.890,204.51922,
2824.979,202.91996,
2822.069,197.51137,
2819.158,198.11995,
2816.248,205.71816,
2813.337,216.36586,
2810.427,215.62534,
2807.516,208.50735,
2804.605,219.84374,
2801.695,203.2763,
2798.784,220.72585,
2795.874,215.64512,
2792.963,212.85713,
2790.052,216.49914,
2787.142,205.81569,
2784.231,204.01552,
2781.321,211.75144,
2778.410,207.20052,
2775.500,200.09517,
2772.589,215.88532,
2769.678,226.96416,
2766.768,212.07862,
2763.857,219.44798,
2760.947,221.48109,
2758.036,204.09864,
2755.126,220.88034,
2752.215,217.71358,
2749.304,220.47841,
2746.394,222.92338,
2743.483,231.09997,
2740.573,219.64373,
2737.662,226.20117,
2734.751,231.63619,
2731.841,233.55495,
2728.930,227.29657,
2726.020,229.60706,
2723.109,226.5,
2720.199,230.94991,
2717.288,242.41241,
2714.377,215.3754,
2711.467,242.28681,
2708.556,244.97874,
2705.646,236.89435,
2702.735,243.33763,
2699.825,248.96728,
2696.914,252.92864,
2694.003,247.5,
2691.093,249.2858,
2688.182,256.08222,
2685.272,249.18137,
2682.361,244.31769,
2679.450,235.42184,
2676.540,247.43903,
2673.629,244.83184,
2670.719,235.86506,
2667.808,250.47865,
2664.898,250.42218,
2661.987,251.30013,
2659.076,259.99138,
2656.166,255.03246,
2653.255,255.57483,
2650.345,254.28403,
2647.434,239.95756,
2644.524,257.43046,
2641.613,257.75707,
2638.702,266.34219,
2635.792,268.81306,
2632.881,268.5416,
2629.971,268.88253,
2627.060,263.165,
2624.149,272.82501,
2621.239,263.99111,
2618.328,251.71194,
2615.418,264.46365,
2612.507,269.95063,
2609.597,277.12276,
2606.686,269.66868,
2603.775,270.17857,
2600.865,275.4386,
2597.954,273.93123,
2595.044,279.52657,
2592.133,277.7803,
2589.223,290.30738,
2586.312,288.32915,
2583.401,292.88688,
2580.491,287.15869,
2577.580,326.46369,
2574.670,297.02809,
2571.759,277.5,
2568.848,289.84813,
2565.938,277.59523,
2563.027,278.86591,
2560.117,280.77103,
2557.206,303.19741,
2554.296,294.09725,
2551.385,284.25202,
2548.474,298.4632,
2545.564,312.2151,
2542.653,294.18457,
2539.743,288.96919,
2536.832,315.6645,
2533.922,310.67346,
2531.011,317.9253,
2528.100,311.69862,
2525.190,306.59426,
2522.279,317.89033,
2519.369,311.2355,
2516.458,316.16077,
2513.548,302.21828,
2510.637,309.1311,
2507.726,307.55949,
2504.816,311.99943,
2501.905,310.93476,
2498.995,320.20141,
2496.084,314.58013,
2493.173,309.73675,
2490.263,329.03902,
2487.352,329.33307,
2484.442,323.22163,
2481.531,320.65954,
2478.621,332.7133,
2475.710,311.72236,
2472.799,336.55386,
2469.889,325.46953,
2466.978,332.27314,
2464.068,300.98136,
2461.157,322.77242,
2458.247,336.92648,
2455.336,330.90508,
2452.425,331.95755,
2449.515,345.41475,
2446.604,334.73038,
2443.694,339.0115,
2440.783,349.45496,
2437.872,334.90111,
2434.962,342.08526,
2432.051,340.30261,
2429.141,357.04107,
2426.230,356.76076,
2423.320,351.44274,
2420.409,362.55117,
2417.498,352.75559,
2414.588,345.22241,
2411.677,378.17728,
2408.767,368.74114,
2405.856,362.27859,
2402.946,371.87533,
2400.035,365.91314,
2397.124,379.81552,
2394.214,366.8244,
2391.303,365.35637,
2388.393,377.68375,
2385.482,354.77779,
2382.571,377.18375,
2379.661,372.36043,
2376.750,374.34237,
2373.840,378.20623,
2370.929,382.46751,
2368.019,385.53634,
2365.108,391.77749,
2362.197,385.99854,
2359.287,385.86992,
2356.376,399.48239,
2353.466,395.72777,
2350.555,387.70997,
2347.645,393.01257,
2344.734,387.25574,
2341.823,399.25125,
2338.913,390.80897,
2336.002,401.12919,
2333.092,409.51134,
2330.181,417.25447,
2327.270,388.20516,
2324.360,407.32308,
2321.449,422.91496,
2318.539,416.47859,
2315.628,414.80256,
2312.718,427.74891,
2309.807,414.66133,
2306.896,427.72848,
2303.986,427.33124,
2301.075,426.39366,
2298.165,430.67329,
2295.254,410.99549,
2292.344,430.81955,
2289.433,419.85909,
2286.522,434.71422,
2283.612,428.00891,
2280.701,440.54032,
2277.791,442.77865,
2274.880,426.99797,
2271.969,443.71811,
2269.059,457.58991,
2266.148,458.8773,
2263.238,464.99807,
2260.327,460.46565,
2257.417,473.73722,
2254.506,470.4544,
2251.595,459.36185,
2248.685,442.97889,
2245.774,465.5325,
2242.864,462.56484,
2239.953,465.09307,
2237.043,461.92787,
2234.132,463.91811,
2231.221,464.41984,
2228.311,476.89689,
2225.400,499.04967,
2222.490,486.47075,
2219.579,497.79048,
2216.669,496.49046,
2213.758,499.80458,
2210.847,509.36649,
2207.937,527.8078,
2205.026,538.05598,
2202.116,526.23779,
2199.205,544.47365,
2196.294,571.5,
2193.384,570.079,
2190.473,585.80165,
2187.563,616.45166,
2184.652,610.2653,
2181.742,635.34139,
2178.831,631.74897,
2175.920,625.40893,
2173.010,656.42687,
2170.099,648.16864,
2167.189,670.40672,
2164.278,656.03266,
2161.368,654.92767,
2158.457,682.81979,
2155.546,689.89422,
2152.636,686.19681,
2149.725,715.62749,
2146.815,727.29979,
2143.904,733.90148,
2140.993,736.10319,
2138.083,739.52427,
2135.172,751.02099,
2132.262,764.14701,
2129.351,744.80328,
2126.441,721.36403,
2123.530,713.57857,
2120.619,714.72043,
2117.709,670.32569,
2114.798,635.84602,
2111.888,617.5,
2108.977,600.33443,
2106.067,579.88271,
2103.156,580.89918,
2100.245,577.48243,
2097.335,547.33246,
2094.424,539.39853,
2091.514,568.79036,
2088.603,558.93786,
2085.692,533.58925,
2082.782,534.44776,
2079.871,538.96441,
2076.961,557.27302,
2074.050,541.5,
2071.140,539.56912,
2068.229,538.48045,
2065.318,551.78299,
2062.408,535.48487,
2059.497,541.91072,
2056.587,546.91858,
2053.676,547.5,
2050.766,553.96114,
2047.855,552.27217,
2044.944,541.44071,
2042.034,525.76595,
2039.123,535.07913,
2036.213,535.34448,
2033.302,535.6306,
2030.391,532.9405,
2027.481,550.63401,
2024.570,552.12866,
2021.660,518.56952,
2018.749,536.04411,
2015.839,527.32481,
2012.928,548.94799,
2010.017,556.92888,
2007.107,535.68315,
2004.196,526.73813,
2001.286,537.70848,
1998.375,546.15453,
1995.465,503.09018,
1992.554,548.34656,
1989.643,495.67751,
1986.733,521.35614,
1983.822,531.13959,
1980.912,499.41096,
1978.001,511.27923,
1975.090,522.929,
1972.180,502.81118,
1969.269,526.89954,
1966.359,537.58089,
1963.448,532.42206,
1960.538,493.73603,
1957.627,529.97372,
1954.716,510.2469,
1951.806,504.14582,
1948.895,514.07696,
1945.985,499.13399,
1943.074,502.13474,
1940.164,502.75021,
1937.253,504.86553,
1934.342,505.16684,
1931.432,495.05836,
1928.521,487.7867,
1925.611,476.03916,
1922.700,470.87431,
1919.790,511.11805,
1916.879,486.80173,
1913.968,500.48033,
1911.058,478.15166,
1908.147,495.52185,
1905.237,462.45592,
1902.326,484.39037,
1899.415,485.38903,
1896.505,495.58429,
1893.594,486.77438,
1890.684,477.30396,
1887.773,488.24958,
1884.863,485.8303,
1881.952,500.51727,
1879.041,487.80529,
1876.131,505.74574,
1873.220,487.09282,
1870.310,506.70624,
1867.399,496.69192,
1864.489,500.03268,
1861.578,490.92838,
1858.667,515.96706,
1855.757,513.14081,
1852.846,469.25897,
1849.936,485.38287,
1847.025,503.44405,
1844.114,494.52354,
1841.204,502.75524,
1838.293,507.99584,
1835.383,513.2325,
1832.472,538.03565,
1829.562,511.97786,
1826.651,526.79153,
1823.740,523.38885,
1820.830,514.72834,
1817.919,535.67379,
1815.009,535.3626,
1812.098,536.29527,
1809.188,531.81009,
1806.277,564.74752,
1803.366,520.81609,
1800.456,540.21444,
1797.545,549.36541,
1794.635,519.53202,
1791.724,534.42222,
1788.813,571.29589,
1785.903,551.46516,
1782.992,526.08569,
1780.082,515.28233,
1777.171,499.49678,
1774.261,502.83031,
1771.350,527.917,
1768.439,541.67248,
1765.529,552.58886,
1762.618,554.96003,
1759.708,576.09787,
1756.797,576.73485,
1753.887,578.57726,
1750.976,581.91034,
1748.065,567.98234,
1745.155,561.41612,
1742.244,569.7835,
1739.334,561.1753,
1736.423,576.69623,
1733.512,580.40649,
1730.602,600.19249,
1727.691,602.12638,
1724.781,592.63423,
1721.870,605.79057,
1718.960,585.65527,
1716.049,616.57591,
1713.138,612.38505,
1710.228,585.26139,
1707.317,601.84514,
1704.407,636.8423,
1701.496,591.27642,
1698.586,593.89188,
1695.675,659.06389,
1692.764,650.24589,
1689.854,633.23621,
1686.943,661.48823,
1684.033,669.32615,
1681.122,679.33008,
1678.211,683.46193,
1675.301,700.44758,
1672.390,687.59869,
1669.480,721.20593,
1666.569,807.59859,
1663.659,737.92464,
1660.748,764.19414,
1657.837,800.30918,
1654.927,836.87487,
1652.016,852.11121,
1649.106,837.18547,
1646.195,864.30819,
1643.285,858.59636,
1640.374,947.32927,
1637.463,892.57206,
1634.553,897.99257,
1631.642,997.81488,
1628.732,1027.1222,
1625.821,1131.5105,
1622.911,1147.4098,
1620.000,1249.2023,
1617.089,1253.4403,
1614.179,1362.3415,
1611.268,1425.195,
1608.358,1495.1756,
1605.447,1541.8718,
1602.536,1576.1842,
1599.626,1598.7385,
1596.715,1544.2287,
1593.805,1554.598,
1590.894,1565.3067,
1587.984,1548.3121,
1585.073,1525.9312,
1582.162,1509.9767,
1579.252,1461.6751,
1576.341,1473.1287,
1573.431,1399.3994,
1570.520,1396.6094,
1567.610,1417.4022,
1564.699,1386.9735,
1561.788,1374.9084,
1558.878,1337.2653,
1555.967,1280.5208,
1553.057,1252.8449,
1550.146,1247.2709,
1547.235,1213.4417,
1544.325,1195.0243,
1541.414,1189.8591,
1538.504,1181.9862,
1535.593,1190.7514,
1532.683,1194.5279,
1529.772,1195.2624,
1526.861,1207.1093,
1523.951,1205.4001,
1521.040,1200.898,
1518.130,1215.7824,
1515.219,1238.22,
1512.309,1230.8108,
1509.398,1214.5817,
1506.487,1217.1857,
1503.577,1162.0878,
1500.666,1162.59,
1497.756,1138.5084,
1494.845,1127.0203,
1491.934,1139.3646,
1489.024,1097.9774,
1486.113,1089.0823,
1483.203,1072.513,
1480.292,1054.3783,
1477.382,1039.3763,
1474.471,1039.5695,
1471.560,1000.5884,
1468.650,945.18685,
1465.739,968.13186,
1462.829,1013.5822,
1459.918,1024.6326,
1457.008,1006.269,
1454.097,991.03784,
1451.186,991.74758,
1448.276,977.26535,
1445.365,952.07188,
1442.455,961.32647,
1439.544,960.28288,
1436.633,916.60626,
1433.723,898.48491,
1430.812,929.14093,
1427.902,875.69514,
1424.991,925.92655,
1422.081,874.28633,
1419.170,909.24678,
1416.259,904.15912,
1413.349,973.2479,
1410.438,957.31234,
1407.528,960.45599,
1404.617,936.85943,
1401.707,866.92512,
1398.796,834.52445,
1395.885,841.43305,
1392.975,831.77055,
1390.064,785.94875,
1387.154,678.86267,
1384.243,588.22353,
1381.332,574.04932,
1378.422,590.89576,
1375.511,676.14283,
1372.601,787.16687,
1369.690,830.7889,
1366.780,907.78316,
1363.869,911.24398,
1360.958,932.56887,
1358.048,954.80637,
1355.137,999.40062,
1352.227,1040.9053,
1349.316,1047.3335,
1346.406,1044.2228,
1343.495,1067.1604,
1340.584,1142.0002,
1337.674,1129.7496,
1334.763,1123.1471,
1331.853,1113.8748,
1328.942,1216.6778,
1326.032,1218.8969,
1323.121,1257.253,
1320.210,1234.8744,
1317.300,1282.0158,
1314.389,1334.6946,
1311.479,1316.5973,
1308.568,1286.6551,
1305.657,1283.4761,
1302.747,1265.2978,
1299.836,1274.0824,
1296.926,1342.7991,
1294.015,1349.2344,
1291.105,1458.6872,
1288.194,1550.9781,
1285.283,1599.1401,
1282.373,1594.6797,
1279.462,1605.2643,
1276.552,1642.4056,
1273.641,1666.1204,
1270.731,1665.206,
1267.820,1657.6446,
1264.909,1631.1373,
1261.999,1627.4681,
1259.088,1599.1923,
1256.178,1585.5096,
1253.267,1560.4841,
1250.356,1562.3043,
1247.446,1554.7655,
1244.535,1526.6786,
1241.625,1512.9592,
1238.714,1515.3387,
1235.804,1496.0049,
1232.893,1481.1287,
1229.982,1465.0826,
1227.072,1482.2835,
1224.161,1382.6395,
1221.251,1341.9092,
1218.340,1293.04,
1215.430,1266.6463,
1212.519,1253.5393,
1209.608,1245.3981,
1206.698,1253.5213,
1203.787,1266.7814,
1200.877,1325.0074,
1197.966,1365.4696,
1195.055,1387.1247,
1192.145,1417.5484,
1189.234,1468.6715,
1186.324,1518.7753,
1183.413,1541.0584,
1180.503,1554.3275,
1177.592,1572.9039,
1174.681,1542.0925,
1171.771,1525.7473,
1168.860,1536.4643,
1165.950,1535.0811,
1163.039,1535.1984,
1160.129,1522.5232,
1157.218,1509.6541,
1154.307,1506.6131,
1151.397,1508.2393,
1148.486,1505.2522,
1145.576,1492.1531,
1142.665,1484.1619,
1139.754,1500.5862,
1136.844,1489.0933,
1133.933,1478.981,
1131.023,1460.4487,
1128.112,1440.3575,
1125.202,1439.157,
1122.291,1445.4946,
1119.380,1431.3614,
1116.470,1417.241,
1113.559,1376.0643,
1110.649,1380.2163,
1107.738,1391.7149,
1104.828,1394.9161,
1101.917,1400.2339,
1099.006,1405.8919,
1096.096,1379.5538,
1093.185,1380.4318,
1090.275,1425.0099,
1087.364,1432.0694,
1084.453,1476.6221,
1081.543,1516.8822,
1078.632,1517.1723,
1075.722,1505.3119,
1072.811,1504.8103,
1069.901,1509.1766,
1066.990,1494.1417,
1064.079,1502.0687,
1061.169,1479.3326,
1058.258,1459.0409,
1055.348,1466.0275,
1052.437,1472.0402,
1049.527,1460.0706,
1046.616,1474.8407,
1043.705,1469.5631,
1040.795,1468.1385,
1037.884,1483.6721,
1034.974,1480.2513,
1032.063,1454.0306,
1029.153,1467.3575,
1026.242,1457.843,
1023.331,1485.8315,
1020.421,1485.2261,
1017.510,1463.4506,
1014.600,1462.0338,
1011.689,1484.7761,
1008.778,1502.3907,
1005.868,1543.0714,
1002.957,1606.7377,
1000.047,1633.972,
997.136,1672.2156,
994.226,1696.2846,
991.315,1682.0594,
988.404,1641.5817,
985.494,1625.5026,
982.583,1580.9617,
979.673,1551.819,
976.762,1544.6742,
973.852,1546.384,
970.941,1546.9072,
968.030,1539.6386,
965.120,1506.5537,
962.209,1519.3418,
959.299,1543.4557,
956.388,1548.0203,
953.477,1548.1992,
950.567,1560.5584,
947.656,1585.4021,
944.746,1622.7825,
941.835,1599.3958,
938.925,1617.1898,
936.014,1643.6631,
933.103,1656.0876,
930.193,1647.7071,
927.282,1625.6915,
924.372,1647.6773,
921.461,1587.906,
918.551,1571.8903,
915.640,1568.851,
912.729,1543.472,
909.819,1510.1731,
906.908,1568.3005,
903.998,1534.1179,
901.087,1531.5016,
898.176,1543.1351,
895.266,1546.4216,
892.355,1540.5259,
889.445,1567.3825,
886.534,1578.3533,
883.624,1607.4133,
880.713,1606.7204,
877.802,1588.6365,
874.892,1571.2269,
871.981,1534.1646,
869.071,1519.9626,
866.160,1547.1683,
863.250,1552.1128,
860.339,1561.3248,
857.428,1586.7173,
854.518,1566.2111,
851.607,1556.2263,
848.697,1548.3096,
845.786,1543.4241,
842.875,1551.2874,
839.965,1575.0681,
837.054,1600.807,
834.144,1628.1558,
831.233,1634.1666,
828.323,1618.6737,
825.412,1598.3145,
822.501,1594.564,
819.591,1622.6615,
816.680,1611.4807,
813.770,1590.9579,
810.859,1573.2801,
807.949,1568.9098,
805.038,1576.0199,
802.127,1538.9792,
799.217,1534.7546,
796.306,1528.2567,
793.396,1520.7748,
790.485,1525.1338,
787.574,1557.9048,
784.664,1568.5662,
781.753,1606.7331,
778.843,1616.6587,
775.932,1602.9445,
773.022,1590.3732,
770.111,1589.5556,
767.200,1551.4344,
764.290,1562.0372,
761.379,1556.0496,
758.469,1518.361,
755.558,1505.6004,
752.648,1475.4601,
749.737,1455.7914,
746.826,1394.8846,
743.916,1282.1226,
741.005,1120.6129,
738.095,864.87174,
735.184,544.90082,
732.274,469.4682,
729.363,673.279,
726.452,1056.8316,
723.542,1346.5944,
720.631,1445.8348,
717.721,1493.841,
714.810,1525.3465,
711.899,1552.8861,
708.989,1567.4108,
706.078,1566.6987,
703.168,1568.3217,
700.257,1545.9834,
697.347,1513.8042,
694.436,1518.7182,
691.525,1526.7563,
688.615,1536.0469,
685.704,1540.5,
682.794,1549.6276,
679.883,1578.707,
676.973,1561.0769,
674.062,1570.8997,
671.151,1582.0066,
668.241,1570.5374,
665.330,1522.374,
662.420,1583.0776,
659.509,1584.0712,
656.598,1593.079,
653.688,1616.4906,
650.777,1626.959,
647.867,1640.4966,
644.956,1632.3553,
642.046,1616.7934,
639.135,1601.7751,
636.224,1591.4721,
633.314,1585.9146,
630.403,1601.0539,
627.493,1597.9052,
624.582,1564.0823,
621.672,1517.3546,
618.761,1524.6193,
615.850,1544.0296,
612.940,1568.7706,
610.029,1594.3142,
607.119,1617.2134,
604.208,1569.0891,
601.297,1551.9896,
598.387,1548.0476,
595.476,1526.6774,
592.566,1496.7688,
589.655,1529.7255,
586.745,1526.1978,
583.834,1484.6187,
580.923,1449.4289,
578.013,1437.6579,
575.102,1438.5151,
572.192,1475.7993,
569.281,1540.7338,
566.371,1558.7341,
563.460,1582.3695,
560.549,1605.6311,
557.639,1614.8602,
554.728,1602.949,
551.818,1657.5711,
548.907,1651.2176,
545.996,1634.0569,
543.086,1630.1974,
540.175,1651.9994,
537.265,1639.0144,
534.354,1637.5135,
531.444,1644.8439,
528.533,1653.6655,
525.622,1655.9934,
522.712,1619.488,
519.801,1608.8658,
516.891,1639.5773,
513.980,1684.4865,
511.070,1665.9609,
508.159,1684.6764,
505.248,1706.2366,
502.338,1680.0137,
499.427,1731.7264,
496.517,1725.702,
493.606,1714.2014,
490.695,1716.2578,
487.785,1678.538,
484.874,1685.4245,
481.964,1694.9917,
479.053,1698.8677,
476.143,1700.4036,
473.232,1701.2194,
470.321,1685.443,
467.411,1664.1946,
464.500,1651.6939,
461.590,1659.3513,
458.679,1676.358,
455.769,1681.8837,
452.858,1671.7153,
449.947,1712.2037,
447.037,1735.0623,
444.126,1733.7788,
441.216,1718.6749,
438.305,1736.9613,
435.395,1728.3542,
432.484,1706.6634,
429.573,1684.855,
426.663,1686.3753,
423.752,1659.3007,
420.842,1619.1855,
417.931,1597.1353,
415.020,1638.0867,
412.110,1736.8045,
409.199,1789.6149,
406.289,1791.5113,
403.378,1742.4052,
400.468,1714.4334,
397.557,1714.2405,
394.646,1704.7232,
391.736,1652.6851,
388.825,1533.5166,
385.915,1477.2123,
383.004,1469.9217,
380.094,1502.9531,
377.183,1590.2404,
374.272,1712.7433,
371.362,1801.3865,
368.451,1814.9985,
365.541,1806.7426,
362.630,1819.7947,
359.719,1845.8185,
356.809,1876.9563,
353.898,1867.9707,
350.988,1850.3104,
348.077,1834.8863,
345.167,1829.6731,
342.256,1852.8322,
339.345,1864.8143,
336.435,1867.8344,
333.524,1862.5605,
330.614,1832.7543,
327.703,1851.7373,
324.793,1876.4377,
321.882,1870.5162,
318.971,1877.2072,
316.061,1907.3339,
313.150,1941.35,
310.240,1956.9344,
307.329,1944.6365,
304.418,1944.9714,
301.508,1921.9615,
298.597,1810.8989,
295.687,1737.8394,
292.776,1722.0834,
289.866,1794.812,
286.955,2043.0238,
284.044,2254.3348,
281.134,2419.8192,
278.223,2537.2003,
275.313,2603.5173,
272.402,2709.2827,
269.492,2790.3921,
266.581,2823.9714,
263.670,2844.5565,
260.760,2888.1116,
257.849,2931.7386,
254.939,2958.1584,
252.028,2998.3115,
249.117,2991.5723,
246.207,2965.8788,
243.296,2967.3429,
240.386,2929.6265,
237.475,2888.7539,
234.565,2853.1993,
231.654,2838.5916,
228.743,2805.5809,
225.833,2772.5237,
222.922,2749.5044,
220.012,2792.4892,
217.101,2752.5213,
214.191,2681.4193,
211.280,2631.2244,
208.369,2593.8593,
205.459,2546.7577,
202.548,2507.3942,
199.638,2547.3049,
196.727,2545.1281,
193.816,2505.5916,
190.906,2433.4046,
187.995,2487.7065,
185.085,2500.8257,
182.174,2496.0671,
179.264,2501.8492,
176.353,2483.2766,
173.442,2456.91,
170.532,2425.1316,
167.621,2387.6409,
164.711,2372.2443,
161.800,2326.9488,
158.890,2208.1938,
155.979,2071.0353,
153.068,1905.9659,
150.158,1713.2678,
147.247,1488.5488,
144.337,1242.211,
141.426,987.82619,
138.516,730.46223,
135.605,516.53316,
132.694,342.19407,
129.784,210.25987,
126.873,142.32254,
123.963,99.477423,
121.052,69.567902,
118.141,49.578646,
115.231,41.683726,
112.320,33.840005,
109.410,28.181776,
106.499,31.742552,
103.589,21.29491,
100.678,12.5,
97.767,12.5,
94.857,18.043912,
91.946,18.887557,
89.036,16.387102,
86.125,15.677897,
83.215,16.561841,
80.304,15.584539,
77.393,9.919179,
74.483,14.085945,
71.572,12.876479,
68.662,6.8463375,
65.751,10.378593,
62.840,10.536596,
59.930,9.8745724,
57.019,11.284736,
54.109,12.694322,
51.198,12.293563,
48.288,9.4773502,
45.377,6.663838,
42.466,11.271071,
39.556,17.773221,
36.645,7.2403681,
33.735,8.6539877,
30.824,12.941774,
27.914,14.344124,
25.003,20.103737,
22.092,25.437427,
19.182,29.774594,
16.271,38.168476,
13.361,166.67302,
10.450,449.91591,
7.539,1097.2542,
4.629,1640.8683,
1.718,1887.0882,
-1.192,1543.3959,
-4.103,928.29068,
-7.013,389.85552,
-9.924,1.5,
