,PL041B~1,
Raman shift [1/cm],Intensity,
3014.167,1,
3011.256,1.7500537,
3008.346,95.196509,
3005.435,104.38516,
3002.525,120.4726,
2999.614,111.09869,
2996.704,128.16906,
2993.793,126.77074,
2990.882,107.04582,
2987.972,123.02522,
2985.061,123.5665,
2982.151,112.71596,
2979.240,135.84885,
2976.329,147.25956,
2973.419,155.66136,
2970.508,164.23333,
2967.598,146.33815,
2964.687,161.06046,
2961.777,155.24794,
2958.866,164.33581,
2955.955,174.65927,
2953.045,162.30203,
2950.134,180.03208,
2947.224,188.60144,
2944.313,188.93234,
2941.403,198.17838,
2938.492,197,
2935.581,201.93005,
2932.671,194.15879,
2929.760,196.01924,
2926.850,193.52256,
2923.939,209,
2921.028,219.78834,
2918.118,200.24182,
2915.207,221.47476,
2912.297,219.02962,
2909.386,225.78103,
2906.476,226.86797,
2903.565,219.27482,
2900.654,204.10618,
2897.744,220.81142,
2894.833,212.59782,
2891.923,206.59289,
2889.012,218.50289,
2886.102,216.24864,
2883.191,221.99906,
2880.280,211.69855,
2877.370,211.54644,
2874.459,204.11947,
2871.549,214.14491,
2868.638,222.13608,
2865.727,233.60386,
2862.817,231.18583,
2859.906,236.68376,
2856.996,234.53397,
2854.085,215.5567,
2851.175,226.62046,
2848.264,235.9265,
2845.353,235.30194,
2842.443,244.60766,
2839.532,226.35828,
2836.622,224.06185,
2833.711,228.42229,
2830.801,229.69779,
2827.890,239.47726,
2824.979,230.642,
2822.069,226.2047,
2819.158,249.32076,
2816.248,249.78184,
2813.337,239.90731,
2810.427,247.47796,
2807.516,238.74109,
2804.605,257.8269,
2801.695,227.69737,
2798.784,244.74331,
2795.874,242,
2792.963,242,
2790.052,249.99828,
2787.142,241.19742,
2784.231,249.12888,
2781.321,243.6286,
2778.410,251.75508,
2775.500,249.23414,
2772.589,265.99848,
2769.678,240.21503,
2766.768,245.11652,
2763.857,262.47399,
2760.947,253.93065,
2758.036,252.31853,
2755.126,261.58333,
2752.215,243.29562,
2749.304,269.82912,
2746.394,262.97787,
2743.483,252.94998,
2740.573,270.30758,
2737.662,264.88314,
2734.751,255.9758,
2731.841,241.2967,
2728.930,271.95773,
2726.020,273.57176,
2723.109,267.38175,
2720.199,260.74363,
2717.288,264.94889,
2714.377,265.32066,
2711.467,280.03296,
2708.556,275.12758,
2705.646,281.38029,
2702.735,282.82216,
2699.825,277.86911,
2696.914,282.38091,
2694.003,274.15609,
2691.093,281.1071,
2688.182,281.52741,
2685.272,282.79658,
2682.361,285.30022,
2679.450,290.57196,
2676.540,282.63417,
2673.629,270.30939,
2670.719,288.70795,
2667.808,287.29181,
2664.898,280.92218,
2661.987,285.76688,
2659.076,288.76293,
2656.166,293.22514,
2653.255,290.29422,
2650.345,292.86388,
2647.434,308.88539,
2644.524,300.47484,
2641.613,303.25707,
2638.702,297.07891,
2635.792,311.90727,
2632.881,307.46423,
2629.971,303.02009,
2627.060,306.49906,
2624.149,313.08125,
2621.239,312,
2618.328,298.08477,
2615.418,303.31819,
2612.507,311.86165,
2609.597,303.91816,
2606.686,321.9478,
2603.775,320.39682,
2600.865,326.81917,
2597.954,326.04791,
2595.044,334.92915,
2592.133,347.94264,
2589.223,337.0842,
2586.312,330.05023,
2583.401,331.02187,
2580.491,333.79323,
2577.580,324.04291,
2574.670,346.95589,
2571.759,337.34846,
2568.848,345.8785,
2565.938,343.14292,
2563.027,331.34093,
2560.117,341.5234,
2557.206,351.90406,
2554.296,347,
2551.385,349.19002,
2548.474,345.66654,
2545.564,341.06331,
2542.653,366.08389,
2539.743,365.59242,
2536.832,357.24486,
2533.922,378.90538,
2531.011,363.65079,
2528.100,350.19516,
2525.190,360,
2522.279,362.42208,
2519.369,363.75516,
2516.458,354.22734,
2513.548,378.60883,
2510.637,364.10669,
2507.726,374.44236,
2504.816,361.12514,
2501.905,379.85488,
2498.995,378.82084,
2496.084,372.01391,
2493.173,371.84239,
2490.263,376.60678,
2487.352,384.41573,
2484.442,376.12632,
2481.531,382.68091,
2478.621,373.9289,
2475.710,387.05367,
2472.799,390.30049,
2469.889,387.72578,
2466.978,399.88657,
2464.068,400.04232,
2461.157,377.8075,
2458.247,385.52951,
2455.336,400.29746,
2452.425,393.97641,
2449.515,401.5946,
2446.604,410.17974,
2443.694,402.67434,
2440.783,403.42905,
2437.872,409.58344,
2434.962,421.58526,
2432.051,407.12337,
2429.141,421.92916,
2426.230,415.97787,
2423.320,429.78561,
2420.409,435.89099,
2417.498,424.04212,
2414.588,421.35738,
2411.677,429.82071,
2408.767,427.78248,
2405.856,432.71668,
2402.946,430.36908,
2400.035,414.81689,
2397.124,446.21391,
2394.214,437.4048,
2391.303,436.28726,
2388.393,437.76046,
2385.482,426.48468,
2382.571,443.65813,
2379.661,442.53496,
2376.750,445.41865,
2373.840,441.23443,
2370.929,446.90253,
2368.019,451.58926,
2365.108,469.46597,
2362.197,469.95894,
2359.287,465.62172,
2356.376,443.03522,
2353.466,463.72596,
2350.555,476.28476,
2347.645,468.96026,
2344.734,473.36406,
2341.823,483.83417,
2338.913,455.95374,
2336.002,465.74162,
2333.092,474.32171,
2330.181,487.54474,
2327.270,504.17492,
2324.360,487.94103,
2321.449,493.03061,
2318.539,491.5107,
2315.628,500.36931,
2312.718,502.23348,
2309.807,492.13663,
2306.896,490.97652,
2303.986,487.6559,
2301.075,495,
2298.165,505.37519,
2295.254,507.02154,
2292.344,523.84653,
2289.433,507.67182,
2286.522,512.59372,
2283.612,511.85969,
2280.701,499.61437,
2277.791,521.71948,
2274.880,510.50608,
2271.969,511.02058,
2269.059,530.73841,
2266.148,530.10684,
2263.238,527.50193,
2260.327,539.79308,
2257.417,536.05111,
2254.506,528.9544,
2251.595,530.99268,
2248.685,540.68268,
2245.774,541.09892,
2242.864,540.29674,
2239.953,552.40012,
2237.043,544.41677,
2234.132,568.10129,
2231.221,561.89402,
2228.311,563.34922,
2225.400,558.3096,
2222.490,569,
2219.579,571.39333,
2216.669,578.48808,
2213.758,591.43661,
2210.847,571.20658,
2207.937,592.81918,
2205.026,619.22304,
2202.116,600.67091,
2199.205,603.988,
2196.294,604.11597,
2193.384,625.49952,
2190.473,642.15376,
2187.563,631.087,
2184.652,646.89143,
2181.742,642.09179,
2178.831,670.87165,
2175.920,678.42258,
2173.010,702.72732,
2170.099,726.99852,
2167.189,737.39465,
2164.278,798.01608,
2161.368,840.99903,
2158.457,866.50715,
2155.546,908.75583,
2152.636,950.63294,
2149.725,987.79192,
2146.815,1013.3326,
2143.904,1009.9145,
2140.993,1046.164,
2138.083,1047.4468,
2135.172,1043,
2132.262,1071.7905,
2129.351,1064.8343,
2126.441,1047.2815,
2123.530,1015.5735,
2120.619,970.01869,
2117.709,910.77093,
2114.798,884.61153,
2111.888,867.08824,
2108.977,823.02647,
2106.067,763.77247,
2103.156,752.63951,
2100.245,747.97867,
2097.335,710.26702,
2094.424,687.06894,
2091.514,694.99458,
2088.603,683.15209,
2085.692,665.22313,
2082.782,671.96375,
2079.871,655.17737,
2076.961,677.12724,
2074.050,656.06667,
2071.140,669.9201,
2068.229,633.8164,
2065.318,648.24801,
2062.408,668,
2059.497,656.57736,
2056.587,659.63936,
2053.676,635.41841,
2050.766,655.76756,
2047.855,645.34175,
2044.944,657.53205,
2042.034,657.20804,
2039.123,647.0404,
2036.213,649.2311,
2033.302,644.28265,
2030.391,655.52506,
2027.481,656.30494,
2024.570,651.4715,
2021.660,650.05913,
2018.749,646.77206,
2015.839,638.84777,
2012.928,630.05705,
2010.017,650.57112,
2007.107,657.58131,
2004.196,646.76187,
2001.286,646.66783,
1998.375,638.3868,
1995.465,632.78661,
1992.554,641.76463,
1989.643,655.55067,
1986.733,617.53509,
1983.822,630.1034,
1980.912,642.16776,
1978.001,625.27088,
1975.090,644.57863,
1972.180,657.82712,
1969.269,642.62062,
1966.359,611.43223,
1963.448,621.9934,
1960.538,624.13094,
1957.627,607.84209,
1954.716,598.22981,
1951.806,626.21159,
1948.895,591.23483,
1945.985,593.76144,
1943.074,619.51299,
1940.164,603.3749,
1937.253,582.94808,
1934.342,577.08556,
1931.432,574.87697,
1928.521,585.48187,
1925.611,588.07151,
1922.700,596.08011,
1919.790,578.32971,
1916.879,590.81426,
1913.968,567.03074,
1911.058,566.38739,
1908.147,584.40583,
1905.237,577.77208,
1902.326,601.4385,
1899.415,604.66094,
1896.505,569.65671,
1893.594,583.17989,
1890.684,596.29406,
1887.773,594.60371,
1884.863,568.50342,
1881.952,594.26964,
1879.041,612.26947,
1876.131,599.15556,
1873.220,583.79641,
1870.310,558.79376,
1867.399,560.93603,
1864.489,593.6231,
1861.578,609.1868,
1858.667,606.89224,
1855.757,581.40573,
1852.846,585.8051,
1849.936,607.72173,
1847.025,590.35036,
1844.114,608.43767,
1841.204,599.05595,
1838.293,592.97173,
1835.383,633.49948,
1832.472,625.72,
1829.562,609.55521,
1826.651,630.82954,
1823.740,613.06508,
1820.830,610.7166,
1817.919,599.1556,
1815.009,602.84987,
1812.098,608.48819,
1809.188,640.8914,
1806.277,647.88934,
1803.366,629.21627,
1800.456,641.45043,
1797.545,632.36878,
1794.635,644.64314,
1791.724,692.93218,
1788.813,645.80489,
1785.903,662.17247,
1782.992,661.97614,
1780.082,644.97475,
1777.171,630.66649,
1774.261,650.80542,
1771.350,668.79549,
1768.439,657.59807,
1765.529,680.45463,
1762.618,680.03375,
1759.708,694.83712,
1756.797,677.18939,
1753.887,672.69388,
1750.976,685.10341,
1748.065,679.77112,
1745.155,673.25165,
1742.244,697.1476,
1739.334,683.61177,
1736.423,676.65233,
1733.512,687.73173,
1730.602,677.53569,
1727.691,722.13027,
1724.781,722.84162,
1721.870,738.3144,
1718.960,739.71107,
1716.049,749.0677,
1713.138,746.72502,
1710.228,697.26337,
1707.317,709.46057,
1704.407,769.49742,
1701.496,745.91892,
1698.586,786.42727,
1695.675,715.14331,
1692.764,741.24182,
1689.854,750.65355,
1686.943,738.43843,
1684.033,781.88237,
1681.122,742.69669,
1678.211,791.52413,
1675.301,803.963,
1672.390,830.0658,
1669.480,851.87165,
1666.569,836.27931,
1663.659,858.42464,
1660.748,883.7879,
1657.837,873.503,
1654.927,896.28115,
1652.016,908.48598,
1649.106,928.56306,
1646.195,950.25673,
1643.285,922.028,
1640.374,1009.9408,
1637.463,1053.4415,
1634.553,1024.1231,
1631.642,1099.3257,
1628.732,1129.32,
1625.821,1183.0275,
1622.911,1224.7633,
1620.000,1356.3244,
1617.089,1363.8806,
1614.179,1502.9673,
1611.268,1545.5129,
1608.358,1633.7391,
1605.447,1714.372,
1602.536,1773.0495,
1599.626,1754.9216,
1596.715,1737.5708,
1593.805,1724.3737,
1590.894,1744.1361,
1587.984,1747,
1585.073,1644.0512,
1582.162,1652.7164,
1579.252,1590.8993,
1576.341,1613.65,
1573.431,1634.7476,
1570.520,1598.2524,
1567.610,1609.8435,
1564.699,1562.8977,
1561.788,1519.465,
1558.878,1510,
1555.967,1459.7895,
1553.057,1411.6726,
1550.146,1397.7709,
1547.235,1347.4126,
1544.325,1351.4562,
1541.414,1338.3355,
1538.504,1291.7239,
1535.593,1277.6178,
1532.683,1264.2715,
1529.772,1235.4565,
1526.861,1221.8629,
1523.951,1245.0817,
1521.040,1217.9469,
1518.130,1144.5579,
1515.219,1151.6397,
1512.309,1149.3558,
1509.398,1121.9485,
1506.487,1159.8735,
1503.577,1193.2402,
1500.666,1149.0753,
1497.756,1110.6865,
1494.845,1117.3191,
1491.934,1077.0094,
1489.024,1079.8969,
1486.113,1018.8038,
1483.203,1051.303,
1480.292,1027.1506,
1477.382,1039.7815,
1474.471,1030.9546,
1471.560,1005.9557,
1468.650,988.43417,
1465.739,985.92147,
1462.829,976.25729,
1459.918,986.67971,
1457.008,996.43071,
1454.097,973.05152,
1451.186,970.96131,
1448.276,993.46546,
1445.365,968.89021,
1442.455,933.99348,
1439.544,934.52501,
1436.633,966.79642,
1433.723,972.77188,
1430.812,922.4433,
1427.902,927.57156,
1424.991,909.56407,
1422.081,923.67963,
1419.170,861.05953,
1416.259,833.98868,
1413.349,848.12579,
1410.438,847.0022,
1407.528,864.59973,
1404.617,856.62477,
1401.707,849.35929,
1398.796,853.11189,
1395.885,853.89373,
1392.975,854.81237,
1390.064,856.65204,
1387.154,873.59804,
1384.243,859.86037,
1381.332,821.20127,
1378.422,862.51695,
1375.511,853.14914,
1372.601,923.96092,
1369.690,913.71277,
1366.780,998.12387,
1363.869,1053.6915,
1360.958,1106.9334,
1358.048,1139.8662,
1355.137,1155.3596,
1352.227,1176.6406,
1349.316,1210.7196,
1346.406,1247.8566,
1343.495,1293.9199,
1340.584,1366.9283,
1337.674,1388.4304,
1334.763,1416.4002,
1331.853,1400.6372,
1328.942,1446.2521,
1326.032,1453.6312,
1323.121,1520.6868,
1320.210,1559.9821,
1317.300,1592.1995,
1314.389,1603.861,
1311.479,1613.4174,
1308.568,1644.9309,
1305.657,1684.0146,
1302.747,1734.7051,
1299.836,1778.5283,
1296.926,1823.8111,
1294.015,1948.8392,
1291.105,1973.3719,
1288.194,1978.3962,
1285.283,2057.0443,
1282.373,2139.2576,
1279.462,2173.9411,
1276.552,2215.1655,
1273.641,2270.1474,
1270.731,2286.1776,
1267.820,2275.1303,
1264.909,2263.1644,
1261.999,2229.3315,
1259.088,2265.8164,
1256.178,2253.4402,
1253.267,2211.873,
1250.356,2160.7193,
1247.446,2082.7406,
1244.535,1998.8796,
1241.625,1937.026,
1238.714,1891.2524,
1235.804,1840.6409,
1232.893,1792.886,
1229.982,1742.7854,
1227.072,1736.4482,
1224.161,1718.3494,
1221.251,1717.2335,
1218.340,1686.2572,
1215.430,1620.0024,
1212.519,1575.4724,
1209.608,1589.4907,
1206.698,1633.6811,
1203.787,1665.5427,
1200.877,1700.4428,
1197.966,1691.4512,
1195.055,1701.239,
1192.145,1763.1075,
1189.234,1800.5174,
1186.324,1844.9124,
1183.413,1870.9086,
1180.503,1863.6274,
1177.592,1855.1414,
1174.681,1841.9041,
1171.771,1793.5563,
1168.860,1817.6698,
1165.950,1774.8478,
1163.039,1766.7936,
1160.129,1760.9217,
1157.218,1768.9799,
1154.307,1772.2403,
1151.397,1751.9146,
1148.486,1739.2565,
1145.576,1701.2698,
1142.665,1707.4852,
1139.754,1693.3547,
1136.844,1699.8042,
1133.933,1702.2405,
1131.023,1677.3952,
1128.112,1651.7142,
1125.202,1643.3382,
1122.291,1620.2696,
1119.380,1670.7228,
1116.470,1642.4819,
1113.559,1684.6217,
1110.649,1683.5934,
1107.738,1679.7507,
1104.828,1685.9127,
1101.917,1704.2018,
1099.006,1733.6187,
1096.096,1712.57,
1093.185,1705.546,
1090.275,1696.9073,
1087.364,1712.1531,
1084.453,1687.3771,
1081.543,1677.776,
1078.632,1708.342,
1075.722,1729.3075,
1072.811,1723.7375,
1069.901,1748.1888,
1066.990,1751.6167,
1064.079,1743.8338,
1061.169,1757.1213,
1058.258,1785.3985,
1055.348,1806.7638,
1052.437,1817.2316,
1049.527,1849.1007,
1046.616,1851.7072,
1043.705,1861.2492,
1040.795,1883.1551,
1037.884,1872.2533,
1034.974,1864.4072,
1032.063,1889.3845,
1029.153,1901.5699,
1026.242,1939.628,
1023.331,1900.1693,
1020.421,1921.2783,
1017.510,1922.2342,
1014.600,1924.4191,
1011.689,1952.5431,
1008.778,1994.7026,
1005.868,2057.1776,
1002.957,2076.9658,
1000.047,2167.36,
997.136,2232.3029,
994.226,2268.8306,
991.315,2271.3862,
988.404,2229.245,
985.494,2183.6931,
982.583,2169.9882,
979.673,2155.562,
976.762,2159.2194,
973.852,2183.1224,
970.941,2205.7036,
968.030,2198.8381,
965.120,2163.9785,
962.209,2158.8633,
959.299,2189.8712,
956.388,2192.9206,
953.477,2187.4662,
950.567,2192.5685,
947.656,2203.3504,
944.746,2251.7751,
941.835,2200.5523,
938.925,2212.3479,
936.014,2204.767,
933.103,2185.3531,
930.193,2179.2083,
927.282,2152.2291,
924.372,2156.4572,
921.461,2103.9792,
918.551,2093.1331,
915.640,2091.351,
912.729,2072.4126,
909.819,2048.7776,
906.908,2047.0927,
903.998,2026.3205,
901.087,2058.5539,
898.176,2067.5929,
895.266,2064.4742,
892.355,2099.0936,
889.445,2163.7172,
886.534,2153.1467,
883.624,2175.222,
880.713,2210.4764,
877.802,2233.6948,
874.892,2236.6546,
871.981,2242.9939,
869.071,2200.3878,
866.160,2191.6201,
863.250,2197.2904,
860.339,2204.0739,
857.428,2205.6174,
854.518,2201.7854,
851.607,2125.235,
848.697,2158.0837,
845.786,2144.7482,
842.875,2132.5747,
839.965,2172.0535,
837.054,2185.6372,
834.144,2153.3158,
831.233,2137.6673,
828.323,2127.0651,
825.412,2121.322,
822.501,2118.5744,
819.591,2099.5672,
816.680,2056.532,
813.770,2067.3011,
810.859,2052.9256,
807.949,2023.3073,
805.038,2030.5066,
802.127,2018.1597,
799.217,2000.6014,
796.306,2026.784,
793.396,2032.3128,
790.485,2000.6836,
787.574,1991.6575,
784.664,1982.6363,
781.753,1974.2902,
778.843,1987.1727,
775.932,2010.79,
773.022,2024.9856,
770.111,2018.445,
767.200,2049.2138,
764.290,2029.5282,
761.379,2004.8491,
758.469,2009.6263,
755.558,2045.149,
752.648,2016.6379,
749.737,1976.4022,
746.826,1935.6214,
743.916,1915.3053,
741.005,1915.0608,
738.095,1791.6556,
735.184,1714.0747,
732.274,1657.9721,
729.363,1693.5476,
726.452,1840.3419,
723.542,1958.5133,
720.631,1987.9362,
717.721,1996.1457,
714.810,1992.0512,
711.899,1995.2872,
708.989,2043.7027,
706.078,2003.9349,
703.168,2006.7516,
700.257,2012.5246,
697.347,2014.4342,
694.436,2032.407,
691.525,1973.7292,
688.615,1954.7109,
685.704,1960.4973,
682.794,1970.8936,
679.883,1963.4233,
676.973,1950.6014,
674.062,1969.0567,
671.151,1974.8634,
668.241,1976.7682,
665.330,2009.021,
662.420,2030.5868,
659.509,2000.7137,
656.598,1976.6725,
653.688,1969.1597,
650.777,1964.7012,
647.867,2014.8698,
644.956,1993.8042,
642.046,1978.9752,
639.135,1991.6594,
636.224,2012.9204,
633.314,1997.0417,
630.403,2014.8748,
627.493,2025.3911,
624.582,2022.0611,
621.672,2040.277,
618.761,2082.7967,
615.850,2086.0822,
612.940,2075.6093,
610.029,2073.2359,
607.119,2086.6596,
604.208,2093.6801,
601.297,2119.9289,
598.387,2123.9357,
595.476,2074,
592.566,2074,
589.655,2072.0563,
586.745,2044.5279,
583.834,2017.4659,
580.923,2044,
578.013,2044,
575.102,2021.6301,
572.192,2020.3632,
569.281,2050.109,
566.371,2061.8484,
563.460,2041.1305,
560.549,2065.1349,
557.639,2100,
554.728,2101.3796,
551.818,2123.2284,
548.907,2106.6705,
545.996,2097.2767,
543.086,2104.8388,
540.175,2108.732,
537.265,2130.0041,
534.354,2159.5727,
531.444,2167.6244,
528.533,2135.3728,
525.622,2168.7386,
522.712,2186.9216,
519.801,2217.6766,
516.891,2255.8435,
513.980,2255.0692,
511.070,2271.9043,
508.159,2300.0129,
505.248,2334.0159,
502.338,2368.1974,
499.427,2409.1045,
496.517,2413.7778,
493.606,2414.7204,
490.695,2428.4606,
487.785,2446.1658,
484.874,2419.9199,
481.964,2422.2722,
479.053,2442.6681,
476.143,2420.3972,
473.232,2410.3672,
470.321,2399.2148,
467.411,2379.35,
464.500,2346.3963,
461.590,2401.5296,
458.679,2395.5385,
455.769,2397.534,
452.858,2441.034,
449.947,2450.9651,
447.037,2467.5623,
444.126,2479.5879,
441.216,2491.2759,
438.305,2533.1821,
435.395,2532.4436,
432.484,2511.0797,
429.573,2496.4726,
426.663,2541.3209,
423.752,2540.1181,
420.842,2554.8974,
417.931,2565.0884,
415.020,2530.204,
412.110,2601.4297,
409.199,2625.555,
406.289,2623.7379,
403.378,2625.8642,
400.468,2585.7965,
397.557,2582.7688,
394.646,2593.3467,
391.736,2597,
388.825,2597,
385.915,2549.6348,
383.004,2545.1206,
380.094,2637.3474,
377.183,2624.5553,
374.272,2658.4518,
371.362,2689.7057,
368.451,2690.6413,
365.541,2717.6606,
362.630,2733.1936,
359.719,2735.8565,
356.809,2728.2201,
353.898,2764.9113,
350.988,2774.4575,
348.077,2757.1563,
345.167,2718.6489,
342.256,2770.9437,
339.345,2766.8684,
336.435,2748.8896,
333.524,2746.0235,
330.614,2746.7686,
327.703,2781.3981,
324.793,2800.3371,
321.882,2761.0541,
318.971,2783.3574,
316.061,2805.6494,
313.150,2822.8476,
310.240,2828.7845,
307.329,2841.1488,
304.418,2817.7309,
301.508,2782.6215,
298.597,2777.4386,
295.687,2785.1269,
292.776,2775.6666,
289.866,2784.4015,
286.955,2914.4172,
284.044,3012.6949,
281.134,3078.9955,
278.223,3121.6225,
275.313,3180.5709,
272.402,3191.2573,
269.492,3228.9729,
266.581,3314.8918,
263.670,3341.3583,
260.760,3385.0444,
257.849,3421.8494,
254.939,3432.8576,
252.028,3407.6654,
249.117,3430.8916,
246.207,3455.226,
243.296,3398.1271,
240.386,3404.4068,
237.475,3409.4633,
234.565,3398.3724,
231.654,3343.5937,
228.743,3303.2316,
225.833,3263.0964,
222.922,3220.1359,
220.012,3223.0501,
217.101,3200.4456,
214.191,3171.8474,
211.280,3158.0256,
208.369,3126.0506,
205.459,3131.3618,
202.548,3162,
199.638,3162,
196.727,3152.2043,
193.816,3157.944,
190.906,3187.4667,
187.995,3172.2622,
185.085,3181.1857,
182.174,3199.9383,
179.264,3210.7797,
176.353,3194.699,
173.442,3200.59,
170.532,3222.8756,
167.621,3178.8961,
164.711,3123.3779,
161.800,3042.22,
158.890,2919.8663,
155.979,2757.8857,
153.068,2541.1052,
150.158,2271.7894,
147.247,1947.2749,
144.337,1616.2554,
141.426,1294.1856,
138.516,989.50682,
135.605,677.33711,
132.694,445.31765,
129.784,285.0213,
126.873,192.76955,
123.963,127.90532,
121.052,84.784613,
118.141,64.081455,
115.231,53.341445,
112.320,41.798189,
109.410,30.772803,
106.499,24.363406,
103.589,28.602545,
100.678,29.197296,
97.767,19.24417,
94.857,16.921033,
91.946,16,
89.036,16.451592,
86.125,19.288413,
83.215,17.345398,
80.304,15.718298,
77.393,17.842808,
74.483,11.44865,
71.572,8.3623521,
68.662,8.861465,
65.751,7.4485628,
62.840,10.371914,
59.930,13.625428,
57.019,12.215264,
54.109,10.208517,
51.198,9.3016093,
48.288,9.9773502,
45.377,7.163838,
42.466,9.2977547,
39.556,13.884881,
36.645,13.182691,
33.735,10.923006,
30.824,7.2329042,
27.914,1.6235023,
25.003,2.245275,
22.092,2.3541909,
19.182,1.1372972,
16.271,5.334238,
13.361,61.789537,
10.450,135.67791,
7.539,127.99644,
4.629,-98.085039,
1.718,-403.57623,
-1.192,-715.19983,
-4.103,-527.73161,
-7.013,-266.07954,
-9.924,-3,
