,PLF44C~1,
Wavenumbers [1/cm],Intensity,
3014.167,4.125,
3011.256,-1.4749141,
3008.346,388.8004,
3005.435,479.6621,
3002.525,476.29502,
2999.614,502.17435,
2996.704,510.02809,
2993.793,519.32662,
2990.882,544.82735,
2987.972,548.13004,
2985.061,569.51911,
2982.151,593.36365,
2979.240,628.89498,
2976.329,623.89821,
2973.419,612.87801,
2970.508,669.94154,
2967.598,680.5993,
2964.687,682.54212,
2961.777,681.62913,
2958.866,713.79365,
2955.955,739.2024,
2953.045,735.81183,
2950.134,765.36991,
2947.224,788.60538,
2944.313,826.99038,
2941.403,833.85173,
2938.492,838.53963,
2935.581,830.71641,
2932.671,863.44257,
2929.760,871.44042,
2926.850,872.0656,
2923.939,879.88669,
2921.028,892.6193,
2918.118,921.04439,
2915.207,928.48591,
2912.297,888.33233,
2909.386,908.08122,
2906.476,908.66711,
2903.565,895.125,
2900.654,890.8429,
2897.744,889.82327,
2894.833,869.83627,
2891.923,879.1795,
2889.012,837.62789,
2886.102,813.02366,
2883.191,789.13822,
2880.280,559.87611,
2877.370,209.38719,
2874.459,99.597476,
2871.549,417.66682,
2868.638,779.82791,
2865.727,844.68265,
2862.817,881.52605,
2859.906,872.91131,
2856.996,927.54575,
2854.085,924.87917,
2851.175,963.78772,
2848.264,948.26233,
2845.353,945.59947,
2842.443,965.92709,
2839.532,961.02054,
2836.622,968.36654,
2833.711,968.85813,
2830.801,947.04632,
2827.890,995.60226,
2824.979,982.27303,
2822.069,992.4093,
2819.158,1012.1843,
2816.248,1004.8721,
2813.337,1007.8262,
2810.427,1019.2132,
2807.516,1028.0673,
2804.605,1029.1154,
2801.695,1043.7565,
2798.784,1007.7513,
2795.874,1012.9746,
2792.963,1028.4823,
2790.052,996.13294,
2787.142,999.09877,
2784.231,1021.6079,
2781.321,1039.0564,
2778.410,1023.125,
2775.500,1023.8909,
2772.589,1007.5883,
2769.678,1033.1967,
2766.768,1024.8201,
2763.857,1031.5508,
2760.947,1046.4705,
2758.036,1044.1506,
2755.126,1037.3088,
2752.215,1062.0387,
2749.304,1049.8067,
2746.394,1048.4757,
2743.483,1075.425,
2740.573,1057.72,
2737.662,1047.8055,
2734.751,1066.0569,
2731.841,1090.0719,
2728.930,1086.697,
2726.020,1087.6759,
2723.109,1082.3518,
2720.199,1096.5936,
2717.288,1100.0045,
2714.377,1114.4745,
2711.467,1106.3382,
2708.556,1131.2732,
2705.646,1141.9137,
2702.735,1158.9523,
2699.825,1154.1032,
2696.914,1147.0295,
2694.003,1160.9234,
2691.093,1158.3922,
2688.182,1146.2346,
2685.272,1157.4436,
2682.361,1158.3663,
2679.450,1152.0016,
2676.540,1170.7592,
2673.629,1158.1026,
2670.719,1163.6287,
2667.808,1191.5687,
2664.898,1169.1765,
2661.987,1194.9584,
2659.076,1218.0733,
2656.166,1183.4972,
2653.255,1204.4192,
2650.345,1224.2375,
2647.434,1232.1819,
2644.524,1224.0555,
2641.613,1227.125,
2638.702,1220.2355,
2635.792,1247.441,
2632.881,1230.5177,
2629.971,1227.6551,
2627.060,1241.9553,
2624.149,1251.425,
2621.239,1270.9476,
2618.328,1216.9477,
2615.418,1257.4614,
2612.507,1246.8167,
2609.597,1254.7478,
2606.686,1279.0989,
2603.775,1286.4861,
2600.865,1289.3605,
2597.954,1305.5083,
2595.044,1322.0453,
2592.133,1321.1694,
2589.223,1311.7997,
2586.312,1323.125,
2583.401,1322.6761,
2580.491,1316.3173,
2577.580,1343.1531,
2574.670,1351.8229,
2571.759,1331.226,
2568.848,1345.2963,
2565.938,1343.7441,
2563.027,1341.2227,
2560.117,1354.5643,
2557.206,1344.8519,
2554.296,1379.8115,
2551.385,1387.067,
2548.474,1375.2358,
2545.564,1381.6818,
2542.653,1389.4941,
2539.743,1385.4833,
2536.832,1408.4521,
2533.922,1449.7465,
2531.011,1425.575,
2528.100,1407.5988,
2525.190,1435.0254,
2522.279,1421.9057,
2519.369,1394.7101,
2516.458,1410.2511,
2513.548,1418.2251,
2510.637,1424.1214,
2507.726,1474.1956,
2504.816,1433.8104,
2501.905,1435.7335,
2498.995,1446.4388,
2496.084,1457.9263,
2493.173,1437.6776,
2490.263,1495.5624,
2487.352,1483.2085,
2484.442,1491.3905,
2481.531,1496.5932,
2478.621,1500.945,
2475.710,1504.1557,
2472.799,1503.439,
2469.889,1515.7871,
2466.978,1517.4242,
2464.068,1515.7441,
2461.157,1519.585,
2458.247,1512.272,
2455.336,1548.0566,
2452.425,1549.2948,
2449.515,1538.9088,
2446.604,1571.0098,
2443.694,1576.4277,
2440.783,1597.6993,
2437.872,1580.1615,
2434.962,1581.3877,
2432.051,1587.977,
2429.141,1606.2248,
2426.230,1597.1029,
2423.320,1635.2395,
2420.409,1624.3686,
2417.498,1621.3301,
2414.588,1607.0452,
2411.677,1669.4078,
2408.767,1652.9075,
2405.856,1663.4702,
2402.946,1668.1786,
2400.035,1670.0241,
2397.124,1646.3603,
2394.214,1659.369,
2391.303,1667.7327,
2388.393,1669.125,
2385.482,1619.4162,
2382.571,1580.4413,
2379.661,1610.5664,
2376.750,1676.1716,
2373.840,1730.4217,
2370.929,1741.1142,
2368.019,1733.8959,
2365.108,1733.1721,
2362.197,1755.7936,
2359.287,1759.9568,
2356.376,1774.0933,
2353.466,1779.5651,
2350.555,1772.6801,
2347.645,1762.1396,
2344.734,1811.0145,
2341.823,1823.1913,
2338.913,1809.2564,
2336.002,1830.9909,
2333.092,1828.0335,
2330.181,1815.4063,
2327.270,1856.8148,
2324.360,1839.9056,
2321.449,1869.693,
2318.539,1859.232,
2315.628,1870.402,
2312.718,1893.44,
2309.807,1889.8954,
2306.896,1876.6524,
2303.986,1890.1705,
2301.075,1905.2313,
2298.165,1923.2983,
2295.254,1903.6205,
2292.344,1890.797,
2289.433,1923.6886,
2286.522,1918.1739,
2283.612,1957.4465,
2280.701,1948.8156,
2277.791,1975.0449,
2274.880,1981.2568,
2271.969,2007.6435,
2269.059,1992.6291,
2266.148,2012.8479,
2263.238,2009.6308,
2260.327,2019.8837,
2257.417,2033.9206,
2254.506,2045.7204,
2251.595,2055.9722,
2248.685,2059.7058,
2245.774,2067.1358,
2242.864,2080.7085,
2239.953,2088.4423,
2237.043,2081.8389,
2234.132,2081.7328,
2231.221,2078.5978,
2228.311,2118.6172,
2225.400,2164.5902,
2222.490,2155.2229,
2219.579,2199.2278,
2216.669,2198.6655,
2213.758,2228.61,
2210.847,2226.5558,
2207.937,2235.5142,
2205.026,2234.6801,
2202.116,2259.4488,
2199.205,2297.4248,
2196.294,2314.489,
2193.384,2334.072,
2190.473,2379.3081,
2187.563,2398.3473,
2184.652,2454.6678,
2181.742,2537.4688,
2178.831,2594.0044,
2175.920,2659.8245,
2173.010,2798.2072,
2170.099,2905.0501,
2167.189,3092.0435,
2164.278,3249.3522,
2161.368,3469.4054,
2158.457,3664.4268,
2155.546,3875.5444,
2152.636,4107.9065,
2149.725,4307.6148,
2146.815,4526.4846,
2143.904,4702.058,
2140.993,4796.7915,
2138.083,4885.9759,
2135.172,4963.0746,
2132.262,4945.3415,
2129.351,4916.7766,
2126.441,4791.0858,
2123.530,4689.3853,
2120.619,4499.521,
2117.709,4222.9249,
2114.798,3995.9509,
2111.888,3740.0422,
2108.977,3476.3699,
2106.067,3301.2202,
2103.156,3105.3168,
2100.245,2938.0692,
2097.335,2839.9732,
2094.424,2764.7478,
2091.514,2698.4392,
2088.603,2608.1389,
2085.692,2576.4857,
2082.782,2591.0365,
2079.871,2541.8006,
2076.961,2541.2855,
2074.050,2519.8462,
2071.140,2472.2287,
2068.229,2454.6758,
2065.318,2465.7315,
2062.408,2489.6931,
2059.497,2432.8213,
2056.587,2429.3338,
2053.676,2425.7927,
2050.766,2400.8956,
2047.855,2385.4415,
2044.944,2361.593,
2042.034,2370.4489,
2039.123,2400.6031,
2036.213,2379.0294,
2033.302,2405.0158,
2030.391,2368.2962,
2027.481,2365.3686,
2024.570,2387.0819,
2021.660,2425.819,
2018.749,2427.0735,
2015.839,2373.2418,
2012.928,2371.469,
2010.017,2408.0729,
2007.107,2409.6128,
2004.196,2414.8274,
2001.286,2404.3936,
1998.375,2410.2175,
1995.465,2378.7946,
1992.554,2335.6959,
1989.643,2338.8485,
1986.733,2374.9645,
1983.822,2366.3414,
1980.912,2331.125,
1978.001,2328.3031,
1975.090,2308.5769,
1972.180,2296.8138,
1969.269,2337.2602,
1966.359,2336.476,
1963.448,2318.0114,
1960.538,2347.7739,
1957.627,2339.0755,
1954.716,2338.0963,
1951.806,2345.3798,
1948.895,2334.0582,
1945.985,2342.8913,
1943.074,2303.612,
1940.164,2319.3943,
1937.253,2286.665,
1934.342,2243.2106,
1931.432,2248.5067,
1928.521,2263.9575,
1925.611,2263.3134,
1922.700,2247.2535,
1919.790,2211.397,
1916.879,2260.0795,
1913.968,2260.1299,
1911.058,2263.8127,
1908.147,2232.5863,
1905.237,2232.397,
1902.326,2208.9472,
1899.415,2204.2457,
1896.505,2123.312,
1893.594,2169.933,
1890.684,2223.1705,
1887.773,2254.125,
1884.863,2236.2662,
1881.952,2270.7646,
1879.041,2253.8135,
1876.131,2267.3707,
1873.220,2221.6956,
1870.310,2265.1787,
1867.399,2227.7967,
1864.489,2290.1125,
1861.578,2268.5808,
1858.667,2299.631,
1855.757,2282.7336,
1852.846,2277.1455,
1849.936,2279.149,
1847.025,2281.5264,
1844.114,2340.1956,
1841.204,2343.2404,
1838.293,2324.6258,
1835.383,2336.6945,
1832.472,2353.0554,
1829.562,2381.3995,
1826.651,2356.1497,
1823.740,2372.3396,
1820.830,2359.6602,
1817.919,2363.5263,
1815.009,2396.0932,
1812.098,2383.1723,
1809.188,2403.6366,
1806.277,2383.6119,
1803.366,2424.6407,
1800.456,2455.07,
1797.545,2454.6782,
1794.635,2462.318,
1791.724,2478.9405,
1788.813,2472.1044,
1785.903,2404.6076,
1782.992,2345.9117,
1780.082,2158.9813,
1777.171,2006.7824,
1774.261,2017.3859,
1771.350,2193.4795,
1768.439,2417.8803,
1765.529,2515.1241,
1762.618,2532.315,
1759.708,2550.4836,
1756.797,2551.6553,
1753.887,2588.5886,
1750.976,2582.642,
1748.065,2582.4015,
1745.155,2589.3767,
1742.244,2576.8551,
1739.334,2618.0003,
1736.423,2642.6577,
1733.512,2680.5072,
1730.602,2699.3611,
1727.691,2754.8612,
1724.781,2723.1438,
1721.870,2718.1727,
1718.960,2707.7915,
1716.049,2766.3702,
1713.138,2840.5397,
1710.228,2868.5309,
1707.317,2808.3204,
1704.407,2804.617,
1701.496,2816.0636,
1698.586,2844.8445,
1695.675,2834.9608,
1692.764,2955.3054,
1689.854,2914.2903,
1686.943,2913.0913,
1684.033,2994.0636,
1681.122,3088.5277,
1678.211,3072.2963,
1675.301,3156.8629,
1672.390,3183.2327,
1669.480,3219.8951,
1666.569,3316.0645,
1663.659,3389.0107,
1660.748,3385.0173,
1657.837,3532.4312,
1654.927,3546.6404,
1652.016,3571.5755,
1649.106,3711.1042,
1646.195,3753.17,
1643.285,3878.6517,
1640.374,3946.132,
1637.463,4042.3948,
1634.553,4170.1002,
1631.642,4436.8514,
1628.732,4595.6538,
1625.821,4852.3324,
1622.911,5167.3387,
1620.000,5455.4714,
1617.089,5848.2245,
1614.179,6139.8903,
1611.268,6553.4731,
1608.358,6932.2854,
1605.447,7203.7556,
1602.536,7351.453,
1599.626,7445.7588,
1596.715,7432.2502,
1593.805,7316.5448,
1590.894,7303.125,
1587.984,7326.5095,
1585.073,7129.3322,
1582.162,7104.1436,
1579.252,6994.0177,
1576.341,6959.5122,
1573.431,6926.5812,
1570.520,6964.752,
1567.610,6883.751,
1564.699,6772.0968,
1561.788,6640.0133,
1558.878,6616.2424,
1555.967,6510.1693,
1553.057,6380.9533,
1550.146,6201.009,
1547.235,6097.1862,
1544.325,5968.4944,
1541.414,5858.1429,
1538.504,5783.0653,
1535.593,5701.3447,
1532.683,5618.9165,
1529.772,5540.0315,
1526.861,5524.5506,
1523.951,5508.7618,
1521.040,5455.3667,
1518.130,5425.125,
1515.219,5416.1657,
1512.309,5347.787,
1509.398,5209.6953,
1506.487,5176.796,
1503.577,5036.0067,
1500.666,5034.8572,
1497.756,4983.8282,
1494.845,4962.682,
1491.934,4831.9707,
1489.024,4784.8085,
1486.113,4726.5649,
1483.203,4681.2693,
1480.292,4559.0304,
1477.382,4526.8095,
1474.471,4475.0127,
1471.560,4335.3104,
1468.650,4269.6766,
1465.739,4258.563,
1462.829,4233.2523,
1459.918,4194.4729,
1457.008,4183.2328,
1454.097,4150.8416,
1451.186,4133.4035,
1448.276,4155.4145,
1445.365,4128.9828,
1442.455,4123.459,
1439.544,4093.4066,
1436.633,4111.979,
1433.723,4099.6175,
1430.812,4113.948,
1427.902,4076.0192,
1424.991,4155.6312,
1422.081,4152.6201,
1419.170,4157.3094,
1416.259,4210.7791,
1413.349,4189.8944,
1410.438,4216.2133,
1407.528,4217.9627,
1404.617,4188.4013,
1401.707,4129.6699,
1398.796,4096.7893,
1395.885,4097.7509,
1392.975,4075.2494,
1390.064,4041.3559,
1387.154,4018.5825,
1384.243,3994.5383,
1381.332,3984.5596,
1378.422,4013.0131,
1375.511,4185.3808,
1372.601,4351.243,
1369.690,4434.56,
1366.780,4538.7931,
1363.869,4680.0878,
1360.958,4747.2326,
1358.048,4869.481,
1355.137,4967.2037,
1352.227,5013.6611,
1349.316,5118.6137,
1346.406,5286.4922,
1343.495,5420.2975,
1340.584,5482.3039,
1337.674,5475.4547,
1334.763,5607.2181,
1331.853,5714.7769,
1328.942,5824.9712,
1326.032,5892.7716,
1323.121,5990.3359,
1320.210,6139.9907,
1317.300,6249.7045,
1314.389,6403.8635,
1311.479,6541.5908,
1308.568,6643.8856,
1305.657,6819.2926,
1302.747,6979.9017,
1299.836,7143.1695,
1296.926,7337.6708,
1294.015,7521.5355,
1291.105,7752.7826,
1288.194,8058.6913,
1285.283,8207.6013,
1282.373,8386.5698,
1279.462,8596.201,
1276.552,8733.4322,
1273.641,8839.7969,
1270.731,8925.3668,
1267.820,8875.4101,
1264.909,8883.1579,
1261.999,8877.0238,
1259.088,8901.651,
1256.178,8756.671,
1253.267,8562.5748,
1250.356,8300.499,
1247.446,8054.6167,
1244.535,7776.2103,
1241.625,7449.3699,
1238.714,7148.3027,
1235.804,6904.8341,
1232.893,6673.5241,
1229.982,6560.2307,
1227.072,6445.2561,
1224.161,6286.6748,
1221.251,6156.8718,
1218.340,6030.1357,
1215.430,5944.8907,
1212.519,5906.1643,
1209.608,5859.3962,
1206.698,5789.4865,
1203.787,5769.9692,
1200.877,5775.0871,
1197.966,5871.2972,
1195.055,6102.2359,
1192.145,6176.4381,
1189.234,6304.2588,
1186.324,6474.5899,
1183.413,6584.4397,
1180.503,6596.2975,
1177.592,6560.5289,
1174.681,6534.4058,
1171.771,6549.445,
1168.860,6519.9731,
1165.950,6512.2873,
1163.039,6479.6969,
1160.129,6516.2627,
1157.218,6475.1687,
1154.307,6369.0084,
1151.397,6299.4503,
1148.486,6217.5256,
1145.576,6210.5401,
1142.665,6127.9642,
1139.754,6139.0248,
1136.844,6093.4035,
1133.933,6028.7235,
1131.023,5970.2713,
1128.112,5945.5526,
1125.202,5956.6419,
1122.291,5942.8419,
1119.380,5857.5234,
1116.470,5898.1197,
1113.559,5903.8982,
1110.649,5863.5246,
1107.738,5854.9846,
1104.828,5847.4005,
1101.917,5822.0126,
1099.006,5821.6715,
1096.096,5810.5013,
1093.185,5816.6473,
1090.275,5852.7329,
1087.364,5879.6503,
1084.453,5948.3087,
1081.543,6064.8021,
1078.632,6153.4982,
1075.722,6150.0563,
1072.811,6140.5045,
1069.901,6131.7719,
1066.990,6077.7751,
1064.079,6016.128,
1061.169,5967.7191,
1058.258,5938.2318,
1055.348,5958.7544,
1052.437,6043.1926,
1049.527,6073.2187,
1046.616,6049.7603,
1043.705,6060.9988,
1040.795,6065.125,
1037.884,6116.2045,
1034.974,6157.1869,
1032.063,6154.2861,
1029.153,6203.4074,
1026.242,6289.0381,
1023.331,6257.9605,
1020.421,6268.5525,
1017.510,6278.3661,
1014.600,6341.8728,
1011.689,6432.6816,
1008.778,6456.8954,
1005.868,6503.5073,
1002.957,6657.5107,
1000.047,6893.7011,
997.136,7157.5453,
994.226,7332.1858,
991.315,7397.5631,
988.404,7408.7487,
985.494,7353.3221,
982.583,7272.8058,
979.673,7280.1478,
976.762,7308.8478,
973.852,7363.4639,
970.941,7394.1566,
968.030,7353.3332,
965.120,7377.4723,
962.209,7460.1688,
959.299,7473.4168,
956.388,7477.0447,
953.477,7456.6964,
950.567,7447.4374,
947.656,7510.6659,
944.746,7469.0376,
941.835,7505.996,
938.925,7514.4669,
936.014,7506.5376,
933.103,7481.8234,
930.193,7445.7303,
927.282,7422.8547,
924.372,7325.6099,
921.461,7218.1294,
918.551,7108.0227,
915.640,7023.8039,
912.729,6928.5752,
909.819,6772.8992,
906.908,6740.8871,
903.998,6739.9204,
901.087,6741.398,
898.176,6756.918,
895.266,6788.3602,
892.355,6846.4116,
889.445,6981.5336,
886.534,7021.364,
883.624,7074.8776,
880.713,7138.9742,
877.802,7119.3736,
874.892,6923.6586,
871.981,6547.9957,
869.071,6330.7884,
866.160,6477.3442,
863.250,6778.1934,
860.339,6981.1366,
857.428,6995.4816,
854.518,7012.9255,
851.607,6833.1985,
848.697,6562.7646,
845.786,6443.7457,
842.875,6548.0778,
839.965,6793.8929,
837.054,6948.7204,
834.144,7001.7606,
831.233,6998.126,
828.323,6988.6521,
825.412,6957.1483,
822.501,6880.7842,
819.591,6795.6651,
816.680,6648.894,
813.770,6569.8963,
810.859,6484.11,
807.949,6392.3835,
805.038,6335.1604,
802.127,6269.3102,
799.217,6295.1768,
796.306,6206.7999,
793.396,6179.011,
790.485,6241.2796,
787.574,6195.7094,
784.664,6263.7787,
781.753,6354.6301,
778.843,6430.3713,
775.932,6475.2977,
773.022,6487.4766,
770.111,6476.8481,
767.200,6391.6193,
764.290,6320.6284,
761.379,6283.7925,
758.469,6259.5466,
755.558,6193.3924,
752.648,6202.3531,
749.737,6241.334,
746.826,6201.9149,
743.916,6086.6568,
741.005,5940.9236,
738.095,5735.5188,
735.184,5600.2907,
732.274,5568.7465,
729.363,5690.4086,
726.452,5936.922,
723.542,6096.3725,
720.631,6209.8668,
717.721,6282.797,
714.810,6330.2556,
711.899,6363.0161,
708.989,6383.9962,
706.078,6396.1445,
703.168,6348.1184,
700.257,6306.0484,
697.347,6283.9955,
694.436,6251.1686,
691.525,6252.7763,
688.615,6271.9923,
685.704,6304.278,
682.794,6335.4016,
679.883,6347.9993,
676.973,6389.6705,
674.062,6420.4579,
671.151,6406.3869,
668.241,6364.0246,
665.330,6335.8939,
662.420,6288.7687,
659.509,6347.6976,
656.598,6370.6805,
653.688,6379.7207,
650.777,6483.7721,
647.867,6532.3482,
644.956,6511.5483,
642.046,6377.2813,
639.135,6210.9328,
636.224,6195.4353,
633.314,6257.3625,
630.403,6279.0371,
627.493,6284.2772,
624.582,6275.3541,
621.672,6227.0425,
618.761,6216.0057,
615.850,6254.4491,
612.940,6297.3464,
610.029,6314.7304,
607.119,6312.3615,
604.208,6305.7349,
601.297,6272.7154,
598.387,6246.4245,
595.476,6256.0108,
592.566,6244.2048,
589.655,6207.7868,
586.745,6212.9933,
583.834,6214.7007,
580.923,6110.0444,
578.013,6096.704,
575.102,6134.4234,
572.192,6191.2068,
569.281,6246.8422,
566.371,6295.3649,
563.460,6265.5571,
560.549,6238.4558,
557.639,6247.4158,
554.728,6312.7072,
551.818,6385.2766,
548.907,6496.8029,
545.996,6558.5138,
543.086,6554.5954,
540.175,6533.572,
537.265,6491.5654,
534.354,6487.1622,
531.444,6507.5994,
528.533,6540.4575,
525.622,6657.6256,
522.712,6723.7775,
519.801,6761.9633,
516.891,6810.0784,
513.980,6953.3232,
511.070,7047.8293,
508.159,7114.5995,
505.248,7193.6881,
502.338,7327.2879,
499.427,7435.3444,
496.517,7563.1148,
493.606,7645.5183,
490.695,7658.339,
487.785,7659.8786,
484.874,7729.271,
481.964,7772.5236,
479.053,7766.7034,
476.143,7710.6421,
473.232,7661.0832,
470.321,7666.4807,
467.411,7680.4881,
464.500,7652.034,
461.590,7766.895,
458.679,7841.4977,
455.769,7896.6042,
452.858,7950.9078,
449.947,8044.8713,
447.037,8110.2388,
444.126,8172.6583,
441.216,8233.152,
438.305,8262.1054,
435.395,8254.9792,
432.484,8269.5459,
429.573,8284.2798,
426.663,8224.9889,
423.752,7778.6588,
420.842,7285.7122,
417.931,6924.7548,
415.020,6916.4129,
412.110,7773.5756,
409.199,8338.0025,
406.289,8569.3615,
403.378,8477.7101,
400.468,8355.239,
397.557,8459.5727,
394.646,8638.759,
391.736,8759.1049,
388.825,8820.9518,
385.915,8836.9962,
383.004,8862.8227,
380.094,8939.4189,
377.183,9082.3894,
374.272,9169.3469,
371.362,9204.4158,
368.451,9196.4532,
365.541,9251.2423,
362.630,9306.5468,
359.719,9336.8694,
356.809,9332.7044,
353.898,9391.8595,
350.988,9437.9618,
348.077,9442.506,
345.167,9395.0388,
342.256,9452.5631,
339.345,9485.5994,
336.435,9515.3926,
333.524,9554.9841,
330.614,9550.5131,
327.703,9579.9293,
324.793,9626.6548,
321.882,9677.2548,
318.971,9730.7827,
316.061,9837.9982,
313.150,9949.3702,
310.240,10007.997,
307.329,10072.298,
304.418,10105.332,
301.508,10107.248,
298.597,10077.631,
295.687,10066.321,
292.776,10097.542,
289.866,10175.772,
286.955,10311.698,
284.044,10427.897,
281.134,10544.112,
278.223,10652.053,
275.313,10692.58,
272.402,10787.68,
269.492,10791.19,
266.581,10664.388,
263.670,10668.064,
260.760,10798.676,
257.849,10994.883,
254.939,11217.249,
252.028,11230.259,
249.117,11272.499,
246.207,11343.885,
243.296,11443.442,
240.386,11497.875,
237.475,11592.584,
234.565,11708.62,
231.654,11718.115,
228.743,11713.796,
225.833,11721.016,
222.922,11750.061,
220.012,11791.589,
217.101,11879.223,
214.191,11957.218,
211.280,11960.855,
208.369,12027.734,
205.459,12091.666,
202.548,12127.718,
199.638,12061.684,
196.727,12052.735,
193.816,12106.998,
190.906,12222.408,
187.995,12144.937,
185.085,12159.736,
182.174,12235.703,
179.264,12344.841,
176.353,12252.678,
173.442,12235.094,
170.532,12294.608,
167.621,12187.183,
164.711,11982.585,
161.800,11655.285,
158.890,11160.832,
155.979,10519.515,
153.068,9739.8995,
150.158,8807.681,
147.247,7629.5214,
144.337,6357.7979,
141.426,5066.5045,
138.516,3786.8537,
135.605,2707.3796,
132.694,1846.4289,
129.784,1196.8898,
126.873,805.71373,
123.963,546.86791,
121.052,373.44753,
118.141,278.49857,
115.231,209.19968,
112.320,165.87411,
109.410,141.30705,
106.499,121.36671,
103.589,116.56475,
100.678,107.43311,
97.767,84.683103,
94.857,77.888099,
91.946,75.528111,
89.036,75.108919,
86.125,68.726071,
83.215,60.223035,
80.304,53.646135,
77.393,52.229795,
74.483,47.539055,
71.572,45.849704,
68.662,47.817675,
65.751,54.882186,
62.840,44.600748,
59.930,34.683438,
57.019,48.079995,
54.109,35.79314,
51.198,28.537874,
48.288,34.108013,
45.377,31.997878,
42.466,30.712781,
39.556,29.204051,
36.645,23.58653,
33.735,22.125,
30.824,21.241452,
27.914,18.436751,
25.003,21.238187,
22.092,21.833382,
19.182,18.598694,
16.271,2.5104211,
13.361,-79.737436,
10.450,-243.00836,
7.539,-586.57952,
4.629,-962.95169,
1.718,-1169.2266,
-1.192,-964.96325,
-4.103,-644.1553,
-7.013,-317.36896,
-9.924,-4.875,
