,PL2F1D~1,
Raman shift [1/cm],Intensity,
3014.167,0,
3011.256,-2.0499034,
3008.346,144.93654,
3005.435,176.4629,
3002.525,199.64262,
2999.614,186.36757,
2996.704,224.99175,
2993.793,198.25691,
2990.882,202.603,
2987.972,223.04036,
2985.061,236.3202,
2982.151,230.67058,
2979.240,245.68346,
2976.329,247.2541,
2973.419,277,
2970.508,267.13339,
2967.598,285.33454,
2964.687,284.83628,
2961.777,289.68389,
2958.866,294.65231,
2955.955,304.89382,
2953.045,307.55034,
2950.134,313.03208,
2947.224,315.71172,
2944.313,337.75285,
2941.403,350.64325,
2938.492,342.17075,
2935.581,355.70429,
2932.671,348.40346,
2929.760,357.98076,
2926.850,351.94774,
2923.939,368.28038,
2921.028,371.62358,
2918.118,388.78212,
2915.207,404.82277,
2912.297,402.00846,
2909.386,389.58395,
2906.476,394.2865,
2903.565,394.54964,
2900.654,384.39938,
2897.744,399.76113,
2894.833,387.18545,
2891.923,371.67299,
2889.012,386.24856,
2886.102,395.22837,
2883.191,389.0085,
2880.280,386.69855,
2877.370,359.86047,
2874.459,388.23894,
2871.549,390.18434,
2868.638,397.04536,
2865.727,413.63078,
2862.817,423.38635,
2859.906,427.74644,
2856.996,416.00906,
2854.085,405.19746,
2851.175,410.76501,
2848.264,428.9265,
2845.353,431.04313,
2842.443,432.6007,
2839.532,420.35828,
2836.622,401.18554,
2833.711,419.5259,
2830.801,426.29485,
2827.890,425.74824,
2824.979,421.49397,
2822.069,427.18195,
2819.158,445.66038,
2816.248,446.26447,
2813.337,431.94877,
2810.427,445.44078,
2807.516,449.30922,
2804.605,450.81731,
2801.695,449.47367,
2798.784,431.18277,
2795.874,438.27968,
2792.963,442.71426,
2790.052,451.99786,
2787.142,441.57892,
2784.231,442.54813,
2781.321,434.00576,
2778.410,442.77539,
2775.500,445.48793,
2772.589,450.30734,
2769.678,440.35838,
2766.768,447.17477,
2763.857,466,
2760.947,455.43381,
2758.036,467.87275,
2755.126,464.14103,
2752.215,473.2546,
2749.304,468.27699,
2746.394,453.69353,
2743.483,460.55,
2740.573,484.06647,
2737.662,467.89349,
2734.751,474.34946,
2731.841,469.86447,
2728.930,487.50858,
2726.020,483.12269,
2723.109,476.0415,
2720.199,482.17487,
2717.288,487.94889,
2714.377,482.22492,
2711.467,495.8033,
2708.556,495,
2705.646,511.05638,
2702.735,509.14689,
2699.825,495.38002,
2696.914,506.66683,
2694.003,513.97236,
2691.093,519.50059,
2688.182,522.78074,
2685.272,492.03556,
2682.361,510.30568,
2679.450,495.22643,
2676.540,514.97968,
2673.629,517.31837,
2670.719,522.71534,
2667.808,510.58363,
2664.898,517.77918,
2661.987,541.53375,
2659.076,526.57761,
2656.166,550.17749,
2653.255,541.85544,
2650.345,547.68058,
2647.434,540.85739,
2644.524,554.63311,
2641.613,563.37146,
2638.702,555.14203,
2635.792,562.75074,
2632.881,554.11314,
2629.971,547.63756,
2627.060,574.67062,
2624.149,554.48436,
2621.239,564.24259,
2618.328,569.44897,
2615.418,556.33636,
2612.507,552.5178,
2609.597,560.08184,
2606.686,577.14258,
2603.775,586.48016,
2600.865,593.11606,
2597.954,570.34159,
2595.044,605.92029,
2592.133,606.87881,
2589.223,606.69896,
2586.312,607.12062,
2583.401,599.34672,
2580.491,598.82212,
2577.580,613.0033,
2574.670,617.76737,
2571.759,610.68665,
2568.848,630.28193,
2565.938,610.47616,
2563.027,612.80456,
2560.117,628.70098,
2557.206,622.82288,
2554.296,624.71625,
2551.385,629.05796,
2548.474,646.51896,
2545.564,636.63311,
2542.653,649.31543,
2539.743,650.5801,
2536.832,634.18317,
2533.922,653.82654,
2531.011,643,
2528.100,652.59585,
2525.190,661,
2522.279,646.36004,
2519.369,671.28318,
2516.458,654.99292,
2513.548,672.08147,
2510.637,653.61483,
2507.726,668.62083,
2504.816,677.06201,
2501.905,681.30427,
2498.995,687.58197,
2496.084,677.93378,
2493.173,679.28974,
2490.263,691.58419,
2487.352,679,
2484.442,688.68305,
2481.531,700.88842,
2478.621,689.23222,
2475.710,688.11502,
2472.799,706.20624,
2469.889,702.42657,
2466.978,703.1545,
2464.068,684.10044,
2461.157,724.72758,
2458.247,707.16172,
2455.336,715.84933,
2452.425,736.37266,
2449.515,750.94388,
2446.604,755.07846,
2443.694,731.55841,
2440.783,737.80968,
2437.872,742.54697,
2434.962,754.37328,
2432.051,742.61103,
2429.141,760.77618,
2426.230,757.84749,
2423.320,761.47137,
2420.409,767.02558,
2417.498,758.23875,
2414.588,758.80984,
2411.677,776.89243,
2408.767,777.03543,
2405.856,777.55719,
2402.946,781.69079,
2400.035,799.6878,
2397.124,789.47057,
2394.214,803.48521,
2391.303,788.24865,
2388.393,805.15586,
2385.482,795.74905,
2382.571,801.31625,
2379.661,802.04662,
2376.750,807.62798,
2373.840,797.82197,
2370.929,799.91336,
2368.019,829.53081,
2365.108,810.65183,
2362.197,814.15347,
2359.287,828.18496,
2356.376,818.02113,
2353.466,835.54447,
2350.555,842.88974,
2347.645,850.94567,
2344.734,853.75574,
2341.823,861.81758,
2338.913,818.19704,
2336.002,845.23673,
2333.092,870.50567,
2330.181,879.28132,
2327.270,887.61496,
2324.360,891.86557,
2321.449,887.12244,
2318.539,876.44648,
2315.628,874.69744,
2312.718,886.48238,
2309.807,879.54651,
2306.896,896.57435,
2303.986,914.99342,
2301.075,905.0851,
2298.165,903.00954,
2295.254,880.47395,
2292.344,919.95445,
2289.433,897.36682,
2286.522,911.64728,
2283.612,908.71938,
2280.701,924.90579,
2277.791,924.68127,
2274.880,938.86004,
2271.969,939.51029,
2269.059,954.11717,
2266.148,945.51586,
2263.238,946.49807,
2260.327,977.17203,
2257.417,940.89778,
2254.506,950.23648,
2251.595,958.42543,
2248.685,973.52111,
2245.774,968.08808,
2242.864,1007.1846,
2239.953,983.73098,
2237.043,999.23428,
2234.132,995.78448,
2231.221,983.5788,
2228.311,1010.835,
2225.400,1013.5066,
2222.490,1028.2149,
2219.579,1024.8895,
2216.669,1050.9571,
2213.758,1052.8248,
2210.847,1047.3879,
2207.937,1047.9593,
2205.026,1085.2227,
2202.116,1080.4395,
2199.205,1105.3501,
2196.294,1098.504,
2193.384,1098.5525,
2190.473,1124.8815,
2187.563,1104.2948,
2184.652,1168.0122,
2181.742,1186.182,
2178.831,1193.3969,
2175.920,1236.8871,
2173.010,1267.6253,
2170.099,1302.7961,
2167.189,1361.818,
2164.278,1476.9075,
2161.368,1505.4265,
2158.457,1574.8412,
2155.546,1645.877,
2152.636,1744.3775,
2149.725,1821.604,
2146.815,1863.8655,
2143.904,1932.7955,
2140.993,1933.8729,
2138.083,1970.8116,
2135.172,1992.7817,
2132.262,1988.3319,
2129.351,1980.5725,
2126.441,1951.3106,
2123.530,1861.4725,
2120.619,1804.8169,
2117.709,1717.0044,
2114.798,1632.519,
2111.888,1544.0152,
2108.977,1460.5695,
2106.067,1411.1146,
2103.156,1341.9309,
2100.245,1293.9937,
2097.335,1280.8691,
2094.424,1253.9311,
2091.514,1241.3575,
2088.603,1251.9677,
2085.692,1242.3124,
2082.782,1237.8955,
2079.871,1225.5706,
2076.961,1228.548,
2074.050,1190.0182,
2071.140,1212.7354,
2068.229,1224.2787,
2065.318,1200.9245,
2062.408,1187.3109,
2059.497,1203.6071,
2056.587,1194.6513,
2053.676,1192.4499,
2050.766,1187.4619,
2047.855,1140.5948,
2044.944,1198.1923,
2042.034,1210.9421,
2039.123,1180.2391,
2036.213,1174.0956,
2033.302,1176.3696,
2030.391,1191.7453,
2027.481,1189.8416,
2024.570,1182.6287,
2021.660,1223.3983,
2018.749,1181.0637,
2015.839,1203.561,
2012.928,1173.1611,
2010.017,1176.0901,
2007.107,1188.3009,
2004.196,1189.75,
2001.286,1209.0636,
1998.375,1203.8661,
1995.465,1211.5857,
1992.554,1171.1768,
1989.643,1162.1037,
1986.733,1167.9465,
1983.822,1173.3479,
1980.912,1202.2071,
1978.001,1175.5844,
1975.090,1192.7893,
1972.180,1181.0705,
1969.269,1165.1322,
1966.359,1157.5675,
1963.448,1143.5033,
1960.538,1156.2302,
1957.627,1169.8081,
1954.716,1165.1724,
1951.806,1166.5032,
1948.895,1157.2551,
1945.985,1156.549,
1943.074,1148.1218,
1940.164,1157.0482,
1937.253,1132.2747,
1934.342,1101.6412,
1931.432,1123.1956,
1928.521,1119.2073,
1925.611,1140.227,
1922.700,1117.5511,
1919.790,1115.8901,
1916.879,1141.1865,
1913.968,1122.0258,
1911.058,1134.9159,
1908.147,1153.232,
1905.237,1101.7574,
1902.326,1127.9007,
1899.415,1133.0476,
1896.505,1119.1686,
1893.594,1128.3507,
1890.684,1159.1634,
1887.773,1122.4148,
1884.863,1129.631,
1881.952,1135.6552,
1879.041,1135.0519,
1876.131,1118.2693,
1873.220,1169.7878,
1870.310,1101.8835,
1867.399,1115.6801,
1864.489,1164.7663,
1861.578,1158.9066,
1858.667,1159.0269,
1855.757,1166.1957,
1852.846,1168.4872,
1849.936,1161,
1847.025,1179.6983,
1844.114,1213.1953,
1841.204,1191.2518,
1838.293,1158.5125,
1835.383,1179.9645,
1832.472,1183.2435,
1829.562,1161.3344,
1826.651,1202.8131,
1823.740,1213.0804,
1820.830,1255.2996,
1817.919,1190.8199,
1815.009,1149.0254,
1812.098,1231.1732,
1809.188,1238.1861,
1806.277,1250.7123,
1803.366,1215.1996,
1800.456,1227,
1797.545,1225.4327,
1794.635,1220.1912,
1791.724,1281.5729,
1788.813,1237.792,
1785.903,1235.9805,
1782.992,1297.8554,
1780.082,1263.8076,
1777.171,1273.0027,
1774.261,1291.0302,
1771.350,1293.5232,
1768.439,1289.6189,
1765.529,1298.9074,
1762.618,1290.4156,
1759.708,1296.0652,
1756.797,1286.0909,
1753.887,1306.0277,
1750.976,1311.7206,
1748.065,1314.361,
1745.155,1326.5548,
1742.244,1358.4583,
1739.334,1329.4941,
1736.423,1321.0112,
1733.512,1348.557,
1730.602,1364.4802,
1727.691,1367.7677,
1724.781,1418.3409,
1721.870,1433.6095,
1718.960,1409.333,
1716.049,1407.3559,
1713.138,1443.0548,
1710.228,1418.5396,
1707.317,1425.4994,
1704.407,1471.9199,
1701.496,1461.5037,
1698.586,1448.9122,
1695.675,1476.0713,
1692.764,1461.9057,
1689.854,1454.3031,
1686.943,1483.9545,
1684.033,1510.3543,
1681.122,1510.017,
1678.211,1510.9905,
1675.301,1535.9229,
1672.390,1604.1017,
1669.480,1637.6551,
1666.569,1596.3839,
1663.659,1704.6043,
1660.748,1740.8265,
1657.837,1732.3937,
1654.927,1750.5154,
1652.016,1772.1215,
1649.106,1777.5141,
1646.195,1798.8631,
1643.285,1834.6836,
1640.374,1865.9233,
1637.463,1956.7206,
1634.553,1996.6354,
1631.642,2040.1184,
1628.732,2142.634,
1625.821,2249.0864,
1622.911,2380.2562,
1620.000,2486.6519,
1617.089,2602.6716,
1614.179,2758.5442,
1611.268,2940.1593,
1608.358,3072.8194,
1605.447,3247.7728,
1602.536,3338.1423,
1599.626,3357.799,
1596.715,3285.4843,
1593.805,3302.147,
1590.894,3290.9093,
1587.984,3237.9006,
1585.073,3137.261,
1582.162,3092.6139,
1579.252,3084.5451,
1576.341,3109.634,
1573.431,3083.8899,
1570.520,3052.8331,
1567.610,3005.019,
1564.699,3004.7756,
1561.788,2945.2119,
1558.878,2894.7861,
1555.967,2817.9335,
1553.057,2748.2762,
1550.146,2721.24,
1547.235,2662.0996,
1544.325,2613.8204,
1541.414,2566.5758,
1538.504,2539.1656,
1535.593,2510.916,
1532.683,2455.7054,
1529.772,2417.044,
1526.861,2369.4463,
1523.951,2338.1999,
1521.040,2344.4634,
1518.130,2319.7176,
1515.219,2301.1997,
1512.309,2297.8783,
1509.398,2257.5779,
1506.487,2281.4874,
1503.577,2336.1255,
1500.666,2267.4038,
1497.756,2217.9655,
1494.845,2155.4792,
1491.934,2119.0976,
1489.024,2148.9349,
1486.113,2135.1646,
1483.203,2122.4538,
1480.292,2126.9396,
1477.382,2024.5442,
1474.471,2037.6016,
1471.560,2042.469,
1468.650,1995.5872,
1465.739,2012.7889,
1462.829,1992.8196,
1459.918,1970.5249,
1457.008,2005.9696,
1454.097,1990.2464,
1451.186,1958.2089,
1448.276,1984.6793,
1445.365,1969.9984,
1442.455,1951,
1439.544,1958.852,
1436.633,1989.8451,
1433.723,2001.5196,
1430.812,1951.3454,
1427.902,1892.9098,
1424.991,1889.1188,
1422.081,1900.9272,
1419.170,1868.3016,
1416.259,1886.4918,
1413.349,1879.9161,
1410.438,1839.6115,
1407.528,1837.5186,
1404.617,1840.303,
1401.707,1855.018,
1398.796,1894.1293,
1395.885,1910.9054,
1392.975,1891.9789,
1390.064,1896.3041,
1387.154,1923.6536,
1384.243,1896.7938,
1381.332,1915.996,
1378.422,1926.85,
1375.511,1982.1201,
1372.601,2072.3923,
1369.690,2043.9967,
1366.780,2130.6681,
1363.869,2205.8534,
1360.958,2296.3034,
1358.048,2365.0388,
1355.137,2422.2208,
1352.227,2441.1895,
1349.316,2455.551,
1346.406,2518.6042,
1343.495,2583.8956,
1340.584,2684.7135,
1337.674,2732.7136,
1334.763,2724.8228,
1331.853,2799.0013,
1328.942,2782.4318,
1326.032,2849.3278,
1323.121,2927.241,
1320.210,2957.657,
1317.300,2992.6921,
1314.389,3033.0143,
1311.479,3088.1356,
1308.568,3129.1754,
1305.657,3133.0146,
1302.747,3206.7548,
1299.836,3342.5111,
1296.926,3394.683,
1294.015,3516.953,
1291.105,3630.3066,
1288.194,3696.9183,
1285.283,3762.9842,
1282.373,3861.2028,
1279.462,3940.0386,
1276.552,3987.5119,
1273.641,4046.4422,
1270.731,4115.997,
1267.820,4143.7393,
1264.909,4154.615,
1261.999,4129.3675,
1259.088,4112.0372,
1256.178,4048.4787,
1253.267,3984.2963,
1250.356,3960.5502,
1247.446,3808.558,
1244.535,3646.0225,
1241.625,3546.6297,
1238.714,3461.4683,
1235.804,3383.5924,
1232.893,3300.6348,
1229.982,3254.1295,
1227.072,3198.9055,
1224.161,3149.6128,
1221.251,3135.0439,
1218.340,3054.6148,
1215.430,2963.5529,
1212.519,2938.0355,
1209.608,2958.5438,
1206.698,2966.7873,
1203.787,2981.0352,
1200.877,3031.5602,
1197.966,3056.7366,
1195.055,3102.3689,
1192.145,3199.4099,
1189.234,3302.3135,
1186.324,3338.1815,
1183.413,3385.7869,
1180.503,3398.0626,
1177.592,3291.1211,
1174.681,3265.8767,
1171.771,3203.1648,
1168.860,3210.3096,
1165.950,3159.3975,
1163.039,3150.492,
1160.129,3141.3826,
1157.218,3117.655,
1154.307,3112.2438,
1151.397,3113.7098,
1148.486,3057.0519,
1145.576,3046.0771,
1142.665,3047.8529,
1139.754,2986.1642,
1136.844,2989.5076,
1133.933,2988.2024,
1131.023,2964.0604,
1128.112,2941.5004,
1125.202,2929.9952,
1122.291,2908.1253,
1119.380,2909.3811,
1116.470,2948.2123,
1113.559,2945.2675,
1110.649,2952.8227,
1107.738,2959.6075,
1104.828,2964.3288,
1101.917,2985.2729,
1099.006,3013.1343,
1096.096,2961.8387,
1093.185,2959.2047,
1090.275,2984.8966,
1087.364,2971.7886,
1084.453,2972.5619,
1081.543,2994.8995,
1078.632,3006.7919,
1075.722,2990.2478,
1072.811,2990.3508,
1069.901,3037.5069,
1066.990,3065.2499,
1064.079,3062.8338,
1061.169,3070.5983,
1058.258,3088.4697,
1055.348,3107.6429,
1052.437,3136.4953,
1049.527,3189.7315,
1046.616,3182.7808,
1043.705,3215.9137,
1040.795,3225.3615,
1037.884,3237.1377,
1034.974,3246.393,
1032.063,3240.3308,
1029.153,3245.3862,
1026.242,3331.8819,
1023.331,3307.5018,
1020.421,3316.6391,
1017.510,3375.6659,
1014.600,3407.6955,
1011.689,3403.8372,
1008.778,3436.1162,
1005.868,3496.0193,
1002.957,3609.5861,
1000.047,3782.7921,
997.136,3910.3044,
994.226,3934.9081,
991.315,3897.0842,
988.404,3867.1645,
985.494,3805.252,
982.583,3771.8463,
979.673,3739.9291,
976.762,3730.5871,
973.852,3727.4639,
970.941,3731.2987,
968.030,3760.1678,
965.120,3811.7029,
962.209,3740.9419,
959.299,3770.0785,
956.388,3775.2408,
953.477,3772.9875,
950.567,3793.4569,
947.656,3821.106,
944.746,3806.6636,
941.835,3807.6196,
938.925,3837.6123,
936.014,3830.2378,
933.103,3809.0593,
930.193,3789.8258,
927.282,3703.4877,
924.372,3675.5826,
921.461,3640.3348,
918.551,3641.1996,
915.640,3592.6326,
912.729,3518.4886,
909.819,3520.7717,
906.908,3466.0141,
903.998,3488.4517,
901.087,3558.0141,
898.176,3589.7052,
895.266,3582.7782,
892.355,3591.9783,
889.445,3666.6731,
886.534,3712.0831,
883.624,3752.6231,
880.713,3776.1657,
877.802,3797.2009,
874.892,3809.3146,
871.981,3753.5524,
869.071,3776.9439,
866.160,3720.9735,
863.250,3708.6777,
860.339,3742.0466,
857.428,3771.3042,
854.518,3741.5316,
851.607,3690.7754,
848.697,3699.8832,
845.786,3688.2793,
842.875,3680.836,
839.965,3709.8012,
837.054,3749.2278,
834.144,3680.4414,
831.233,3674.9994,
828.323,3675.0434,
825.412,3665.5266,
822.501,3650.1276,
819.591,3628.6412,
816.680,3614.3782,
813.770,3569.6508,
810.859,3515.2181,
807.949,3475.1414,
805.038,3464.0044,
802.127,3455.7731,
799.217,3445.3099,
796.306,3442,
793.396,3455.2368,
790.485,3466.1027,
787.574,3431.1485,
784.664,3487.7362,
781.753,3461.0959,
778.843,3455.7421,
775.932,3472.395,
773.022,3479.8732,
770.111,3479.0556,
767.200,3491.9423,
764.290,3504.0903,
761.379,3469.0378,
758.469,3414.7892,
755.558,3448.2674,
752.648,3457.2281,
749.737,3432.2356,
746.826,3395.1552,
743.916,3357.2726,
741.005,3313.4277,
738.095,3193.2699,
735.184,3130.3759,
732.274,3078.9203,
729.363,3117.9186,
726.452,3272.1725,
723.542,3383.8688,
720.631,3368.5929,
717.721,3402.0992,
714.810,3412.966,
711.899,3398.5545,
708.989,3469.5639,
706.078,3399.4853,
703.168,3373.4989,
700.257,3368,
697.347,3367.7826,
694.436,3366.2581,
691.525,3338.9287,
688.615,3311.617,
685.704,3313.2459,
682.794,3324.9788,
679.883,3302.865,
676.973,3322.0979,
674.062,3340.6759,
671.151,3357.3283,
668.241,3371.0972,
665.330,3382.2479,
662.420,3408.6061,
659.509,3397.4918,
656.598,3381.076,
653.688,3379.8214,
650.777,3405.0549,
647.867,3377.1834,
644.956,3386.4788,
642.046,3378.1723,
639.135,3357.821,
636.224,3376.0477,
633.314,3385.575,
630.403,3384.4527,
627.493,3388.5293,
624.582,3409.4177,
621.672,3456.1454,
618.761,3499.0367,
615.850,3536.2435,
612.940,3552.2431,
610.029,3546.0522,
607.119,3552.3692,
604.208,3574.3004,
601.297,3586.4896,
598.387,3570.2224,
595.476,3524.9368,
592.566,3566.6514,
589.655,3583.0705,
586.745,3544.1692,
583.834,3492.0504,
580.923,3510.1185,
578.013,3529.7368,
575.102,3541.3095,
572.192,3532.4232,
569.281,3513.624,
566.371,3544.9289,
563.460,3522.6031,
560.549,3518.8219,
557.639,3550.7078,
554.728,3617.5073,
551.818,3609.7041,
548.907,3598.8588,
545.996,3625.2695,
543.086,3674.6579,
540.175,3668.4287,
537.265,3641.2017,
534.354,3663.1082,
531.444,3680.2311,
528.533,3644.6487,
525.622,3681.8942,
522.712,3707.5958,
519.801,3754.5149,
516.891,3815.9126,
513.980,3835.27,
511.070,3889.1217,
508.159,3951.1156,
505.248,4008.2692,
502.338,4047.7063,
499.427,4037.6725,
496.517,4074.0303,
493.606,4125.872,
490.695,4175.633,
487.785,4223.3601,
484.874,4203.8586,
481.964,4185.6778,
479.053,4179.713,
476.143,4174.3373,
473.232,4176.8776,
470.321,4124.9632,
467.411,4080.1435,
464.500,4113.1164,
461.590,4117.7108,
458.679,4114.5976,
455.769,4134.6298,
452.858,4190.7721,
449.947,4236.608,
447.037,4230.2242,
444.126,4232.5697,
441.216,4269.8746,
438.305,4361.3064,
435.395,4375.9669,
432.484,4361.9969,
429.573,4345.4376,
426.663,4364.4411,
423.752,4402.2658,
420.842,4393.339,
417.931,4380.1602,
415.020,4437.037,
412.110,4519.4774,
409.199,4546.555,
406.289,4555.0691,
403.378,4588.854,
400.468,4545.7623,
397.557,4545.3679,
394.646,4529.18,
391.736,4453.0282,
388.825,4516.3836,
385.915,4495.0855,
383.004,4473.9916,
380.094,4511.4185,
377.183,4558.8245,
374.272,4627.9064,
371.362,4680.2979,
368.451,4696.237,
365.541,4749.525,
362.630,4756.8989,
359.719,4747.7444,
356.809,4741.8124,
353.898,4771.7643,
350.988,4785.4249,
348.077,4785.9343,
345.167,4777.6272,
342.256,4809.7511,
339.345,4813.6857,
336.435,4809.2776,
333.524,4810.3288,
330.614,4820.761,
327.703,4818.8659,
324.793,4821.4759,
321.882,4842.9838,
318.971,4836.2928,
316.061,4886.7379,
313.150,4935.9953,
310.240,4916.7002,
307.329,4951.7318,
304.418,4946.85,
301.508,4931.2862,
298.597,4958.6816,
295.687,4929.1697,
292.776,4944.4168,
289.866,5016.5812,
286.955,5156.939,
284.044,5259.8574,
281.134,5354.6563,
278.223,5448.5504,
275.313,5548.0259,
272.402,5566.0955,
269.492,5603.9235,
266.581,5700.2474,
263.670,5843.6075,
260.760,5889.1791,
257.849,5901.7253,
254.939,5926.6773,
252.028,5976.9453,
249.117,6024.3233,
246.207,6063.3035,
243.296,6083.8005,
240.386,6030.4957,
237.475,6002.9209,
234.565,6002.664,
231.654,5981.4829,
228.743,5925.2169,
225.833,5855.2908,
222.922,5782.7962,
220.012,5778.4248,
217.101,5719.0955,
214.191,5680.6375,
211.280,5752.6563,
208.369,5666.4974,
205.459,5647.1528,
202.548,5671.8384,
199.638,5595.6452,
196.727,5623.7924,
193.816,5648.7755,
190.906,5631.5683,
187.995,5619.2599,
185.085,5643.3713,
182.174,5673.4329,
179.264,5667.6508,
176.353,5647.7766,
173.442,5616.6968,
170.532,5579.6559,
167.621,5568.1203,
164.711,5493.5228,
161.800,5345.44,
158.890,5100.7327,
155.979,4757.5995,
153.068,4350.7278,
150.158,3884.2444,
147.247,3350.8059,
144.337,2798.7143,
141.426,2213.1255,
138.516,1582.2612,
135.605,1134.6598,
132.694,781.77866,
129.784,513.73946,
126.873,332.81161,
123.963,228.84972,
121.052,158.73633,
118.141,110.191,
115.231,86.551178,
112.320,72.763641,
109.410,63.863829,
106.499,47.484259,
103.589,49.04229,
100.678,49.74054,
97.767,41.209289,
94.857,38.228044,
91.946,35.387557,
89.036,32.322613,
86.125,28.067381,
83.215,27.53092,
80.304,29.197163,
77.393,32.738013,
74.483,33,
71.572,25.752958,
68.662,13.346337,
65.751,16.878593,
62.840,18.481702,
59.930,20.872862,
57.019,27.923682,
54.109,18.848266,
51.198,13.206437,
48.288,15.97735,
45.377,13.163838,
42.466,14.061097,
39.556,16.654644,
36.645,14.548074,
33.735,12.961503,
30.824,11.337339,
27.914,9.2338133,
25.003,7.1320876,
22.092,6,
19.182,5.7940542,
16.271,-0.50135696,
13.361,13.436861,
10.450,-5.345277,
7.539,-245.56576,
4.629,-618.31131,
1.718,-972.9313,
-1.192,-1181.3775,
-4.103,-850.69034,
-7.013,-431.20211,
-9.924,1,
