,PLC2FF~1,
Raman shift [1/cm],Intensity,
3014.167,1.375,
3011.256,0.82498926,
3008.346,281.87323,
3005.435,344.14532,
3002.525,371.56516,
2999.614,364.03865,
2996.704,375.50799,
2993.793,377.48042,
2990.882,407.06194,
2987.972,405.48599,
2985.061,428.70505,
2982.151,449.74981,
2979.240,464.64116,
2976.329,480.89957,
2973.419,503.79066,
2970.508,502.85828,
2967.598,536.60673,
2964.687,512.35937,
2961.777,538.87087,
2958.866,550.04068,
2955.955,576.417,
2953.045,604.62331,
2950.134,604.50331,
2947.224,612.17572,
2944.313,613.01531,
2941.403,643.23266,
2938.492,638.06605,
2935.581,656.25101,
2932.671,667.33639,
2929.760,685.06732,
2926.850,672.57688,
2923.939,697.93105,
2921.028,709.83381,
2918.118,731.13318,
2915.207,731.67899,
2912.297,739.38769,
2909.386,743.98084,
2906.476,747.98736,
2903.565,729.27871,
2900.654,728.71574,
2897.744,712.28699,
2894.833,730.94154,
2891.923,726.01908,
2889.012,714.75072,
2886.102,709.95879,
2883.191,715.36839,
2880.280,700.78169,
2877.370,660.04368,
2874.459,651.82807,
2871.549,705.51991,
2868.638,727.83066,
2865.727,747.15965,
2862.817,729.91778,
2859.906,756.60292,
2856.996,754.39311,
2854.085,748.61449,
2851.175,763.11295,
2848.264,755.31117,
2845.353,745.3103,
2842.443,745.96873,
2839.532,738.95717,
2836.622,745.83008,
2833.711,732.5979,
2830.801,731.86397,
2827.890,736.03932,
2824.979,742.35088,
2822.069,715.72754,
2819.158,750.5556,
2816.248,754.38658,
2813.337,785.15795,
2810.427,753.45626,
2807.516,780.20937,
2804.605,752.57933,
2801.695,757.90133,
2798.784,752.11423,
2795.874,766.23516,
2792.963,754.37479,
2790.052,748.37521,
2787.142,747.79608,
2784.231,733.34397,
2781.321,718.00937,
2778.410,743.61992,
2775.500,749.97017,
2772.589,749.375,
2769.678,756.80159,
2766.768,762.94005,
2763.857,758.43088,
2760.947,779.84033,
2758.036,785.38781,
2755.126,776.84722,
2752.215,783.65223,
2749.304,794.33182,
2746.394,808.58669,
2743.483,808.275,
2740.573,809.14934,
2737.662,783.18268,
2734.751,806.16622,
2731.841,809.26694,
2728.930,810.56127,
2726.020,826.47685,
2723.109,837.10666,
2720.199,828.72814,
2717.288,829.63778,
2714.377,821.05434,
2711.467,842.24422,
2708.556,827.98132,
2705.646,844.74123,
2702.735,842.19716,
2699.825,848.98234,
2696.914,840.65997,
2694.003,866.67745,
2691.093,855.96464,
2688.182,845.5187,
2685.272,856.54286,
2682.361,844.04531,
2679.450,841.80304,
2676.540,834.49694,
2673.629,853.98031,
2670.719,878.16335,
2667.808,873.52091,
2664.898,881.19309,
2661.987,872.77473,
2659.076,856.26509,
2656.166,886.18026,
2653.255,879.55698,
2650.345,910.32782,
2647.434,911.97517,
2644.524,910.65314,
2641.613,915.51831,
2638.702,921.40656,
2635.792,909.56343,
2632.881,908.72608,
2629.971,921.2274,
2627.060,912.7075,
2624.149,912.94376,
2621.239,915.14427,
2618.328,934.95113,
2615.418,925.70682,
2612.507,938.78602,
2609.597,938.20135,
2606.686,954.56978,
2603.775,966.89882,
2600.865,972.49443,
2597.954,948.90825,
2595.044,972.76738,
2592.133,971.60442,
2589.223,976.70026,
2586.312,987.74182,
2583.401,995.27281,
2580.491,1000.0048,
2577.580,1014.342,
2574.670,997.14237,
2571.759,993.91525,
2568.848,999.36955,
2565.938,975.46995,
2563.027,1017.6682,
2560.117,1008.1226,
2557.206,1026.4968,
2554.296,1029.3453,
2551.385,1032.2591,
2548.474,1050.1159,
2545.564,1034.0081,
2542.653,1056.6166,
2539.743,1067.8688,
2536.832,1047.2311,
2533.922,1042.7535,
2531.011,1063.9002,
2528.100,1053.1102,
2525.190,1063.6053,
2522.279,1062.8274,
2519.369,1049.789,
2516.458,1074.0287,
2513.548,1058.5659,
2510.637,1048.2195,
2507.726,1077.3118,
2504.816,1075.437,
2501.905,1061.0128,
2498.995,1094.0167,
2496.084,1088.6816,
2493.173,1096.0068,
2490.263,1083.8247,
2487.352,1117.2915,
2484.442,1116.2294,
2481.531,1114.6889,
2478.621,1122.1239,
2475.710,1128.605,
2472.799,1151.2226,
2469.889,1139.5551,
2466.978,1140.9936,
2464.068,1133.5443,
2461.157,1145.8726,
2458.247,1139.6398,
2455.336,1145.375,
2452.425,1162.3137,
2449.515,1183.1858,
2446.604,1164.9579,
2443.694,1161.1653,
2440.783,1179.0946,
2437.872,1198.2811,
2434.962,1169.1123,
2432.051,1183.4926,
2429.141,1195.8162,
2426.230,1200.9187,
2423.320,1232.0182,
2420.409,1217.1058,
2417.498,1213.375,
2414.588,1225.6373,
2411.677,1249.9765,
2408.767,1220.4695,
2405.856,1246.7202,
2402.946,1230.2079,
2400.035,1242.9525,
2397.124,1232.3857,
2394.214,1242.6458,
2391.303,1258.6291,
2388.393,1261.6564,
2385.482,1289.0091,
2382.571,1272.8942,
2379.661,1278.7701,
2376.750,1308.8996,
2373.840,1301.8251,
2370.929,1317.1692,
2368.019,1309.1933,
2365.108,1325.0268,
2362.197,1322.5558,
2359.287,1317.3917,
2356.376,1355.3046,
2353.466,1342.9812,
2350.555,1334.6598,
2347.645,1340.9525,
2344.734,1375.2276,
2341.823,1338.1047,
2338.913,1354.2168,
2336.002,1372.5663,
2333.092,1376.3061,
2330.181,1389.7279,
2327.270,1418.0549,
2324.360,1368.5849,
2321.449,1378.96,
2318.539,1402.2497,
2315.628,1420.7699,
2312.718,1398.4102,
2309.807,1421.1264,
2306.896,1430.3672,
2303.986,1434.7712,
2301.075,1433.2687,
2298.165,1405.6246,
2295.254,1420.9226,
2292.344,1440.6946,
2289.433,1425.0314,
2286.522,1437.7767,
2283.612,1446.8546,
2280.701,1460.8189,
2277.791,1496.0563,
2274.880,1508.3091,
2271.969,1500.7248,
2269.059,1507.3477,
2266.148,1525.2615,
2263.238,1502.7882,
2260.327,1524.4096,
2257.417,1539.0867,
2254.506,1530.4519,
2251.595,1528.0767,
2248.685,1530.2731,
2245.774,1565.2205,
2242.864,1552.8662,
2239.953,1569.8234,
2237.043,1549.3096,
2234.132,1553.4892,
2231.221,1574.7446,
2228.311,1575.0258,
2225.400,1591.9942,
2222.490,1620.4305,
2219.579,1659.5807,
2216.669,1652.4847,
2213.758,1652.8574,
2210.847,1709.7074,
2207.937,1708.8636,
2205.026,1728.819,
2202.116,1740.6372,
2199.205,1754.9865,
2196.294,1799.1029,
2193.384,1805.586,
2190.473,1828.6884,
2187.563,1868.6698,
2184.652,1940.9721,
2181.742,2009.0344,
2178.831,2047.4724,
2175.920,2140.2512,
2173.010,2242.6301,
2170.099,2358.3646,
2167.189,2450.4657,
2164.278,2620.1569,
2161.368,2779.369,
2158.457,2956.4811,
2155.546,3077.827,
2152.636,3228.8641,
2149.725,3357.2676,
2146.815,3437.1727,
2143.904,3580.1705,
2140.993,3583.5759,
2138.083,3629.6455,
2135.172,3625.896,
2132.262,3603.3468,
2129.351,3563.4335,
2126.441,3433.3358,
2123.530,3296.9832,
2120.619,3153.5961,
2117.709,2988.0409,
2114.798,2808.9626,
2111.888,2617.2904,
2108.977,2488.62,
2106.067,2344.9605,
2103.156,2242.7479,
2100.245,2121.3537,
2097.335,2081.2336,
2094.424,2025.3649,
2091.514,1984.297,
2088.603,1972.9003,
2085.692,1962.9178,
2082.782,1951.4272,
2079.871,1895.9795,
2076.961,1893.7292,
2074.050,1914.2598,
2071.140,1886.9042,
2068.229,1855.6537,
2065.318,1850.2888,
2062.408,1858.7918,
2059.497,1851.1488,
2056.587,1841.6657,
2053.676,1778.4955,
2050.766,1804.9879,
2047.855,1824.2358,
2044.944,1793.3557,
2042.034,1827.8372,
2039.123,1775.7959,
2036.213,1789.6817,
2033.302,1805.614,
2030.391,1818.5274,
2027.481,1795.3387,
2024.570,1847.0591,
2021.660,1821.681,
2018.749,1831.5012,
2015.839,1812.7379,
2012.928,1831.1569,
2010.017,1821.0243,
2007.107,1828.2367,
2004.196,1837.3988,
2001.286,1811.1842,
1998.375,1793.375,
1995.465,1812.2536,
1992.554,1801.5987,
1989.643,1826.4072,
1986.733,1828.6461,
1983.822,1783.3373,
1980.912,1803.8802,
1978.001,1808.6125,
1975.090,1795.5933,
1972.180,1782.5825,
1969.269,1763.3548,
1966.359,1772.1861,
1963.448,1781.6445,
1960.538,1770.8254,
1957.627,1799.5825,
1954.716,1767.4379,
1951.806,1738.4182,
1948.895,1759.2677,
1945.985,1761.6985,
1943.074,1739.8032,
1940.164,1715.0383,
1937.253,1715.2748,
1934.342,1724.8451,
1931.432,1712.1384,
1928.521,1691.7377,
1925.611,1668.518,
1922.700,1697.1982,
1919.790,1698.6236,
1916.879,1683.4212,
1913.968,1684.3725,
1911.058,1711.9786,
1908.147,1706.7735,
1905.237,1710.1691,
1902.326,1709.6832,
1899.415,1690.5177,
1896.505,1705.267,
1893.594,1725.9389,
1890.684,1691.9567,
1887.773,1707.6591,
1884.863,1726.3044,
1881.952,1702.7778,
1879.041,1706.2613,
1876.131,1734.1776,
1873.220,1700.1492,
1870.310,1689.7338,
1867.399,1728.7353,
1864.489,1700.1928,
1861.578,1718.8806,
1858.667,1708.3361,
1855.757,1733.1686,
1852.846,1742.8878,
1849.936,1747.6543,
1847.025,1767.482,
1844.114,1797.2691,
1841.204,1784.8086,
1838.293,1785.9024,
1835.383,1784.677,
1832.472,1811.015,
1829.562,1801.2109,
1826.651,1785.5886,
1823.740,1816.8617,
1820.830,1791.5636,
1817.919,1795.8482,
1815.009,1814.7872,
1812.098,1829.0443,
1809.188,1874.4602,
1806.277,1840.216,
1803.366,1821.558,
1800.456,1835.0129,
1797.545,1882.772,
1794.635,1905.988,
1791.724,1900.8993,
1788.813,1884.5701,
1785.903,1882.0377,
1782.992,1917.2051,
1780.082,1888.6258,
1777.171,1874.0485,
1774.261,1897.55,
1771.350,1900.707,
1768.439,1923.1427,
1765.529,1968.5621,
1762.618,1989.8137,
1759.708,1966.6684,
1756.797,1977.2765,
1753.887,1991.5543,
1750.976,1967.5576,
1748.065,1973.2659,
1745.155,1974.2396,
1742.244,1998.4954,
1739.334,2019.8526,
1736.423,2052.0497,
1733.512,2046.9115,
1730.602,2027.6587,
1727.691,2060.2227,
1724.781,2072.1616,
1721.870,2083.6417,
1718.960,2098.7085,
1716.049,2078.7227,
1713.138,2104.2999,
1710.228,2105.0235,
1707.317,2188.4093,
1704.407,2152.6583,
1701.496,2170.1637,
1698.586,2234.282,
1695.675,2246.8607,
1692.764,2231.2807,
1689.854,2242.812,
1686.943,2261.7342,
1684.033,2297.4809,
1681.122,2313.1201,
1678.211,2354.9753,
1675.301,2421.1715,
1672.390,2390.5604,
1669.480,2452.9606,
1666.569,2526.251,
1663.659,2595.5346,
1660.748,2667.7081,
1657.837,2787.2279,
1654.927,2825.047,
1652.016,2813.8535,
1649.106,2913.2526,
1646.195,2911.1563,
1643.285,3025.7878,
1640.374,3086.1241,
1637.463,3077.5456,
1634.553,3252.5473,
1631.642,3398.3196,
1628.732,3485.3053,
1625.821,3641.5137,
1622.911,3852.1804,
1620.000,3967.9135,
1617.089,4287.9073,
1614.179,4485.8194,
1611.268,4733.0433,
1608.358,4959.6993,
1605.447,5073.1473,
1602.536,5200.5203,
1599.626,5233.2933,
1596.715,5219.9458,
1593.805,5179.0244,
1590.894,5139.1482,
1587.984,5138.7055,
1585.073,5102.7899,
1582.162,5077.1726,
1579.252,5080.7397,
1576.341,5003.8708,
1573.431,4929.5528,
1570.520,4918.1969,
1567.610,4932.787,
1564.699,4858.3468,
1561.788,4819.9244,
1558.878,4746.7332,
1555.967,4611.3113,
1553.057,4526.4788,
1550.146,4445.6915,
1547.235,4396.9298,
1544.325,4328.1665,
1541.414,4253.9122,
1538.504,4181.5362,
1535.593,4101.7517,
1532.683,4017.7604,
1529.772,3942.5565,
1526.861,3911.9261,
1523.951,3871.7937,
1521.040,3805.5059,
1518.130,3748.3682,
1515.219,3685.6565,
1512.309,3641.5417,
1509.398,3661.2116,
1506.487,3623.7691,
1503.577,3599.2209,
1500.666,3648.0926,
1497.756,3572.8399,
1494.845,3457.2149,
1491.934,3453.2459,
1489.024,3413.7837,
1486.113,3431.8465,
1483.203,3378.3086,
1480.292,3384.1027,
1477.382,3288.577,
1474.471,3220.867,
1471.560,3220.437,
1468.650,3189.8448,
1465.739,3133.0241,
1462.829,3113.9559,
1459.918,3126.3198,
1457.008,3151.6368,
1454.097,3130.9402,
1451.186,3096.5239,
1448.276,3111.5888,
1445.365,3116.3395,
1442.455,3117.555,
1439.544,3107.523,
1436.633,3082.8219,
1433.723,3095.1227,
1430.812,3094.7599,
1427.902,3022.5485,
1424.991,2945.7797,
1422.081,2915.8507,
1419.170,2945.3452,
1416.259,2866.9385,
1413.349,2838.3121,
1410.438,2873.1631,
1407.528,2870.0627,
1404.617,2890.4928,
1401.707,2899.6564,
1398.796,2903.0078,
1395.885,2925.9892,
1392.975,2935.7292,
1390.064,2939.9067,
1387.154,2946.0384,
1384.243,2936.6505,
1381.332,2934.2403,
1378.422,2987.8479,
1375.511,3113.3765,
1372.601,3184.4928,
1369.690,3320.6728,
1366.780,3443.7555,
1363.869,3511.0577,
1360.958,3541.56,
1358.048,3614.6393,
1355.137,3709.315,
1352.227,3793.2641,
1349.316,3879.4244,
1346.406,3955.1475,
1343.495,3994.8315,
1340.584,4053.8021,
1337.674,4160.5223,
1334.763,4228.9396,
1331.853,4243.7753,
1328.942,4319.09,
1326.032,4365.0779,
1323.121,4462.2907,
1320.210,4551.976,
1317.300,4636.8568,
1314.389,4738.0707,
1311.479,4823.5884,
1308.568,4884.3143,
1305.657,4940.5228,
1302.747,4989.8838,
1299.836,5126.6996,
1296.926,5304.5197,
1294.015,5393.6941,
1291.105,5613.1077,
1288.194,5741.4191,
1285.283,5915.3036,
1282.373,6038.9216,
1279.462,6118.6487,
1276.552,6199.8319,
1273.641,6245.0237,
1270.731,6249.8989,
1267.820,6300.8149,
1264.909,6326.1003,
1261.999,6328.5122,
1259.088,6250.0698,
1256.178,6168.2939,
1253.267,6032.6237,
1250.356,5872.1148,
1247.446,5701.8968,
1244.535,5511.8798,
1241.625,5347.1048,
1238.714,5210.6594,
1235.804,5041.6422,
1232.893,4903.3966,
1229.982,4803.4125,
1227.072,4745.4725,
1224.161,4711.1169,
1221.251,4591.4651,
1218.340,4530.9972,
1215.430,4502.8589,
1212.519,4448.1739,
1209.608,4402.2731,
1206.698,4403.2472,
1203.787,4395.3449,
1200.877,4450.6566,
1197.966,4471.3372,
1195.055,4563.6726,
1192.145,4710.1088,
1189.234,4815.6591,
1186.324,4918.1089,
1183.413,5008.9385,
1180.503,5039.2338,
1177.592,4996.3241,
1174.681,4922.4778,
1171.771,4847.0247,
1168.860,4831.8422,
1165.950,4731.2014,
1163.039,4666.1692,
1160.129,4631.8591,
1157.218,4593.4538,
1154.307,4543.9686,
1151.397,4505.7255,
1148.486,4486.983,
1145.576,4437.1392,
1142.665,4385.6403,
1139.754,4384.6295,
1136.844,4315.3447,
1133.933,4229.6569,
1131.023,4216.8124,
1128.112,4246.0179,
1125.202,4242.4765,
1122.291,4237.3858,
1119.380,4265.5482,
1116.470,4283.1988,
1113.559,4291.561,
1110.649,4267.836,
1107.738,4254.9108,
1104.828,4271.6029,
1101.917,4283.7237,
1099.006,4265.3851,
1096.096,4296.6549,
1093.185,4268.5588,
1090.275,4281.7511,
1087.364,4268.9081,
1084.453,4251.2506,
1081.543,4256.0834,
1078.632,4264.5401,
1075.722,4243.2377,
1072.811,4227.8571,
1069.901,4262.7875,
1066.990,4282.35,
1064.079,4283.6529,
1061.169,4348.0988,
1058.258,4400.528,
1055.348,4425.5373,
1052.437,4493.9506,
1049.527,4523.3484,
1046.616,4548.5445,
1043.705,4562.1657,
1040.795,4580.0606,
1037.884,4609.616,
1034.974,4645.6443,
1032.063,4663.2676,
1029.153,4646.5149,
1026.242,4722.631,
1023.331,4727.8748,
1020.421,4738.1344,
1017.510,4767.5874,
1014.600,4803.4463,
1011.689,4839.9136,
1008.778,4892.7954,
1005.868,4990.5527,
1002.957,5233.1726,
1000.047,5373.023,
997.136,5526.4908,
994.226,5607.8211,
991.315,5577.0161,
988.404,5499.8626,
985.494,5470.3776,
982.583,5425.8367,
979.673,5392.3041,
976.762,5365.9361,
973.852,5366.3093,
970.941,5375.7438,
968.030,5364.7797,
965.120,5378.4251,
962.209,5390.3607,
959.299,5423.538,
956.388,5378.1387,
953.477,5398.9615,
950.567,5487.3166,
947.656,5461.4702,
944.746,5416.4438,
941.835,5449.197,
938.925,5461.9814,
936.014,5445.6594,
933.103,5442.5581,
930.193,5440.4115,
927.282,5320.375,
924.372,5320.375,
921.461,5205.4966,
918.551,5146.947,
915.640,5108.8784,
912.729,5062.0306,
909.819,5021.7027,
906.908,4971.1572,
903.998,4967.5796,
901.087,5027.2066,
898.176,5077.5996,
895.266,5147.4284,
892.355,5262.9874,
889.445,5282.2905,
886.534,5335.8068,
883.624,5332.2455,
880.713,5360.5896,
877.802,5416.9555,
874.892,5439.1519,
871.981,5349.592,
869.071,5358.7815,
866.160,5384.5236,
863.250,5383.8425,
860.339,5371.2272,
857.428,5361.827,
854.518,5336.1845,
851.607,5260.4662,
848.697,5231.5552,
845.786,5201.0215,
842.875,5201.047,
839.965,5232.5738,
837.054,5192.6076,
834.144,5213.3264,
831.233,5202.0428,
828.323,5177.5596,
825.412,5154.5797,
822.501,5136.1195,
819.591,5101.4108,
816.680,5009.0287,
813.770,5005.1701,
810.859,5000.5816,
807.949,4957.3968,
805.038,4896.2666,
802.127,4911.906,
799.217,4830.6366,
796.306,4786.483,
793.396,4775.543,
790.485,4782.8501,
787.574,4803.9355,
784.664,4818.6975,
781.753,4801.2455,
778.843,4824.2105,
775.932,4873.1896,
773.022,4901.4299,
770.111,4869.5443,
767.200,4843.7743,
764.290,4873.9371,
761.379,4885.2264,
758.469,4857.236,
755.558,4845.0832,
752.648,4835.308,
749.737,4806.6106,
746.826,4761.1382,
743.916,4681.5367,
741.005,4557.3704,
738.095,4459.9452,
735.184,4251.7336,
732.274,4217.0245,
729.363,4339.7602,
726.452,4520.6007,
723.542,4610.4434,
720.631,4761.402,
717.721,4771.4314,
714.810,4758.3181,
711.899,4769.2166,
708.989,4725.6426,
706.078,4709.3489,
703.168,4695.6595,
700.257,4660.495,
697.347,4616.3318,
694.436,4605.4186,
691.525,4607.0263,
688.615,4626.8712,
685.704,4659.0963,
682.794,4680.29,
679.883,4661.4563,
676.973,4685.4974,
674.062,4660.3851,
671.151,4618.8285,
668.241,4605.7201,
665.330,4664.0347,
662.420,4656.8461,
659.509,4675.0579,
656.598,4663.4393,
653.688,4642.1166,
650.777,4670.5379,
647.867,4645.8518,
644.956,4642.8516,
642.046,4643.9604,
639.135,4635.6195,
636.224,4606.7092,
633.314,4673.4,
630.403,4722.3004,
627.493,4738.2298,
624.582,4738.0864,
621.672,4781.6461,
618.761,4814.5325,
615.850,4809.4983,
612.940,4838.7007,
610.029,4916.5337,
607.119,4905.4789,
604.208,4869.5843,
601.297,4895.7549,
598.387,4920.6102,
595.476,4885.9803,
592.566,4934.7785,
589.655,4906.4453,
586.745,4877.6956,
583.834,4850.5649,
580.923,4794.4461,
578.013,4806.2171,
575.102,4815.1109,
572.192,4832.9518,
569.281,4853.5788,
566.371,4832.448,
563.460,4896.689,
560.549,4943.3789,
557.639,4955.5867,
554.728,4937.3313,
551.818,4984.1502,
548.907,5040.081,
545.996,5046.4364,
543.086,5010.8783,
540.175,5013.2142,
537.265,5061.1774,
534.354,5110.9815,
531.444,5160.7664,
528.533,5211.0789,
525.622,5249.1003,
522.712,5294.9937,
519.801,5347.2523,
516.891,5404.1129,
513.980,5462.1851,
511.070,5528.6532,
508.159,5621.7119,
505.248,5717.9076,
502.338,5787.1598,
499.427,5848.1345,
496.517,5933.385,
493.606,6009.2564,
490.695,6052.2353,
487.785,6036.8395,
484.874,6097.7049,
481.964,6112.0264,
479.053,6071.7919,
476.143,6023.4103,
473.232,5995.1959,
470.321,6004.8381,
467.411,6010.4326,
464.500,5966.5495,
461.590,5973.4412,
458.679,6007.2921,
455.769,6036.8407,
452.858,6050.022,
449.947,6104.2611,
447.037,6105.0601,
444.126,6100.2235,
441.216,6097.5543,
438.305,6064.0293,
435.395,6084.2892,
432.484,6088.6232,
429.573,6087.7351,
426.663,6136.3841,
423.752,6101.3195,
420.842,6060.1706,
417.931,6054.8611,
415.020,6137.5221,
412.110,6256.7015,
409.199,6327.7368,
406.289,6344.83,
403.378,6306.4339,
400.468,6323.8218,
397.557,6357.6532,
394.646,6355.8244,
391.736,6278.3991,
388.825,6279.1534,
385.915,6307.0491,
383.004,6348.5076,
380.094,6395.4059,
377.183,6474.4159,
374.272,6524.0568,
371.362,6583.8716,
368.451,6672.4236,
365.541,6689.6859,
362.630,6749.5453,
359.719,6802.7742,
356.809,6819.9672,
353.898,6813.228,
350.988,6839.0418,
348.077,6862.6654,
345.167,6865.759,
342.256,6912.8243,
339.345,6930.6265,
336.435,6954.3617,
333.524,7004.9422,
330.614,6959.4877,
327.703,7010.5775,
324.793,7074.9529,
321.882,7082.3714,
318.971,7080.8845,
316.061,7104.7907,
313.150,7144.4631,
310.240,7189.7321,
307.329,7273.5582,
304.418,7329.6286,
301.508,7354.815,
298.597,7345.1896,
295.687,7336.9254,
292.776,7416.7088,
289.866,7567.7826,
286.955,7731.0409,
284.044,7991.5623,
281.134,8215.6521,
278.223,8375.8476,
275.313,8467.9545,
272.402,8665.7123,
269.492,8876.123,
266.581,9056.3163,
263.670,9111.4548,
260.760,9228.195,
257.849,9391.7174,
254.939,9595.7367,
252.028,9659.9018,
249.117,9701.1913,
246.207,9715.1774,
243.296,9687.36,
240.386,9706.5767,
237.475,9661.1311,
234.565,9553.1552,
231.654,9450.1711,
228.743,9378.318,
225.833,9302.0434,
222.922,9210.4725,
220.012,9169.6734,
217.101,9114.6642,
214.191,9068.3152,
211.280,9058.1307,
208.369,9048.6284,
205.459,9012.8342,
202.548,8970.1383,
199.638,8997.7129,
196.727,9058.1155,
193.816,9067.0686,
190.906,8996.7621,
187.995,9064.8204,
185.085,9169.7062,
182.174,9256.6532,
179.264,9242.9207,
176.353,9259.9576,
173.442,9271.4627,
170.532,9263.1261,
167.621,9175.1671,
164.711,9071.4887,
161.800,8894.6793,
158.890,8588.0753,
155.979,8059.1564,
153.068,7417.961,
150.158,6664.2706,
147.247,5746.7276,
144.337,4791.2349,
141.426,3817.7209,
138.516,2832.7124,
135.605,2027.7716,
132.694,1373.6135,
129.784,873.20899,
126.873,585.01167,
123.963,407.43934,
121.052,284.23016,
118.141,200.70363,
115.231,154.18793,
112.320,126.90228,
109.410,113.05696,
106.499,100.95032,
103.589,87.16991,
100.678,75.387161,
97.767,67.566848,
94.857,59.059131,
91.946,54.568778,
89.036,52.584715,
86.125,47.620278,
83.215,49.029602,
80.304,48.022942,
77.393,38.108563,
74.483,34.099325,
71.572,33.099704,
68.662,33.890128,
65.751,28.94497,
62.840,24.96649,
59.930,22.187714,
57.019,21.482632,
54.109,18.389196,
51.198,20.295921,
48.288,29.341025,
45.377,25.120757,
42.466,20.489465,
39.556,17.295949,
36.645,22.91347,
33.735,17.62477,
30.824,12.037661,
27.914,14.141187,
25.003,15.620275,
22.092,14.437573,
19.182,10.489414,
16.271,13.986865,
13.361,-8.2266467,
10.450,-77.643446,
7.539,-292.72458,
4.629,-678.55666,
1.718,-997.24677,
-1.192,-1028.6183,
-4.103,-706.91415,
-7.013,-345.52588,
-9.924,0.375,
