,PLA93A~1,
Wavenumbers [1/cm],Intensity,
3014.167,-0.5,
3011.256,-0.99989263,
3008.346,243.43112,
3005.435,292.65194,
3002.525,295.38758,
2999.614,335.41037,
2996.704,318.00413,
2993.793,344.36694,
2990.882,355.01906,
2987.972,319.62612,
2985.061,362.67736,
2982.151,381.09663,
2979.240,398.33461,
2976.329,394.50546,
2973.419,434.0086,
2970.508,421.7832,
2967.598,439.40442,
2964.687,444.18614,
2961.777,446.97004,
2958.866,463.5,
2955.955,469.57079,
2953.045,486.80203,
2950.134,499.07434,
2947.224,493.72416,
2944.313,537.74715,
2941.403,543.97628,
2938.492,549.63821,
2935.581,546.79571,
2932.671,542.58156,
2929.760,557.98463,
2926.850,564.5,
2923.939,576.14019,
2921.028,563.17046,
2918.118,587.66121,
2915.207,608.68368,
2912.297,582.64386,
2909.386,592.11313,
2906.476,610.39886,
2903.565,574.51704,
2900.654,573.56975,
2897.744,588.23598,
2894.833,570.79891,
2891.923,575.5,
2889.012,543.83526,
2886.102,530.85541,
2883.191,504.52077,
2880.280,350.49994,
2877.370,126.9596,
2874.459,52.745941,
2871.549,263.34336,
2868.638,518.1081,
2865.727,537.71535,
2862.817,579.00132,
2859.906,576.89315,
2856.996,599.97962,
2854.085,615.9433,
2851.175,605.92772,
2848.264,623.33366,
2845.353,652.52948,
2842.443,623.67354,
2839.532,649.60446,
2836.622,648.67969,
2833.711,634.81868,
2830.801,615.31323,
2827.890,638.31294,
2824.979,650.77193,
2822.069,661.47726,
2819.158,661.02022,
2816.248,663.5,
2813.337,671.43782,
2810.427,664.7066,
2807.516,689.39203,
2804.605,677.45673,
2801.695,672.89474,
2798.784,670.86962,
2795.874,672.48943,
2792.963,675.4284,
2790.052,654.50365,
2787.142,657.85527,
2784.231,668.43477,
2781.321,665.5,
2778.410,666.32995,
2775.500,674.39276,
2772.589,664.57646,
2769.678,670.49652,
2766.768,676.57183,
2763.857,694.23603,
2760.947,689.51261,
2758.036,691.5,
2755.126,694.59829,
2752.215,692.35007,
2749.304,684.41548,
2746.394,701.85073,
2743.483,707.35008,
2740.573,696.93586,
2737.662,709.60651,
2734.751,698.12634,
2731.841,727.17767,
2728.930,717.52114,
2726.020,711.70891,
2723.109,730.75725,
2720.199,730.85314,
2717.288,744.81388,
2714.377,731.50458,
2711.467,711.59781,
2708.556,754.74421,
2705.646,757.97884,
2702.735,732.85053,
2699.825,745.58726,
2696.914,777.12005,
2694.003,755.88536,
2691.093,753.58906,
2688.182,742.91778,
2685.272,756.97795,
2682.361,763.28821,
2679.450,753.88276,
2676.540,765.19514,
2673.629,758.46408,
2670.719,777.71165,
2667.808,779.5,
2664.898,786.75973,
2661.987,785.23329,
2659.076,765.17027,
2656.166,788.45234,
2653.255,789.31802,
2650.345,811.07714,
2647.434,814.55687,
2644.524,809.9053,
2641.613,815.07134,
2638.702,807.59469,
2635.792,802.34347,
2632.881,813.73794,
2629.971,803.05023,
2627.060,832.66906,
2624.149,818.09374,
2621.239,845.29299,
2618.328,815.54239,
2615.418,821.14546,
2612.507,822.43284,
2609.597,841.11278,
2606.686,841.33132,
2603.775,844.6627,
2600.865,855.02902,
2597.954,858.69166,
2595.044,867.12534,
2592.133,866.71646,
2589.223,865.84948,
2586.312,875.47489,
2583.401,880.37595,
2580.491,891.77404,
2577.580,896.5033,
2574.670,897.66979,
2571.759,877.33306,
2568.848,892.13551,
2565.938,879.59523,
2563.027,879.76819,
2560.117,901.37855,
2557.206,912.69188,
2554.296,923.32838,
2551.385,919.87197,
2548.474,906.64795,
2545.564,908.31007,
2542.653,932.95302,
2539.743,922.03081,
2536.832,915.7243,
2533.922,927.64192,
2531.011,939.79972,
2528.100,933.57312,
2525.190,924.45287,
2522.279,921.96898,
2519.369,929.99066,
2516.458,943.17847,
2513.548,946.79105,
2510.637,954.19259,
2507.726,941.06875,
2504.816,927.56314,
2501.905,936.36951,
2498.995,948.44028,
2496.084,950.56622,
2493.173,963.57914,
2490.263,977.27516,
2487.352,1000.3748,
2484.442,1000.6328,
2481.531,990.59592,
2478.621,982.17775,
2475.710,1004.4463,
2472.799,997.99327,
2469.889,1006.2867,
2466.978,1001.2321,
2464.068,990.75395,
2461.157,1016.4951,
2458.247,995.5,
2455.336,1009.3493,
2452.425,1012.934,
2449.515,1018.2173,
2446.604,1029.7949,
2443.694,1044.1982,
2440.783,1049.8322,
2437.872,1062.1718,
2434.962,1051.924,
2432.051,1069.4449,
2429.141,1049.7947,
2426.230,1066.1531,
2423.320,1085.2004,
2420.409,1077.3331,
2417.498,1098.8848,
2414.588,1090.2377,
2411.677,1104.8586,
2408.767,1109.188,
2405.856,1088.3405,
2402.946,1088.6609,
2400.035,1109.4812,
2397.124,1093.2754,
2394.214,1092.1488,
2391.303,1090.2846,
2388.393,1106.9093,
2385.482,1100.1169,
2382.571,1049.1581,
2379.661,1072.2206,
2376.750,1109.5517,
2373.840,1112.5,
2370.929,1152.0668,
2368.019,1158.4637,
2365.108,1153.0131,
2362.197,1148.0562,
2359.287,1165.6766,
2356.376,1185.4701,
2353.466,1159.5617,
2350.555,1152.9803,
2347.645,1184.0775,
2344.734,1181.3156,
2341.823,1184.3839,
2338.913,1205.7701,
2336.002,1198.5119,
2333.092,1218.316,
2330.181,1219.7455,
2327.270,1206.2701,
2324.360,1228.3985,
2321.449,1248.653,
2318.539,1228.2859,
2315.628,1237.3309,
2312.718,1247.2665,
2309.807,1232.6802,
2306.896,1234.0978,
2303.986,1272.3701,
2301.075,1258.0745,
2298.165,1252.4905,
2295.254,1276.983,
2292.344,1261.3879,
2289.433,1276.0791,
2286.522,1264.2812,
2283.612,1315.9031,
2280.701,1299.0158,
2277.791,1274.0228,
2274.880,1312.426,
2271.969,1327.6235,
2269.059,1335.4727,
2266.148,1332.9591,
2263.238,1324.5039,
2260.327,1341.81,
2257.417,1320.445,
2254.506,1351.913,
2251.595,1334.3509,
2248.685,1379.2729,
2245.774,1401.6098,
2242.864,1345.6297,
2239.953,1350.4586,
2237.043,1372.1893,
2234.132,1383.3416,
2231.221,1403.0815,
2228.311,1389.1444,
2225.400,1415.9222,
2222.490,1430.6857,
2219.579,1442.099,
2216.669,1445.0835,
2213.758,1451.6347,
2210.847,1462.0819,
2207.937,1478.7671,
2205.026,1467.721,
2202.116,1509.104,
2199.205,1529.6751,
2196.294,1529.624,
2193.384,1536.184,
2190.473,1560.8075,
2187.563,1578.6305,
2184.652,1610.3196,
2181.742,1662.6168,
2178.831,1720.7412,
2175.920,1754.6385,
2173.010,1853.0057,
2170.099,1903.8973,
2167.189,2021.9449,
2164.278,2100.5211,
2161.368,2245.4944,
2158.457,2402.4391,
2155.546,2537.9809,
2152.636,2685.2072,
2149.725,2799.8959,
2146.815,2927.6292,
2143.904,3051.8048,
2140.993,3084.9177,
2138.083,3170.8191,
2135.172,3233.6935,
2132.262,3265.493,
2129.351,3252.6827,
2126.441,3158.4997,
2123.530,3049.9511,
2120.619,2899.6015,
2117.709,2769.5189,
2114.798,2595.8917,
2111.888,2426.4287,
2108.977,2251.4072,
2106.067,2140.6217,
2103.156,1995.8037,
2100.245,1917.4586,
2097.335,1840.1806,
2094.424,1759.1754,
2091.514,1747.6961,
2088.603,1697.5646,
2085.692,1687.3215,
2082.782,1654.5043,
2079.871,1639.1429,
2076.961,1636.6937,
2074.050,1638.5909,
2071.140,1586.3272,
2068.229,1600.6146,
2065.318,1572.2655,
2062.408,1570.5454,
2059.497,1566.2976,
2056.587,1583.9416,
2053.676,1570.268,
2050.766,1553.5007,
2047.855,1541.1583,
2044.944,1532.8253,
2042.034,1554.737,
2039.123,1555.1599,
2036.213,1547.4244,
2033.302,1544.4782,
2030.391,1551.4322,
2027.481,1543.5733,
2024.570,1551.4569,
2021.660,1577.9626,
2018.749,1580.576,
2015.839,1576.1778,
2012.928,1539.8675,
2010.017,1560.3437,
2007.107,1570.4065,
2004.196,1555.7262,
2001.286,1558.3975,
1998.375,1517.3976,
1995.465,1529.3241,
1992.554,1530.6118,
1989.643,1537.2235,
1986.733,1528.7675,
1983.822,1529.4092,
1980.912,1504.9555,
1978.001,1504.3052,
1975.090,1488.7412,
1972.180,1469.6037,
1969.269,1491.9742,
1966.359,1508.9054,
1963.448,1491.4287,
1960.538,1516.3374,
1957.627,1496.7508,
1954.716,1505.1553,
1951.806,1510.1587,
1948.895,1489.8562,
1945.985,1516.0833,
1943.074,1486.1567,
1940.164,1503.1825,
1937.253,1468.1438,
1934.342,1447.0043,
1931.432,1450.9637,
1928.521,1432.7193,
1925.611,1446.727,
1922.700,1442.2541,
1919.790,1407.4946,
1916.879,1453.6638,
1913.968,1466.4889,
1911.058,1396.8964,
1908.147,1408.611,
1905.237,1436.3896,
1902.326,1391.4555,
1899.415,1374.9439,
1896.505,1332.205,
1893.594,1371.2165,
1890.684,1402.8267,
1887.773,1410.7673,
1884.863,1417.7916,
1881.952,1458.7696,
1879.041,1422.3022,
1876.131,1413.6438,
1873.220,1425.0885,
1870.310,1391.2265,
1867.399,1415.0682,
1864.489,1446.5515,
1861.578,1470.5386,
1858.667,1450.3264,
1855.757,1440.1122,
1852.846,1428.5103,
1849.936,1434.5,
1847.025,1454.6095,
1844.114,1482.6482,
1841.204,1482.1294,
1838.293,1495.5033,
1835.383,1486.942,
1832.472,1482.093,
1829.562,1493.9984,
1826.651,1510.7567,
1823.740,1515.5,
1820.830,1539.4215,
1817.919,1488.6793,
1815.009,1514.0305,
1812.098,1516.0118,
1809.188,1501.4303,
1806.277,1500.5,
1803.366,1520.9991,
1800.456,1551.3793,
1797.545,1562.6279,
1794.635,1529.9181,
1791.724,1566.335,
1788.813,1558.6913,
1785.903,1526.5756,
1782.992,1484.7473,
1780.082,1362.6829,
1777.171,1230.8271,
1774.261,1260.4261,
1771.350,1438.3778,
1768.439,1563.5417,
1765.529,1584.1418,
1762.618,1610.77,
1759.708,1607.6087,
1756.797,1616.803,
1753.887,1630.6545,
1750.976,1642.038,
1748.065,1653.1021,
1745.155,1650.1968,
1742.244,1638.2165,
1739.334,1682.4294,
1736.423,1686.8365,
1733.512,1702.7846,
1730.602,1705.5159,
1727.691,1706.5706,
1724.781,1736.6033,
1721.870,1758.9858,
1718.960,1750.9888,
1716.049,1758.5677,
1713.138,1804.1048,
1710.228,1824.5545,
1707.317,1796.4246,
1704.407,1770.9385,
1701.496,1817.7236,
1698.586,1851.1435,
1695.675,1898.414,
1692.764,1856.0574,
1689.854,1893.6811,
1686.943,1876.1745,
1684.033,1966.1902,
1681.122,1934.0947,
1678.211,1933.5,
1675.301,2001.2903,
1672.390,2030.6884,
1669.480,2093.8209,
1666.569,2134.0205,
1663.659,2174.157,
1660.748,2155.7367,
1657.837,2270.2217,
1654.927,2302.2891,
1652.016,2296.829,
1649.106,2430.3531,
1646.195,2425.2912,
1643.285,2460.0521,
1640.374,2569.939,
1637.463,2592.3555,
1634.553,2695.7462,
1631.642,2846.7595,
1628.732,2962.8569,
1625.821,3190.6551,
1622.911,3426.1645,
1620.000,3528.2149,
1617.089,3853.9129,
1614.179,4045.1418,
1611.268,4323.9415,
1608.358,4593.7641,
1605.447,4708.3294,
1602.536,4780.664,
1599.626,4825.0571,
1596.715,4821.2392,
1593.805,4825.866,
1590.894,4719.9389,
1587.984,4701.1695,
1585.073,4611.1642,
1582.162,4542.0673,
1579.252,4494.6764,
1576.341,4492.1074,
1573.431,4486.4514,
1570.520,4432.5224,
1567.610,4429.912,
1564.699,4361.997,
1561.788,4214.0786,
1558.878,4201.7347,
1555.967,4147.4875,
1553.057,4034.587,
1550.146,3940.4928,
1547.235,3835.2995,
1544.325,3777.1481,
1541.414,3743.9571,
1538.504,3651.1367,
1535.593,3554.3375,
1532.683,3509.5557,
1529.772,3462.2943,
1526.861,3416.4884,
1523.951,3406.791,
1521.040,3387.2783,
1518.130,3359.0365,
1515.219,3324.5005,
1512.309,3298.3243,
1509.398,3253.0916,
1506.487,3162.7449,
1503.577,3095.6147,
1500.666,3116.2542,
1497.756,3088.2116,
1494.845,3057.8586,
1491.934,2994.4118,
1489.024,2967.462,
1486.113,2944.2468,
1483.203,2869.6703,
1480.292,2813.8319,
1477.382,2769.1288,
1474.471,2709.853,
1471.560,2656.0397,
1468.650,2625.1014,
1465.739,2611.7356,
1462.829,2603.7255,
1459.918,2579.5053,
1457.008,2557.423,
1454.097,2517.8381,
1451.186,2519.9178,
1448.276,2576.9172,
1445.365,2580.8586,
1442.455,2572.2613,
1439.544,2516.8579,
1436.633,2568.5973,
1433.723,2569.901,
1430.812,2510.9777,
1427.902,2528.8461,
1424.991,2501.3609,
1422.081,2519.767,
1419.170,2619.1388,
1416.259,2586.7063,
1413.349,2554.3533,
1410.438,2527.9062,
1407.528,2535.5935,
1404.617,2511.6208,
1401.707,2488.5,
1398.796,2479.5315,
1395.885,2495.5435,
1392.975,2525.7706,
1390.064,2494.6642,
1387.154,2452.7713,
1384.243,2463.1551,
1381.332,2465.2626,
1378.422,2502.8424,
1375.511,2645.2331,
1372.601,2719.3825,
1369.690,2736.6439,
1366.780,2858.0973,
1363.869,2909.1149,
1360.958,2941.5882,
1358.048,3052.3964,
1355.137,3111.6147,
1352.227,3146.1342,
1349.316,3241.3818,
1346.406,3321.1635,
1343.495,3354.1917,
1340.584,3414.4993,
1337.674,3470.4697,
1334.763,3554.2057,
1331.853,3572.7503,
1328.942,3631.3152,
1326.032,3768.1837,
1323.121,3824.1747,
1320.210,3878.1167,
1317.300,3935.9139,
1314.389,4077.1551,
1311.479,4185.3156,
1308.568,4216.6232,
1305.657,4305.3148,
1302.747,4412.2877,
1299.836,4574.0162,
1296.926,4728.1058,
1294.015,4891.7454,
1291.105,5123.9187,
1288.194,5209.6133,
1285.283,5379.5887,
1282.373,5544.0152,
1279.462,5655.6559,
1276.552,5745.4215,
1273.641,5813.5454,
1270.731,5832.6776,
1267.820,5823.7077,
1264.909,5827.1596,
1261.999,5845.5679,
1259.088,5820.0286,
1256.178,5710.5865,
1253.267,5595.0662,
1250.356,5402.9591,
1247.446,5192.3129,
1244.535,5017.7279,
1241.625,4811.5633,
1238.714,4576.5026,
1235.804,4428.0779,
1232.893,4301.0116,
1229.982,4244.9123,
1227.072,4138.9908,
1224.161,4083.5913,
1221.251,3995.582,
1218.340,3915.3794,
1215.430,3844.6593,
1212.519,3821.819,
1209.608,3799.7081,
1206.698,3736.2873,
1203.787,3740.4095,
1200.877,3741.3537,
1197.966,3851.9503,
1195.055,3917.2274,
1192.145,4005.6397,
1189.234,4176.1807,
1186.324,4274.1382,
1183.413,4271.0685,
1180.503,4272.4687,
1177.592,4307.237,
1174.681,4248.6849,
1171.771,4215.7885,
1168.860,4228.2917,
1165.950,4195.6358,
1163.039,4185.4048,
1160.129,4211.0435,
1157.218,4188.6374,
1154.307,4138.9346,
1151.397,4118.8122,
1148.486,4078.4596,
1145.576,4020.652,
1142.665,4001.1179,
1139.754,3984.8547,
1136.844,3957.6897,
1133.933,3911.7231,
1131.023,3877.0581,
1128.112,3865.0716,
1125.202,3862.9831,
1122.291,3862.7453,
1119.380,3850.6386,
1116.470,3864.759,
1113.559,3847.1688,
1110.649,3842.1548,
1107.738,3823.7464,
1104.828,3797.5136,
1101.917,3776.695,
1099.006,3766.6339,
1096.096,3797.3814,
1093.185,3828.1115,
1090.275,3846.6854,
1087.364,3862.1641,
1084.453,3906.31,
1081.543,3964.9844,
1078.632,4003.6938,
1075.722,4010.1925,
1072.811,4014.1492,
1069.901,3966.9931,
1066.990,3955.4167,
1064.079,3909.9471,
1061.169,3900.546,
1058.258,3903.5712,
1055.348,3911.0798,
1052.437,3955.0595,
1049.527,3987.6273,
1046.616,3965.0377,
1043.705,3984.0814,
1040.795,3963.6828,
1037.884,4011.2115,
1034.974,4049.4098,
1032.063,4040.0682,
1029.153,4127.8528,
1026.242,4072.4956,
1023.331,4133.8293,
1020.421,4175.0812,
1017.510,4185.2589,
1014.600,4223.6784,
1011.689,4253.4138,
1008.778,4210.1459,
1005.868,4325.0792,
1002.957,4389.6057,
1000.047,4548.7401,
997.136,4778.9357,
994.226,4889.0079,
991.315,4885.6782,
988.404,4904.2586,
985.494,4856.2698,
982.583,4845.9912,
979.673,4832.7937,
976.762,4863.7261,
973.852,4863.3054,
970.941,4854.3213,
968.030,4908.8006,
965.120,4910.5752,
962.209,4928.4786,
959.299,4948.498,
956.388,4985.7381,
953.477,4996.7581,
950.567,4987.3884,
947.656,5008.4892,
944.746,4977.9052,
941.835,4976.5,
938.925,4985.7127,
936.014,4980.3835,
933.103,4948.6082,
930.193,4888.5243,
927.282,4808.7291,
924.372,4812.9572,
921.461,4708.9312,
918.551,4621.5397,
915.640,4570.627,
912.729,4527.9581,
909.819,4462.163,
906.908,4429.3084,
903.998,4434.6583,
901.087,4451.7761,
898.176,4467.6579,
895.266,4495.8135,
892.355,4549.2377,
889.445,4601.2723,
886.534,4621.5369,
883.624,4676.6352,
880.713,4745.3906,
877.802,4734.0017,
874.892,4579.4491,
871.981,4335.4163,
869.071,4162.4858,
866.160,4279.4614,
863.250,4482.8411,
860.339,4592.1071,
857.428,4567.5609,
854.518,4576.2393,
851.607,4428.963,
848.697,4274.1904,
845.786,4225.8793,
842.875,4302.9628,
839.965,4450.2336,
837.054,4549.5744,
834.144,4556.2044,
831.233,4531.5019,
828.323,4519.9837,
825.412,4507.0117,
822.501,4456.8399,
819.591,4347.7552,
816.680,4342.8974,
813.770,4221.585,
810.859,4164.8422,
807.949,4174.4048,
805.038,4144.2279,
802.127,4092.3708,
799.217,4086.7546,
796.306,4042.797,
793.396,4004.4389,
790.485,3997.7635,
787.574,4006.7347,
784.664,4118.27,
781.753,4178.0881,
778.843,4231.3157,
775.932,4258.7841,
773.022,4246.0647,
770.111,4275.4975,
767.200,4192.233,
764.290,4120.4255,
761.379,4111.1321,
758.469,4129.0845,
755.558,4059.3055,
752.648,4052.7887,
749.737,4031.9163,
746.826,4021.0338,
743.916,3973.5902,
741.005,3842.229,
738.095,3751.2988,
735.184,3697.5964,
732.274,3664.7231,
729.363,3716.7374,
726.452,3860.8022,
723.542,3934.457,
720.631,4045.5355,
717.721,4102.5595,
714.810,4121.2614,
711.899,4124.7574,
708.989,4134.4405,
706.078,4136.1026,
703.168,4121.3195,
700.257,4089.6337,
697.347,4058.2826,
694.436,4056.8017,
691.525,4031.0799,
688.615,4056.9456,
685.704,4062.9809,
682.794,4053.5212,
679.883,4077.5092,
676.973,4099.9476,
674.062,4119.814,
671.151,4137.7049,
668.241,4128.5342,
665.330,4061.4244,
662.420,4059.8269,
659.509,4025.8487,
656.598,4038.9562,
653.688,4100.1334,
650.777,4163.6071,
647.867,4196.2565,
644.956,4142.2041,
642.046,4021.1658,
639.135,3925.9282,
636.224,4010.6273,
633.314,4036.0334,
630.403,4007.6186,
627.493,3998.4789,
624.582,4015.2606,
621.672,3982.7888,
618.761,3989.8593,
615.850,4036.579,
612.940,4075.9153,
610.029,4081.9739,
607.119,4078.8154,
604.208,4048.6794,
601.297,4022.5415,
598.387,4016.5257,
595.476,4037.6142,
592.566,4049.4202,
589.655,4020.4013,
586.745,4009.1416,
583.834,3995.8591,
580.923,3922.4479,
578.013,3913.8158,
575.102,3916.6623,
572.192,3954.442,
569.281,4020.8428,
566.371,4050.5825,
563.460,4044.3289,
560.549,4045.3728,
557.639,4055.0656,
554.728,4069.6679,
551.818,4104.0018,
548.907,4120.6412,
545.996,4147.8834,
543.086,4177.4737,
540.175,4158.7862,
537.265,4326.2571,
534.354,4348.358,
531.444,4283.9287,
528.533,4228.4798,
525.622,4270.381,
522.712,4295.8823,
519.801,4329.4128,
516.891,4378.7074,
513.980,4439.1025,
511.070,4524.0913,
508.159,4595.7053,
505.248,4655.5261,
502.338,4712.7532,
499.427,4823.8971,
496.517,4871.601,
493.606,4902.9976,
490.695,4946.1657,
487.785,5008.5188,
484.874,5002.3444,
481.964,4998.4833,
479.053,5001.0874,
476.143,4982.6563,
473.232,4946.2492,
470.321,4924.2282,
467.411,4927.4032,
464.500,4963.14,
461.590,4988.4094,
458.679,5043.3756,
455.769,5119.3625,
452.858,5195.6028,
449.947,5158.1702,
447.037,5211.7828,
444.126,5281.4454,
441.216,5335.6749,
438.305,5353.9613,
435.395,5387.3149,
432.484,5426.0046,
429.573,5435.6672,
426.663,5342.1699,
423.752,5057.6246,
420.842,4753.9122,
417.931,4525.5884,
415.020,4490.704,
412.110,5098.2021,
409.199,5451.0842,
406.289,5588.7138,
403.378,5595.2003,
400.468,5506.749,
397.557,5509.8631,
394.646,5599.5641,
391.736,5763.3451,
388.825,5789.7432,
385.915,5812.9336,
383.004,5823.6446,
380.094,5820.8764,
377.183,5906.6587,
374.272,5967.4091,
371.362,6002.0319,
368.451,6010.5912,
365.541,6012.0923,
362.630,6059.4767,
359.719,6102.0516,
356.809,6112.992,
353.898,6154.1759,
350.988,6153.5653,
348.077,6144.0808,
345.167,6148.0354,
342.256,6198.089,
339.345,6169.454,
336.435,6130.3896,
333.524,6130.1776,
330.614,6215.1254,
327.703,6187.0791,
324.793,6153.2876,
321.882,6204.6713,
318.971,6275.2983,
316.061,6382.5134,
313.150,6464.881,
310.240,6450.0386,
307.329,6505.2417,
304.418,6545.2822,
301.508,6542.6722,
298.597,6453.0818,
295.687,6406.2201,
292.776,6446.2503,
289.866,6554.8117,
286.955,6679.6563,
284.044,6772.7674,
281.134,6828.3492,
278.223,6854.6435,
275.313,6896.6443,
272.402,6913.0517,
269.492,6892.8349,
266.581,6837.1321,
263.670,6831.9859,
260.760,6881.6936,
257.849,6999.0725,
254.939,7200.8902,
252.028,7123.1532,
249.117,7107.1185,
246.207,7135.4858,
243.296,7177.944,
240.386,7230.8214,
237.475,7291.8452,
234.565,7348.7301,
231.654,7350.1908,
228.743,7304.4706,
225.833,7282.391,
222.922,7308.4468,
220.012,7285.8616,
217.101,7237.7706,
214.191,7216.9189,
211.280,7288.2103,
208.369,7297.5369,
205.459,7308.6828,
202.548,7322.124,
199.638,7319.947,
196.727,7326.9908,
193.816,7339.4235,
190.906,7354.8651,
187.995,7336.7645,
185.085,7373.5299,
182.174,7438.5419,
179.264,7501.4225,
176.353,7489.2766,
173.442,7478.8626,
170.532,7477.9039,
167.621,7464.2053,
164.711,7327.5314,
161.800,7105.0162,
158.890,6804.8898,
155.979,6437.1887,
153.068,5982.6923,
150.158,5432.1619,
147.247,4730.7226,
144.337,3921.5044,
141.426,3107.7534,
138.516,2336.3785,
135.605,1664.8659,
132.694,1130.8537,
129.784,733.15601,
126.873,510.75063,
123.963,350.54783,
121.052,232.33819,
118.141,153.80897,
115.231,127.91947,
112.320,105.63819,
109.410,87.454671,
106.499,76.772343,
103.589,66.656437,
100.678,59.413513,
97.767,56.569763,
94.857,51.649077,
91.946,46.678224,
89.036,41.596817,
86.125,35.923175,
83.215,33.96908,
80.304,33.5,
77.393,33.5,
74.483,34.155135,
71.572,32.325887,
68.662,28.153663,
65.751,24.621407,
62.840,23.981702,
59.930,25.436431,
57.019,28.961841,
54.109,21.139748,
51.198,17.611265,
48.288,22.437713,
45.377,14.700554,
42.466,11.912219,
39.556,12.269763,
36.645,10.865382,
33.735,11.538497,
30.824,13.162661,
27.914,15.266187,
25.003,16.122637,
22.092,15.854191,
19.182,14.01946,
16.271,-0.6698329,
13.361,-33.894768,
10.450,-121.13837,
7.539,-409.54262,
4.629,-739.56454,
1.718,-951.34523,
-1.192,-862.80788,
-4.103,-585.94843,
-7.013,-288.93876,
-9.924,-1.5,
