,PLDFFE~1,
Wavenumbers [1/cm],Intensity,
3014.167,-1.5,
3011.256,0.74994632,
3008.346,525.83805,
3005.435,598.84629,
3002.525,631.20022,
2999.614,652.87664,
2996.704,665.95154,
2993.793,668.73848,
2990.882,683.14882,
2987.972,698.48991,
2985.061,706.69706,
2982.151,745.92019,
2979.240,748.31271,
2976.329,792.04095,
2973.419,791.11489,
2970.508,810.88334,
2967.598,805.11767,
2964.687,817.08084,
2961.777,852.08988,
2958.866,850.15677,
2955.955,874.12388,
2953.045,891.84899,
2950.134,907.54378,
2947.224,909.49641,
2944.313,946.64601,
2941.403,976.57208,
2938.492,980.47831,
2935.581,966.27424,
2932.671,970.22104,
2929.760,988.86541,
2926.850,998.60451,
2923.939,1006.3038,
2921.028,995.81179,
2918.118,1011.4194,
2915.207,1015.3292,
2912.297,1041.4154,
2909.386,1041.2081,
2906.476,1018.0112,
2903.565,978.17703,
2900.654,982.05309,
2897.744,963.17312,
2894.833,931.31455,
2891.923,900.60569,
2889.012,822.29769,
2886.102,743.90682,
2883.191,607.59251,
2880.280,98.963949,
2877.370,-844.64345,
2874.459,-1178.5356,
2871.549,-282.54583,
2868.638,540.44812,
2865.727,752.33447,
2862.817,863.04541,
2859.906,914.61396,
2856.996,945.36414,
2854.085,979.90127,
2851.175,1022.0511,
2848.264,1032.794,
2845.353,1031.7588,
2842.443,1043.5,
2839.532,1022.5449,
2836.622,1066.2025,
2833.711,1078.3006,
2830.801,1067.2985,
2827.890,1079.1906,
2824.979,1102.2039,
2822.069,1116.4545,
2819.158,1117.4407,
2816.248,1124.7529,
2813.337,1121.1805,
2810.427,1124.5882,
2807.516,1142.7012,
2804.605,1164.4135,
2801.695,1136.0526,
2798.784,1155.2084,
2795.874,1111.9248,
2792.963,1138.6434,
2790.052,1101.5107,
2787.142,1115.6183,
2784.231,1103.0481,
2781.321,1130.2486,
2778.410,1121.5203,
2775.500,1106.8414,
2772.589,1140.9228,
2769.678,1136.9642,
2766.768,1164.2845,
2763.857,1152.554,
2760.947,1172.0536,
2758.036,1160.1687,
2755.126,1156.0214,
2752.215,1153.9908,
2749.304,1183.1366,
2746.394,1169.3689,
2743.483,1188.05,
2740.573,1150.3516,
2737.662,1165.2973,
2734.751,1177.3835,
2731.841,1191.663,
2728.930,1195.1526,
2726.020,1196.6175,
2723.109,1207.7061,
2720.199,1223.5781,
2717.288,1209.5547,
2714.377,1218.0121,
2711.467,1231.1066,
2708.556,1230.0213,
2705.646,1215.2887,
2702.735,1269.6314,
2699.825,1243.3255,
2696.914,1244.2141,
2694.003,1274.2155,
2691.093,1260.1426,
2688.182,1258.8459,
2685.272,1265.1899,
2682.361,1237.3177,
2679.450,1261.6892,
2676.540,1259.7439,
2673.629,1260.2176,
2670.719,1254.8429,
2667.808,1276.8677,
2664.898,1284.5515,
2661.987,1314.3001,
2659.076,1295.0604,
2656.166,1284.5345,
2653.255,1323.0884,
2650.345,1322.7396,
2647.434,1351.0136,
2644.524,1324.1139,
2641.613,1352.9865,
2638.702,1359.6105,
2635.792,1358.2188,
2632.881,1346.5299,
2629.971,1329.7751,
2627.060,1351.9991,
2624.149,1354.4469,
2621.239,1355.2633,
2618.328,1393.3555,
2615.418,1384.0909,
2612.507,1384.6108,
2609.597,1355.4182,
2606.686,1405.1365,
2603.775,1403.3413,
2600.865,1404.442,
2597.954,1427.9312,
2595.044,1438.8127,
2592.133,1440.4426,
2589.223,1440.2832,
2586.312,1469.1332,
2583.401,1458.4598,
2580.491,1469.4711,
2577.580,1443.5363,
2574.670,1460.7955,
2571.759,1431.4341,
2568.848,1434.7874,
2565.938,1451.6905,
2563.027,1444.3523,
2560.117,1455.8272,
2557.206,1474.2122,
2554.296,1489.1865,
2551.385,1503.8881,
2548.474,1515.6851,
2545.564,1509.6583,
2542.653,1523.2148,
2539.743,1521.3019,
2536.832,1520.6645,
2533.922,1531.5788,
2531.011,1539.2498,
2528.100,1553.4303,
2525.190,1565.034,
2522.279,1512.9538,
2519.369,1534.3496,
2516.458,1492.7061,
2513.548,1503.6269,
2510.637,1566.7622,
2507.726,1564.2435,
2504.816,1571.1234,
2501.905,1568.8043,
2498.995,1566.7986,
2496.084,1582.845,
2493.173,1603.5262,
2490.263,1606.6797,
2487.352,1619.6653,
2484.442,1603.0632,
2481.531,1625.8243,
2478.621,1649.7133,
2475.710,1652.3466,
2472.799,1635.213,
2469.889,1651.2562,
2466.978,1666.7164,
2464.068,1639.8121,
2461.157,1672.9225,
2458.247,1679.456,
2455.336,1682.2671,
2452.425,1681.066,
2449.515,1716.3399,
2446.604,1706.9379,
2443.694,1693.9894,
2440.783,1737.9809,
2437.872,1696.3541,
2434.962,1705.6336,
2432.051,1740.5493,
2429.141,1743.4823,
2426.230,1780.0879,
2423.320,1773.3575,
2420.409,1758.391,
2417.498,1780.0478,
2414.588,1791.6825,
2411.677,1802.747,
2408.767,1786.0413,
2405.856,1799.7833,
2402.946,1787.7556,
2400.035,1840.7371,
2397.124,1811.746,
2394.214,1823.3364,
2391.303,1805.6768,
2388.393,1755.2162,
2385.482,1680.2318,
2382.571,1579.6517,
2379.661,1637.5921,
2376.750,1797.273,
2373.840,1872.2468,
2370.929,1886.4134,
2368.019,1906.3325,
2365.108,1895.5209,
2362.197,1938.8069,
2359.287,1926.9535,
2356.376,1944.4577,
2353.466,1955.8167,
2350.555,1978.685,
2347.645,1970.4351,
2344.734,1961.924,
2341.823,1992.9693,
2338.913,1995.006,
2336.002,2022.3541,
2333.092,2016.4887,
2330.181,2010.2545,
2327.270,2044.5198,
2324.360,2035.8278,
2321.449,2043.1327,
2318.539,2068.5214,
2315.628,2089.0284,
2312.718,2091.3172,
2309.807,2063.6177,
2306.896,2086.957,
2303.986,2091.8184,
2301.075,2078.1597,
2298.165,2107.5683,
2295.254,2093.1247,
2292.344,2127.4916,
2289.433,2142.7045,
2286.522,2137.223,
2283.612,2145.5586,
2280.701,2162.5986,
2277.791,2206.2596,
2274.880,2196.8621,
2271.969,2181.179,
2269.059,2185.8788,
2266.148,2236.273,
2263.238,2253.3996,
2260.327,2278.4654,
2257.417,2262.1278,
2254.506,2270.6824,
2251.595,2272.2347,
2248.685,2280.5422,
2245.774,2284.0935,
2242.864,2302.6022,
2239.953,2311.9001,
2237.043,2300.7996,
2234.132,2332.2662,
2231.221,2303.7065,
2228.311,2349.2589,
2225.400,2392.1192,
2222.490,2415.5424,
2219.579,2427.919,
2216.669,2440.4714,
2213.758,2450.4137,
2210.847,2489.578,
2207.937,2481.2329,
2205.026,2494.6105,
2202.116,2525.1348,
2199.205,2558.1379,
2196.294,2564.55,
2193.384,2608.8936,
2190.473,2621.642,
2187.563,2665.6933,
2184.652,2717.0971,
2181.742,2785.1594,
2178.831,2846.0216,
2175.920,2939.398,
2173.010,3055.8328,
2170.099,3257.2813,
2167.189,3390.3154,
2164.278,3668.2055,
2161.368,3852.3537,
2158.457,4027.0177,
2155.546,4281.4185,
2152.636,4535.9464,
2149.725,4809.728,
2146.815,5019.6604,
2143.904,5223.9386,
2140.993,5346.833,
2138.083,5481.0682,
2135.172,5564.8447,
2132.262,5568.4789,
2129.351,5470.3891,
2126.441,5410.5776,
2123.530,5236.8736,
2120.619,4978.3911,
2117.709,4747.5882,
2114.798,4477.2758,
2111.888,4172.9314,
2108.977,3901.8973,
2106.067,3663.4488,
2103.156,3462.8079,
2100.245,3294.4228,
2097.335,3165.1178,
2094.424,3093.129,
2091.514,2993.9084,
2088.603,2903.0671,
2085.692,2856.0501,
2082.782,2823.677,
2079.871,2813.7147,
2076.961,2767.7935,
2074.050,2804.2394,
2071.140,2772.9028,
2068.229,2733.8737,
2065.318,2723.7965,
2062.408,2712.7269,
2059.497,2696.2976,
2056.587,2666.4191,
2053.676,2664.2994,
2050.766,2618.503,
2047.855,2636.6741,
2044.944,2608.367,
2042.034,2610.581,
2039.123,2624.9209,
2036.213,2641.0178,
2033.302,2618.9787,
2030.391,2634.3633,
2027.481,2653.0366,
2024.570,2643.0717,
2021.660,2643.3817,
2018.749,2655.2721,
2015.839,2646.2717,
2012.928,2630.3272,
2010.017,2644.2275,
2007.107,2656.6664,
2004.196,2661.0476,
2001.286,2640.083,
1998.375,2650.3297,
1995.465,2635.0482,
1992.554,2641.7705,
1989.643,2584.6084,
1986.733,2595.8912,
1983.822,2616.5502,
1980.912,2589.5394,
1978.001,2583.8896,
1975.090,2595.8908,
1972.180,2591.2939,
1969.269,2592.6897,
1966.359,2596.6081,
1963.448,2572.5845,
1960.538,2575.0496,
1957.627,2525.7848,
1954.716,2572.92,
1951.806,2546.5929,
1948.895,2561.5062,
1945.985,2527.4444,
1943.074,2536.2715,
1940.164,2510.1351,
1937.253,2544.9174,
1934.342,2516.2861,
1931.432,2493.2319,
1928.521,2479.5639,
1925.611,2470.7792,
1922.700,2462.5856,
1919.790,2470.8351,
1916.879,2453.895,
1913.968,2457.4939,
1911.058,2474.491,
1908.147,2488.7657,
1905.237,2475.2131,
1902.326,2392.9312,
1899.415,2311.5524,
1896.505,2246.8372,
1893.594,2296.546,
1890.684,2424.7416,
1887.773,2442.4401,
1884.863,2452.7369,
1881.952,2481.8448,
1879.041,2484.7175,
1876.131,2523.4046,
1873.220,2472.3537,
1870.310,2438.4373,
1867.399,2459.1321,
1864.489,2494.0327,
1861.578,2481.8462,
1858.667,2479.9012,
1855.757,2498.1265,
1852.846,2488.3512,
1849.936,2550.8253,
1847.025,2551.7968,
1844.114,2553.9848,
1841.204,2584.0699,
1838.293,2589.5083,
1835.383,2571.9305,
1832.472,2601.827,
1829.562,2620.5568,
1826.651,2584.73,
1823.740,2638.2013,
1820.830,2627.232,
1817.919,2643.3744,
1815.009,2655.4936,
1812.098,2646.626,
1809.188,2672.7015,
1806.277,2644.1861,
1803.366,2628.0157,
1800.456,2660.6983,
1797.545,2695.3654,
1794.635,2667.9831,
1791.724,2689.3544,
1788.813,2672.4923,
1785.903,2625.5195,
1782.992,2490.6786,
1780.082,2184.4003,
1777.171,1796.47,
1774.261,1790.7171,
1771.350,2210.1798,
1768.439,2666.386,
1765.529,2800.3185,
1762.618,2819.4094,
1759.708,2840.5652,
1756.797,2863.4015,
1753.887,2873.7303,
1750.976,2882.0622,
1748.065,2927.1375,
1745.155,2892.6552,
1742.244,2919.4302,
1739.334,2919.373,
1736.423,2913.272,
1733.512,2987.0815,
1730.602,3015.7441,
1727.691,3057.9537,
1724.781,3071.2866,
1721.870,3087.5953,
1718.960,3115.3447,
1716.049,3099.5256,
1713.138,3151.0747,
1710.228,3185.7386,
1707.317,3186.8463,
1704.407,3243.9974,
1701.496,3309.7506,
1698.586,3304.4122,
1695.675,3307.2428,
1692.764,3352.9426,
1689.854,3357.4134,
1686.943,3353.6349,
1684.033,3460.768,
1681.122,3503.8033,
1678.211,3560.9575,
1675.301,3676.1454,
1672.390,3636.0084,
1669.480,3805.9252,
1666.569,3859.6299,
1663.659,3947.843,
1660.748,3971.238,
1657.837,4111.506,
1654.927,4158.8195,
1652.016,4255.5972,
1649.106,4264.2983,
1646.195,4456.6269,
1643.285,4503.3431,
1640.374,4543.0958,
1637.463,4715.247,
1634.553,4922.2487,
1631.642,5107.1504,
1628.732,5259.1947,
1625.821,5543.7571,
1622.911,5934.2854,
1620.000,6250.4936,
1617.089,6647.5199,
1614.179,7109.3301,
1611.268,7428.6774,
1608.358,7843.6938,
1605.447,8144.4737,
1602.536,8260.28,
1599.626,8346.6142,
1596.715,8361.6684,
1593.805,8290.0591,
1590.894,8147.6381,
1587.984,8070.6057,
1585.073,8022.3624,
1582.162,7934.5161,
1579.252,7828.4869,
1576.341,7751.6245,
1573.431,7769.6101,
1570.520,7721.1717,
1567.610,7696.794,
1564.699,7580.6703,
1561.788,7492.43,
1558.878,7342.4095,
1555.967,7245.8241,
1553.057,7093.5358,
1550.146,6900.7366,
1547.235,6803.2966,
1544.325,6663.2141,
1541.414,6522.5951,
1538.504,6417.2195,
1535.593,6317.9814,
1532.683,6231.723,
1529.772,6127.2008,
1526.861,6047.4069,
1523.951,6052.1995,
1521.040,6086.7972,
1518.130,6047.7249,
1515.219,5980.5829,
1512.309,5869.8468,
1509.398,5814.9433,
1506.487,5711.8554,
1503.577,5615.267,
1500.666,5583.5167,
1497.756,5474.7027,
1494.845,5403.3794,
1491.934,5376.1472,
1489.024,5268.348,
1486.113,5236.6835,
1483.203,5193.6443,
1480.292,5068.0114,
1477.382,5017.4031,
1474.471,4940.6685,
1471.560,4862.1724,
1468.650,4813.8523,
1465.739,4766.9135,
1462.829,4678.866,
1459.918,4633.605,
1457.008,4622.8229,
1454.097,4625.3647,
1451.186,4648.5696,
1448.276,4682.852,
1445.365,4686.8863,
1442.455,4637.2918,
1439.544,4704.3855,
1436.633,4656.0333,
1433.723,4625.5,
1430.812,4619.811,
1427.902,4551.3864,
1424.991,4672.7,
1422.081,4665.4903,
1419.170,4686.1015,
1416.259,4716.2321,
1413.349,4740.6258,
1410.438,4796.1844,
1407.528,4754.4133,
1404.617,4707.1703,
1401.707,4686.8413,
1398.796,4606.168,
1395.885,4517.5787,
1392.975,4514.4796,
1390.064,4552.7472,
1387.154,4580.1437,
1384.243,4523.7409,
1381.332,4537.945,
1378.422,4757.5822,
1375.511,4739.7834,
1372.601,4920.1278,
1369.690,5049.5106,
1366.780,5094.6372,
1363.869,5140.7298,
1360.958,5247.2701,
1358.048,5366.884,
1355.137,5482.7362,
1352.227,5608.3828,
1349.316,5761.544,
1346.406,5915.5823,
1343.495,5993.4965,
1340.584,6033.2831,
1337.674,6193.9239,
1334.763,6127.9339,
1331.853,6270.7275,
1328.942,6412.588,
1326.032,6549.3962,
1323.121,6648.3736,
1320.210,6799.359,
1317.300,6975.2343,
1314.389,7147.5435,
1311.479,7278.0045,
1308.568,7378.1948,
1305.657,7542.9777,
1302.747,7788.703,
1299.836,7955.7705,
1296.926,8113.4042,
1294.015,8391.0399,
1291.105,8568.9224,
1288.194,8811.1543,
1285.283,9090.609,
1282.373,9330.1088,
1279.462,9513.0276,
1276.552,9678.3744,
1273.641,9800.1376,
1270.731,9821.9746,
1267.820,9764.3636,
1264.909,9675.149,
1261.999,9725.464,
1259.088,9779.2791,
1256.178,9621.4862,
1253.267,9470.9815,
1250.356,9228.9693,
1247.446,8886.2481,
1244.535,8527.1791,
1241.625,8222.4448,
1238.714,7938.8529,
1235.804,7636.8207,
1232.893,7434.158,
1229.982,7277.8459,
1227.072,7081.3932,
1224.161,6979.2471,
1221.251,6891.0271,
1218.340,6755.7242,
1215.430,6611.2681,
1212.519,6555.1773,
1209.608,6536.1256,
1206.698,6449.7547,
1203.787,6369.5955,
1200.877,6321.6442,
1197.966,6501.476,
1195.055,6634.221,
1192.145,6872.6382,
1189.234,7133.9474,
1186.324,7259.9568,
1183.413,7305.9975,
1180.503,7333.4294,
1177.592,7313.1362,
1174.681,7273.3356,
1171.771,7188.2431,
1168.860,7133.7646,
1165.950,7131.7252,
1163.039,7158.3409,
1160.129,7134.6985,
1157.218,7098.4816,
1154.307,7045.8003,
1151.397,6959.2098,
1148.486,6895.9582,
1145.576,6843.838,
1142.665,6759.4863,
1139.754,6740.2956,
1136.844,6694.7815,
1133.933,6667.7024,
1131.023,6647.8092,
1128.112,6584.2927,
1125.202,6494.6015,
1122.291,6482.3666,
1119.380,6461.0197,
1116.470,6513.9714,
1113.559,6544.4707,
1110.649,6510.2447,
1107.738,6476.1762,
1104.828,6431.3798,
1101.917,6382.0206,
1099.006,6378.3247,
1096.096,6377.0162,
1093.185,6369.1142,
1090.275,6439.7158,
1087.364,6501.7841,
1084.453,6589.9957,
1081.543,6661.3435,
1078.632,6698.976,
1075.722,6732.6373,
1072.811,6750.3759,
1069.901,6748.6294,
1066.990,6706.4668,
1064.079,6682.8897,
1061.169,6637.2866,
1058.258,6589.4075,
1055.348,6584.8435,
1052.437,6634.6994,
1049.527,6676.5671,
1046.616,6678.3048,
1043.705,6728.5997,
1040.795,6774.7867,
1037.884,6780.3623,
1034.974,6801.6456,
1032.063,6854.877,
1029.153,6849.9275,
1026.242,6878.471,
1023.331,6936.9963,
1020.421,6938.7406,
1017.510,6995.0098,
1014.600,7097.058,
1011.689,7150.1197,
1008.778,7081.2524,
1005.868,6993.8205,
1002.957,7140.9411,
1000.047,7480.1801,
997.136,7917.4179,
994.226,8215.5604,
991.315,8288.3193,
988.404,8228.7734,
985.494,8144.9491,
982.583,8031.0271,
979.673,8071.5684,
976.762,8083.6935,
973.852,8106.6727,
970.941,8174.9164,
968.030,8248.8988,
965.120,8245.5895,
962.209,8266.9031,
959.299,8272.6247,
956.388,8303.7381,
953.477,8311.881,
950.567,8294.9899,
947.656,8315.8477,
944.746,8356.6264,
941.835,8343.1135,
938.925,8361.2157,
936.014,8348.7262,
933.103,8337.5052,
930.193,8355.7046,
927.282,8333.1674,
924.372,8197.8703,
921.461,8058.2576,
918.551,7908.7701,
915.640,7784.0564,
912.729,7693.0062,
909.819,7610.3778,
906.908,7510.9717,
903.998,7487.2066,
901.087,7511.7793,
898.176,7584.809,
895.266,7656.022,
892.355,7689.693,
889.445,7760.1915,
886.534,7889.9051,
883.624,7971.3451,
880.713,7953.5887,
877.802,7836.853,
874.892,7553.6288,
871.981,6902.234,
869.071,6552.196,
866.160,6769.5537,
863.250,7317.5317,
860.339,7734.0757,
857.428,7785.6129,
854.518,7747.4009,
851.607,7432.8787,
848.697,7082.7386,
845.786,6871.693,
842.875,6995.8976,
839.965,7424.162,
837.054,7720.4583,
834.144,7805.8198,
831.233,7818.5003,
828.323,7788.804,
825.412,7731.8453,
822.501,7662.2657,
819.591,7611.029,
816.680,7579.0512,
813.770,7409.8623,
810.859,7280.5594,
807.949,7221.7585,
805.038,7170.4093,
802.127,7153.1236,
799.217,7106.0311,
796.306,7058.716,
793.396,7032.1641,
790.485,7030.3952,
787.574,7041.2676,
784.664,7140.5012,
781.753,7249.0828,
778.843,7361.1314,
775.932,7441.3764,
773.022,7452.5954,
770.111,7382.2837,
767.200,7337.1504,
764.290,7310.0531,
761.379,7264.4458,
758.469,7198.5718,
755.558,7153.4514,
752.648,7151.8222,
749.737,7106.4575,
746.826,7075.5067,
743.916,7037.3437,
741.005,6948.1286,
738.095,6847.4559,
735.184,6730.3862,
732.274,6721.1056,
729.363,6795.2187,
726.452,6911.7123,
723.542,7067.9252,
720.631,7172.8319,
717.721,7207.6556,
714.810,7229.0112,
711.899,7262.5792,
708.989,7284.3662,
706.078,7278.0896,
703.168,7291.0733,
700.257,7267.9068,
697.347,7223.6737,
694.436,7230.2125,
691.525,7182.788,
688.615,7178.7891,
685.704,7199.7677,
682.794,7244.9678,
679.883,7318.9686,
676.973,7329.3864,
674.062,7337.8808,
671.151,7348.5133,
668.241,7322.7158,
665.330,7212.521,
662.420,7234.0868,
659.509,7235.9603,
656.598,7284.699,
653.688,7376.0347,
650.777,7463.0931,
647.867,7510.0765,
644.956,7350.8529,
642.046,7154.4592,
639.135,7022.6135,
636.224,7016.1207,
633.314,7139.9751,
630.403,7198.1045,
627.493,7227.2541,
624.582,7238.4966,
621.672,7211.5688,
618.761,7259.8961,
615.850,7313.5182,
612.940,7355.4291,
610.029,7374.6587,
607.119,7363.6039,
604.208,7285.1086,
601.297,7228.0756,
598.387,7225.4306,
595.476,7279.5288,
592.566,7248.0461,
589.655,7255.4578,
586.745,7206.952,
583.834,7157.7759,
580.923,7240.5,
578.013,7240.5,
575.102,7229.6018,
572.192,7240.7934,
569.281,7282.6706,
566.371,7322.5844,
563.460,7330.0273,
560.549,7317.8562,
557.639,7344.5902,
554.728,7459.2592,
551.818,7502.9569,
548.907,7507.0153,
545.996,7517.8852,
543.086,7550.0625,
540.175,7594.4453,
537.265,7652.5452,
534.354,7643.3986,
531.444,7651.9548,
528.533,7754.9213,
525.622,7803.03,
522.712,7871.1416,
519.801,7940.5779,
516.891,8010.6546,
513.980,8100.4729,
511.070,8207.1086,
508.159,8309.6285,
505.248,8424.3192,
502.338,8571.0921,
499.427,8693.8134,
496.517,8805.6918,
493.606,8910.5804,
490.695,8999.9606,
487.785,9017.6658,
484.874,9057.981,
481.964,9066.0417,
479.053,9044.0874,
476.143,9025.6563,
473.232,9008.6731,
470.321,9010.7718,
467.411,9015.7011,
464.500,9006.1484,
461.590,9071.2364,
458.679,9158.8371,
455.769,9258.3487,
452.858,9363.1916,
449.947,9475.4895,
447.037,9554.9287,
444.126,9636.9727,
441.216,9715.426,
438.305,9720.7595,
435.395,9731.3345,
432.484,9740.2508,
429.573,9723.6672,
426.663,9630.1699,
423.752,8754.2133,
420.842,7704.8015,
417.931,6952.1186,
415.020,7119.7157,
412.110,8523.6127,
409.199,9430.1426,
406.289,9799.9295,
403.378,9671.9134,
400.468,9498.7907,
397.557,9614.7118,
394.646,9943.4943,
391.736,10396.114,
388.825,10384.046,
385.915,10457.668,
383.004,10527.784,
380.094,10538.913,
377.183,10645.012,
374.272,10733.663,
371.362,10791.741,
368.451,10814.965,
365.541,10872.006,
362.630,10912.081,
359.719,10927.469,
356.809,10916.542,
353.898,10933.764,
350.988,10982.984,
348.077,11024.566,
345.167,11032.759,
342.256,10998.394,
339.345,10999.129,
336.435,11010.443,
333.524,11017.262,
330.614,11073.148,
327.703,11136.706,
324.793,11202.67,
321.882,11266.693,
318.971,11346.241,
316.061,11466.28,
313.150,11605.995,
310.240,11742.544,
307.329,11773.942,
304.418,11871.131,
301.508,11992.617,
298.597,12060.735,
295.687,12039.41,
292.776,12070.667,
289.866,12174.692,
286.955,12374.887,
284.044,12486.99,
281.134,12647.697,
278.223,12856.715,
275.313,12981.244,
272.402,13002.272,
269.492,12950.022,
266.581,12838.406,
263.670,12739.156,
260.760,12933.558,
257.849,13273.769,
254.939,13663.461,
252.028,13743.056,
249.117,13855.099,
246.207,14020.604,
243.296,14276.085,
240.386,14366.187,
237.475,14426.009,
234.565,14488.286,
231.654,14613.912,
228.743,14727.956,
225.833,14840.064,
222.922,14954.989,
220.012,15094.143,
217.101,15253.837,
214.191,15403.754,
211.280,15507.781,
208.369,15632.569,
205.459,15746.593,
202.548,15853.559,
199.638,15975.468,
196.727,16012.601,
193.816,16066.051,
190.906,16173.309,
187.995,16281.913,
185.085,16311.461,
182.174,16331.295,
179.264,16437.541,
176.353,16502.685,
173.442,16537.576,
170.532,16533.647,
167.621,16423.338,
164.711,16073.429,
161.800,15505.803,
158.890,14689.632,
155.979,13723.4,
153.068,12656.38,
150.158,11454.113,
147.247,9947.1307,
144.337,8275.3962,
141.426,6572.0588,
138.516,4893.8164,
135.605,3518.0823,
132.694,2412.626,
129.784,1564.4396,
126.873,1020.2258,
123.963,690.408,
121.052,472.37478,
118.141,341.01682,
115.231,268.02182,
112.320,217.3182,
109.410,183.04579,
106.499,154.55958,
103.589,136.73466,
100.678,121.52432,
97.767,105.8837,
94.857,103.42103,
91.946,96.453337,
89.036,85.919429,
86.125,75.990555,
83.215,72.438159,
80.304,71.260567,
77.393,70.552397,
74.483,66.56919,
71.572,59.42707,
68.662,50.153663,
65.751,46.621407,
62.840,48.390212,
59.930,49.439852,
57.019,41.68395,
54.109,41.694322,
51.198,40.087126,
48.288,34.539637,
45.377,39.463284,
42.466,40.675561,
39.556,39.269763,
36.645,37.865382,
33.735,40.615491,
30.824,42.837339,
27.914,40.733813,
25.003,33.650988,
22.092,30.468714,
19.182,33.483963,
16.271,63.562039,
13.361,198.98719,
10.450,472.82471,
7.539,1078.9624,
4.629,1649.56,
1.718,2005.7103,
-1.192,1905.3215,
-4.103,1176.6653,
-7.013,497.124,
-9.924,-0.5,
