,PLB712~1,
Wavenumbers [1/cm],Intensity,
3014.167,5.25,
3011.256,-0.99994632,
3008.346,333.3873,
3005.435,405.40194,
3002.525,406.55257,
2999.614,449.67598,
2996.704,445.39124,
2993.793,444.08929,
2990.882,470.68512,
2987.972,476.18442,
2985.061,485.86087,
2982.151,516.01135,
2979.240,535.48002,
2976.329,533.71451,
2973.419,556.0654,
2970.508,567.58327,
2967.598,585.82349,
2964.687,595.33967,
2961.777,604.12191,
2958.866,626.91568,
2955.955,640.39158,
2953.045,636.73548,
2950.134,657.70774,
2947.224,671.33182,
2944.313,698.81196,
2941.403,715.92929,
2938.492,702.00612,
2935.581,727.58864,
2932.671,731.36584,
2929.760,730.0308,
2926.850,754.83195,
2923.939,753.25,
2921.028,754.79119,
2918.118,785.75252,
2915.207,793.88909,
2912.297,752.38963,
2909.386,761.26459,
2906.476,761.60675,
2903.565,781.02333,
2900.654,776.89816,
2897.744,774.94827,
2894.833,754.54891,
2891.923,754.3846,
2889.012,735.04191,
2886.102,727.00136,
2883.191,666.30286,
2880.280,484.40304,
2877.370,177.28541,
2874.459,99.823334,
2871.549,540.09549,
2868.638,730.20259,
2865.727,747.14233,
2862.817,757.46523,
2859.906,792.16168,
2856.996,801.24094,
2854.085,810.29203,
2851.175,826.70478,
2848.264,848.24033,
2845.353,824.27157,
2842.443,838.42702,
2839.532,842.72771,
2836.622,863.3737,
2833.711,856.31748,
2830.801,836.55221,
2827.890,856.97902,
2824.979,871.65789,
2822.069,868.10216,
2819.158,860.95081,
2816.248,886.68631,
2813.337,889.47683,
2810.427,896.98553,
2807.516,902.40828,
2804.605,923.55047,
2801.695,891.67102,
2798.784,893.289,
2795.874,871.94919,
2792.963,884.32138,
2790.052,876.2515,
2787.142,872.89473,
2784.231,858.05747,
2781.321,884.50721,
2778.410,900.76016,
2775.500,881.1669,
2772.589,905.01911,
2769.678,899.53671,
2766.768,897.68495,
2763.857,900.46388,
2760.947,927.2437,
2758.036,923.70858,
2755.126,913.15812,
2752.215,913.82285,
2749.304,917.88849,
2746.394,923.75397,
2743.483,936.00003,
2740.573,943.44475,
2737.662,934.14349,
2734.751,932.2258,
2731.841,940.73718,
2728.930,942.61856,
2726.020,947.02025,
2723.109,958.09508,
2720.199,950.54372,
2717.288,969.93249,
2714.377,995.3123,
2711.467,979.61044,
2708.556,992.37758,
2705.646,967.3626,
2702.735,1018.2603,
2699.825,1014.0663,
2696.914,1006.5359,
2694.003,990.2321,
2691.093,1012.3391,
2688.182,988.68481,
2685.272,1006.1703,
2682.361,1006.4323,
2679.450,1018.1594,
2676.540,990.7581,
2673.629,1008.2814,
2670.719,1023.1548,
2667.808,1049.715,
2664.898,1023.1196,
2661.987,1051.8167,
2659.076,1048.7586,
2656.166,1036.0421,
2653.255,1060.6565,
2650.345,1082.8507,
2647.434,1099.1354,
2644.524,1080.6864,
2641.613,1092.1934,
2638.702,1076.6603,
2635.792,1085.1254,
2632.881,1090.9106,
2629.971,1085.9076,
2627.060,1084.0816,
2624.149,1090.4406,
2621.239,1080.4985,
2618.328,1084.0977,
2615.418,1107.2318,
2612.507,1106.5623,
2609.597,1111.24,
2606.686,1122.497,
2603.775,1124.373,
2600.865,1121.2534,
2597.954,1158.5792,
2595.044,1156.483,
2592.133,1165.1862,
2589.223,1144.6595,
2586.312,1177.5164,
2583.401,1168.7391,
2580.491,1159.7308,
2577.580,1184.2715,
2574.670,1192.2687,
2571.759,1177.0479,
2568.848,1203.2391,
2565.938,1146.2973,
2563.027,1190.225,
2560.117,1182.6145,
2557.206,1168.6891,
2554.296,1209.3919,
2551.385,1203.936,
2548.474,1198.0277,
2545.564,1205.9334,
2542.653,1200.2701,
2539.743,1219.7562,
2536.832,1238.8837,
2533.922,1228.2973,
2531.011,1239.7743,
2528.100,1238.2604,
2525.190,1246.5012,
2522.279,1248.1713,
2519.369,1229.5706,
2516.458,1248.369,
2513.548,1271.0044,
2510.637,1259.4182,
2507.726,1274.1273,
2504.816,1276.8137,
2501.905,1272.0762,
2498.995,1261.5638,
2496.084,1279.797,
2493.173,1276.4606,
2490.263,1329.3054,
2487.352,1313.9595,
2484.442,1325.6933,
2481.531,1302.1384,
2478.621,1330.4065,
2475.710,1317.388,
2472.799,1337.2231,
2469.889,1352.9453,
2466.978,1348.8171,
2464.068,1350.9114,
2461.157,1347.5175,
2458.247,1348.353,
2455.336,1365.1854,
2452.425,1365.5755,
2449.515,1366.3165,
2446.604,1379.0842,
2443.694,1384.9252,
2440.783,1415.0146,
2437.872,1394.1771,
2434.962,1382.7938,
2432.051,1385.9975,
2429.141,1417.9618,
2426.230,1404.2279,
2423.320,1420.8785,
2420.409,1433.3267,
2417.498,1450.6433,
2414.588,1445.7101,
2411.677,1434.6803,
2408.767,1450.5502,
2405.856,1467.4714,
2402.946,1464.7201,
2400.035,1484.6256,
2397.124,1475.6671,
2394.214,1453.3036,
2391.303,1462.6477,
2388.393,1454.8407,
2385.482,1394.7175,
2382.571,1385.0727,
2379.661,1420.8773,
2376.750,1475.9864,
2373.840,1473.3281,
2370.929,1536.5461,
2368.019,1547.2247,
2365.108,1549.7186,
2362.197,1547.5022,
2359.287,1560.4684,
2356.376,1566.2359,
2353.466,1556.9796,
2350.555,1538.2605,
2347.645,1570.1308,
2344.734,1585.7062,
2341.823,1566.6148,
2338.913,1572.2694,
2336.002,1591.8122,
2333.092,1607.4453,
2330.181,1623.5671,
2327.270,1632.92,
2324.360,1643.7123,
2321.449,1639.2806,
2318.539,1636.7393,
2315.628,1639.7372,
2312.718,1655.3822,
2309.807,1641.2064,
2306.896,1656.0137,
2303.986,1668.2111,
2301.075,1674.7819,
2298.165,1682.8271,
2295.254,1688.1854,
2292.344,1676.4658,
2289.433,1663.64,
2286.522,1694.6784,
2283.612,1731.6416,
2280.701,1734.3262,
2277.791,1747.0515,
2274.880,1763.896,
2271.969,1749.4475,
2269.059,1762.0348,
2266.148,1740.5839,
2263.238,1791.0222,
2260.327,1823.8359,
2257.417,1792.6733,
2254.506,1801.7002,
2251.595,1805.9664,
2248.685,1818.2442,
2245.774,1816.0413,
2242.864,1835.028,
2239.953,1842.6087,
2237.043,1828.6914,
2234.132,1845.5226,
2231.221,1871.909,
2228.311,1880.5992,
2225.400,1894.5464,
2222.490,1876.0058,
2219.579,1906.3786,
2216.669,1922.719,
2213.758,1952.0801,
2210.847,1938.4566,
2207.937,1999.3997,
2205.026,1988.4722,
2202.116,1994.1831,
2199.205,2005.25,
2196.294,2041.2179,
2193.384,2082.7495,
2190.473,2101.9777,
2187.563,2116.5013,
2184.652,2172.7684,
2181.742,2216.5705,
2178.831,2297.6237,
2175.920,2364.485,
2173.010,2437.7046,
2170.099,2593.7014,
2167.189,2735.0537,
2164.278,2869.2872,
2161.368,3066.3852,
2158.457,3260.6819,
2155.546,3434.6983,
2152.636,3624.9253,
2149.725,3813.3841,
2146.815,3951.5127,
2143.904,4125.4804,
2140.993,4227.419,
2138.083,4301.6483,
2135.172,4324.7798,
2132.262,4366.2289,
2129.351,4336.105,
2126.441,4246.2012,
2123.530,4115.9154,
2120.619,3890.2967,
2117.709,3706.184,
2114.798,3470.9377,
2111.888,3229.0558,
2108.977,3011.4287,
2106.067,2864.2112,
2103.156,2719.8714,
2100.245,2586.2205,
2097.335,2521.1872,
2094.424,2379.1973,
2091.514,2337.2392,
2088.603,2296.9413,
2085.692,2261.6107,
2082.782,2229.5112,
2079.871,2183.1053,
2076.961,2196.7647,
2074.050,2193.9227,
2071.140,2145.5146,
2068.229,2131.5221,
2065.318,2134.9293,
2062.408,2141.7122,
2059.497,2103.369,
2056.587,2097.5287,
2053.676,2106.25,
2050.766,2085.9436,
2047.855,2056.25,
2044.944,2060.6394,
2042.034,2086.169,
2039.123,2070.1288,
2036.213,2066.21,
2033.302,2077.8804,
2030.391,2082.4703,
2027.481,2096.1523,
2024.570,2073.2793,
2021.660,2100.2396,
2018.749,2076.3137,
2015.839,2102.8465,
2012.928,2086.458,
2010.017,2051.6127,
2007.107,2091.579,
2004.196,2107.0833,
2001.286,2107.5009,
1998.375,2093.4616,
1995.465,2067.9446,
1992.554,2057.1148,
1989.643,2053.3537,
1986.733,2036.2298,
1983.822,2068.1466,
1980.912,2042.6455,
1978.001,2024.3261,
1975.090,2016.9126,
1972.180,2024.109,
1969.269,2072.4023,
1966.359,2037.844,
1963.448,2017.6331,
1960.538,1994.0932,
1957.627,1978.4419,
1954.716,2008.3307,
1951.806,2025.399,
1948.895,2029.2702,
1945.985,2021.5441,
1943.074,1974.9067,
1940.164,2002.25,
1937.253,1986.7547,
1934.342,1969.2757,
1931.432,1954.3541,
1928.521,1957.4849,
1925.611,1944.6268,
1922.700,1930.7099,
1919.790,1943.8915,
1916.879,1936.0172,
1913.968,1972.2045,
1911.058,1936.4091,
1908.147,1902.361,
1905.237,1935.3014,
1902.326,1900.3937,
1899.415,1856.3183,
1896.505,1806.8163,
1893.594,1828.7836,
1890.684,1905.949,
1887.773,1937.1901,
1884.863,1934.0928,
1881.952,1968.8472,
1879.041,1934.3476,
1876.131,1965.6696,
1873.220,1932.6658,
1870.310,1931.8195,
1867.399,1938.154,
1864.489,1937.3668,
1861.578,1943.986,
1858.667,1974.9686,
1855.757,1950.0292,
1852.846,1972.9987,
1849.936,1963.4832,
1847.025,1961.2427,
1844.114,2013.1607,
1841.204,2038.0927,
1838.293,2008.7924,
1835.383,1982.7035,
1832.472,1994.1109,
1829.562,2006.0828,
1826.651,2019.1904,
1823.740,2021.3381,
1820.830,2061.148,
1817.919,2043.9324,
1815.009,2055.2309,
1812.098,2011.5729,
1809.188,2036.2654,
1806.277,2026.5156,
1803.366,2057.3997,
1800.456,2067.514,
1797.545,2090.0797,
1794.635,2099.54,
1791.724,2111.0558,
1788.813,2119.2423,
1785.903,2088.2152,
1782.992,2018.8415,
1780.082,1845.2531,
1777.171,1719.2409,
1774.261,1721.3857,
1771.350,1885.562,
1768.439,2088.7674,
1765.529,2173.7991,
1762.618,2213.6763,
1759.708,2208.2606,
1756.797,2188.9394,
1753.887,2192.9424,
1750.976,2203.6846,
1748.065,2231.1409,
1745.155,2219.3405,
1742.244,2193.3315,
1739.334,2244.7653,
1736.423,2285.3808,
1733.512,2312.3517,
1730.602,2315.0139,
1727.691,2316.3206,
1724.781,2315.6768,
1721.870,2322.4929,
1718.960,2327.5389,
1716.049,2335.8008,
1713.138,2391.1147,
1710.228,2412.4342,
1707.317,2431.9414,
1704.407,2404.6029,
1701.496,2442.2697,
1698.586,2450.8699,
1695.675,2483.0641,
1692.764,2555.3074,
1689.854,2499.935,
1686.943,2550.3951,
1684.033,2607.8343,
1681.122,2609.25,
1678.211,2707.3078,
1675.301,2698.2808,
1672.390,2755.4025,
1669.480,2806.4185,
1666.569,2828.3926,
1663.659,2917.9196,
1660.748,2959.6961,
1657.837,3033.4468,
1654.927,3043.0466,
1652.016,3080.3565,
1649.106,3245.7396,
1646.195,3266.233,
1643.285,3308.8477,
1640.374,3423.5531,
1637.463,3579.2048,
1634.553,3633.4815,
1631.642,3784.9862,
1628.732,4035.6247,
1625.821,4266.375,
1622.911,4456.1737,
1620.000,4697.1885,
1617.089,5038.3843,
1614.179,5393.154,
1611.268,5713.2787,
1608.358,6061.7214,
1605.447,6294.166,
1602.536,6342.6617,
1599.626,6440.923,
1596.715,6431.098,
1593.805,6449.8196,
1590.894,6344.8082,
1587.984,6337.1787,
1585.073,6189.3571,
1582.162,6124.0104,
1579.252,6107.2487,
1576.341,5997.9075,
1573.431,6022.9395,
1570.520,5991.3874,
1567.610,5928.8179,
1564.699,5882.5238,
1561.788,5784.6311,
1558.878,5700.4566,
1555.967,5567.2583,
1553.057,5468.7849,
1550.146,5345.0793,
1547.235,5234.4336,
1544.325,5132.2551,
1541.414,5036.5855,
1538.504,4946.8145,
1535.593,4887.9725,
1532.683,4807.5845,
1529.772,4706.8628,
1526.861,4704.5618,
1523.951,4704.1778,
1521.040,4667.24,
1518.130,4660.0261,
1515.219,4592.97,
1512.309,4559.0517,
1509.398,4448.368,
1506.487,4396.4949,
1503.577,4317.1676,
1500.666,4265.9969,
1497.756,4228.436,
1494.845,4180.1288,
1491.934,4129.0768,
1489.024,4076.1397,
1486.113,4020.4715,
1483.203,3914.9989,
1480.292,3869.1581,
1477.382,3802.6314,
1474.471,3741.4399,
1471.560,3679.356,
1468.650,3621.6201,
1465.739,3610.9359,
1462.829,3574.6664,
1459.918,3500.8408,
1457.008,3483.0503,
1454.097,3483.7637,
1451.186,3505.4995,
1448.276,3549.6464,
1445.365,3543.7539,
1442.455,3571.8443,
1439.544,3517.1092,
1436.633,3508.1725,
1433.723,3517.0008,
1430.812,3514.5112,
1427.902,3504.4382,
1424.991,3470.3188,
1422.081,3510.5365,
1419.170,3561.7733,
1416.259,3589.5016,
1413.349,3533.0755,
1410.438,3551.0381,
1407.528,3558.8814,
1404.617,3487.9045,
1401.707,3432.771,
1398.796,3435.6346,
1395.885,3443.1161,
1392.975,3433.7082,
1390.064,3405.7654,
1387.154,3376.6814,
1384.243,3436.1094,
1381.332,3370.1313,
1378.422,3393.5102,
1375.511,3553.6997,
1372.601,3723.9758,
1369.690,3773.3961,
1366.780,3847.365,
1363.869,3898.6679,
1360.958,3975.291,
1358.048,4122.1659,
1355.137,4202.3527,
1352.227,4266.9301,
1349.316,4372.3563,
1346.406,4451.904,
1343.495,4540.6682,
1340.584,4631.7843,
1337.674,4737.0773,
1334.763,4828.4497,
1331.853,4859.9756,
1328.942,4916.3968,
1326.032,4988.4997,
1323.121,5098.0934,
1320.210,5245.1224,
1317.300,5360.683,
1314.389,5474.2236,
1311.479,5605.2884,
1308.568,5718.2956,
1305.657,5835.9701,
1302.747,6023.0486,
1299.836,6195.0316,
1296.926,6392.5312,
1294.015,6527.6717,
1291.105,6697.0308,
1288.194,6912.5458,
1285.283,7110.8946,
1282.373,7288.5855,
1279.462,7524.1487,
1276.552,7659.8563,
1273.641,7720.5055,
1270.731,7783.144,
1267.820,7705.8691,
1264.909,7763.689,
1261.999,7724.1488,
1259.088,7748.776,
1256.178,7625.2074,
1253.267,7463.086,
1250.356,7217.7511,
1247.446,6998.0373,
1244.535,6746.2371,
1241.625,6462.3874,
1238.714,6192.5483,
1235.804,5926.8474,
1232.893,5743.646,
1229.982,5645.2449,
1227.072,5556.5244,
1224.161,5437.6225,
1221.251,5352.9667,
1218.340,5280.0729,
1215.430,5190.59,
1212.519,5113.9899,
1209.608,5060.2787,
1206.698,5016.4201,
1203.787,5010.2349,
1200.877,5041.4291,
1197.966,5108.866,
1195.055,5276.927,
1192.145,5421.7082,
1189.234,5582.8718,
1186.324,5635.0668,
1183.413,5648.8642,
1180.503,5713.9638,
1177.592,5750.8353,
1174.681,5655.1815,
1171.771,5619.9409,
1168.860,5606.5446,
1165.950,5634.2764,
1163.039,5630.0756,
1160.129,5625.8399,
1157.218,5562.3121,
1154.307,5499.9285,
1151.397,5479.1865,
1148.486,5390.1981,
1145.576,5397.2025,
1142.665,5303.9717,
1139.754,5280.7911,
1136.844,5243.6355,
1133.933,5210.4818,
1131.023,5187.8081,
1128.112,5161.8951,
1125.202,5143.9118,
1122.291,5168.7352,
1119.380,5130.4319,
1116.470,5148.965,
1113.559,5098.6691,
1110.649,5027.5881,
1107.738,5014.3245,
1104.828,5022.4246,
1101.917,5000.64,
1099.006,4978.7652,
1096.096,5027.605,
1093.185,5017.0689,
1090.275,5121.4551,
1087.364,5156.5418,
1084.453,5219.7463,
1081.543,5278.8348,
1078.632,5302.5179,
1075.722,5313.241,
1072.811,5303.6008,
1069.901,5350.7569,
1066.990,5297.6668,
1064.079,5186.256,
1061.169,5153.5052,
1058.258,5151.9689,
1055.348,5160.2365,
1052.437,5227.3015,
1049.527,5262.008,
1046.616,5229.8614,
1043.705,5276.3497,
1040.795,5295.081,
1037.884,5310.3992,
1034.974,5347.085,
1032.063,5385.5808,
1029.153,5385.547,
1026.242,5429.6598,
1023.331,5444.5825,
1020.421,5487.6819,
1017.510,5525.4199,
1014.600,5564.0882,
1011.689,5603.232,
1008.778,5641.4298,
1005.868,5747.6902,
1002.957,5796.7304,
1000.047,6005.1781,
997.136,6281.1154,
994.226,6443.6651,
991.315,6457.1584,
988.404,6427.5743,
985.494,6427.5046,
982.583,6349.558,
979.673,6370.4425,
976.762,6415.1277,
973.852,6453.7204,
970.941,6456.9491,
968.030,6432.3774,
965.120,6512.386,
962.209,6544.7826,
959.299,6543.1675,
956.388,6535.7703,
953.477,6548.6911,
950.567,6562.3159,
947.656,6537.9266,
944.746,6565.9619,
941.835,6539.7163,
938.925,6553.6496,
936.014,6581.9539,
933.103,6551.2292,
930.193,6464.4485,
927.282,6461.6883,
924.372,6322.1632,
921.461,6200.4176,
918.551,6145.822,
915.640,6088.206,
912.729,6017.3208,
909.819,5971.5676,
906.908,5830.0402,
903.998,5850.0877,
901.087,5895.4404,
898.176,5915.3412,
895.266,5934.5157,
892.355,5984.6477,
889.445,6008.1472,
886.534,6093.4069,
883.624,6192.3355,
880.713,6252.1539,
877.802,6242.4165,
874.892,6100.3713,
871.981,5704.2724,
869.071,5451.1423,
866.160,5599.7487,
863.250,5863.9547,
860.339,6053.8879,
857.428,6099.8934,
854.518,6072.9652,
851.607,5924.8569,
848.697,5722.481,
845.786,5615.7827,
842.875,5704.8532,
839.965,5940.3186,
837.054,6050.6873,
834.144,6089.6386,
831.233,6081.2512,
828.323,6036.1571,
825.412,5985.0495,
822.501,5946.0795,
819.591,5884.0996,
816.680,5784.4934,
813.770,5653.7446,
810.859,5546.4797,
807.949,5496.5573,
805.038,5500.3717,
802.127,5460.0384,
799.217,5421.962,
796.306,5366.547,
793.396,5354.6624,
790.485,5379.6162,
787.574,5349.6787,
784.664,5413.6475,
781.753,5507.781,
778.843,5579.6153,
775.932,5612.25,
773.022,5611.616,
770.111,5607.5281,
767.200,5550.1516,
764.290,5505.6676,
761.379,5495.7028,
758.469,5492.4623,
755.558,5425.4931,
752.648,5433.6392,
749.737,5428.0693,
746.826,5361.7764,
743.916,5260.3729,
741.005,5169.8611,
738.095,5051.3271,
735.184,4922.8404,
732.274,4873.5687,
729.363,4959.6873,
726.452,5154.9607,
723.542,5258.5631,
720.631,5341.4684,
717.721,5437.4285,
714.810,5483.6364,
711.899,5475.2005,
708.989,5492.1459,
706.078,5551.5464,
703.168,5494.5979,
700.257,5430.0968,
697.347,5402.5111,
694.436,5396.25,
691.525,5396.25,
688.615,5394.9922,
685.704,5406.3374,
682.794,5426.2287,
679.883,5441.9172,
676.973,5501.2186,
674.062,5528.564,
671.151,5527.6067,
668.241,5493.5694,
665.330,5424.0987,
662.420,5420.9038,
659.509,5433.5836,
656.598,5470.677,
653.688,5536.395,
650.777,5626.4939,
647.867,5604.1968,
644.956,5585.0095,
642.046,5460.5771,
639.135,5298.5077,
636.224,5303.8627,
633.314,5426.1293,
630.403,5444.8346,
627.493,5438.9385,
624.582,5437.07,
621.672,5409.3502,
618.761,5367.9732,
615.850,5407.0429,
612.940,5468.7175,
610.029,5497.0434,
607.119,5441.7693,
604.208,5422.7597,
601.297,5414.7574,
598.387,5407.9505,
595.476,5397.25,
592.566,5397.25,
589.655,5352.5456,
586.745,5343.4389,
583.834,5342.3895,
580.923,5268.5059,
578.013,5310.8815,
575.102,5323.3972,
572.192,5361.0503,
569.281,5428.656,
566.371,5436.4822,
563.460,5414.675,
560.549,5407.6864,
557.639,5420.1868,
554.728,5450.1077,
551.818,5495.3661,
548.907,5544.2524,
545.996,5561.0854,
543.086,5550.7664,
540.175,5562.4461,
537.265,5597.2911,
534.354,5626.3041,
531.444,5650.0524,
528.533,5669.8085,
525.622,5663.601,
522.712,5755.69,
519.801,5836.4896,
516.891,5880.2053,
513.980,5934.4061,
511.070,5999.8239,
508.159,6125.5389,
505.248,6252.525,
502.338,6307.3677,
499.427,6413.8805,
496.517,6523.1388,
493.606,6599.3827,
490.695,6634.7389,
487.785,6688.6243,
484.874,6694.6651,
481.964,6678.7153,
479.053,6664.685,
476.143,6691.5637,
473.232,6587.4977,
470.321,6561.3339,
467.411,6604.3488,
464.500,6684.9094,
461.590,6710.9445,
458.679,6756.2203,
455.769,6813.4003,
452.858,6878.283,
449.947,6955.4401,
447.037,7013.1165,
444.126,7092.747,
441.216,7186.8801,
438.305,7213.5477,
435.395,7204.1373,
432.484,7226.8394,
429.573,7245.7072,
426.663,7149.1694,
423.752,6731.865,
420.842,6261.971,
417.931,5955.62,
415.020,6101.2248,
412.110,6803.4773,
409.199,7276.3647,
406.289,7486.7694,
403.378,7435.8479,
400.468,7317.1567,
397.557,7322.4386,
394.646,7430.0477,
391.736,7614.0991,
388.825,7703.0984,
385.915,7693.593,
383.004,7682.238,
380.094,7736.5496,
377.183,7820.8269,
374.272,7921.8676,
371.362,7996.0798,
368.451,8018.7089,
365.541,8042.7261,
362.630,8081.4782,
359.719,8113.2814,
356.809,8127.153,
353.898,8158.6025,
350.988,8167.7925,
348.077,8164.1843,
345.167,8154.6663,
342.256,8162.884,
339.345,8163.6557,
336.435,8167.5243,
333.524,8182.3304,
330.614,8216.6076,
327.703,8265.242,
324.793,8311.3039,
321.882,8340.36,
318.971,8385.71,
316.061,8473.5205,
313.150,8579.0428,
310.240,8674.7757,
307.329,8778.2992,
304.418,8810.9547,
301.508,8782.1638,
298.597,8706.6413,
295.687,8737.4982,
292.776,8769.8334,
289.866,8815.1605,
286.955,8933.3566,
284.044,8991.3625,
281.134,9083.0127,
278.223,9207.9503,
275.313,9274.2673,
272.402,9277.2128,
269.492,9239.149,
266.581,9176.6148,
263.670,9209.6979,
260.760,9329.9953,
257.849,9496.6899,
254.939,9683.83,
252.028,9689.1454,
249.117,9722.2279,
246.207,9760.8182,
243.296,9763.0143,
240.386,9807.6534,
237.475,9880.8101,
234.565,9964.5063,
231.654,9991.5305,
228.743,9973.6599,
225.833,9975.1536,
222.922,10017.401,
220.012,9999.1868,
217.101,10018.767,
214.191,10073.007,
211.280,10165.395,
208.369,10150.72,
205.459,10120.287,
202.548,10092.882,
199.638,10108.121,
196.727,10175.21,
193.816,10200.576,
190.906,10152.18,
187.995,10207.206,
185.085,10258.877,
182.174,10303.085,
179.264,10331.996,
176.353,10380.105,
173.442,10409.601,
170.532,10400.785,
167.621,10259.473,
164.711,10085.128,
161.800,9802.7488,
158.890,9335.6456,
155.979,8846.2765,
153.068,8237.7334,
150.158,7478.159,
147.247,6431.3846,
144.337,5374.0591,
141.426,4290.0982,
138.516,3168.1634,
135.605,2299.3476,
132.694,1573.2926,
129.784,1003.673,
126.873,682.57969,
123.963,474.98247,
121.052,329.57253,
118.141,234.62357,
115.231,183.08893,
112.320,147.42274,
109.410,122.75028,
106.499,99.249154,
103.589,89.20771,
100.678,82.533783,
97.767,75.424407,
94.857,68.32011,
91.946,64.040667,
89.036,61.346817,
86.125,55.673175,
83.215,52.657239,
80.304,48.61624,
77.393,40.826371,
74.483,46.146215,
71.572,45.264127,
68.662,38.665605,
65.751,42.904311,
62.840,39.914682,
59.930,34.688141,
57.019,32.572895,
54.109,27.472713,
51.198,25.456437,
48.288,28.2047,
45.377,22.577676,
42.466,21.898877,
39.556,23.559289,
36.645,19.346147,
33.735,18.769248,
30.824,17.482904,
27.914,11.873502,
25.003,17.476375,
22.092,18.020954,
19.182,11.021171,
16.271,4.02627,
13.361,-56.068285,
10.450,-209.02727,
7.539,-640.58617,
4.629,-1127.0856,
1.718,-1422.3714,
-1.192,-1241.8109,
-4.103,-808.5731,
-7.013,-378.96987,
-9.924,-1.75,
