,PL3F62~1,
Wavenumbers [1/cm],Intensity,
3014.167,4.75,
3011.256,-0.49994632,
3008.346,303.32018,
3005.435,332.86661,
3002.525,354.60011,
2999.614,377.79935,
2996.704,376.11289,
2993.793,389.25461,
2990.882,394.78812,
2987.972,414.68442,
2985.061,427.02097,
2982.151,444.65923,
2979.240,452.4696,
2976.329,457.78822,
2973.419,472.22676,
2970.508,503.41653,
2967.598,508.60301,
2964.687,500.07744,
2961.777,524.80992,
2958.866,533.08729,
2955.955,530.02655,
2953.045,565.41892,
2950.134,567.19603,
2947.224,578.0311,
2944.313,614.10969,
2941.403,609.96442,
2938.492,619.19716,
2935.581,609.43838,
2932.671,628.07191,
2929.760,640.9577,
2926.850,659.86165,
2923.939,655.99301,
2921.028,660.39132,
2918.118,666.29535,
2915.207,699.15493,
2912.297,675.8177,
2909.386,685.72811,
2906.476,692.0674,
2903.565,678.76704,
2900.654,682.71357,
2897.744,679.64942,
2894.833,678.76018,
2891.923,668.47749,
2889.012,638.16041,
2886.102,644.25272,
2883.191,609.7736,
2880.280,541.98442,
2877.370,368.22127,
2874.459,295.24109,
2871.549,449.64558,
2868.638,649.71895,
2865.727,659.30765,
2862.817,710.72323,
2859.906,696.4594,
2856.996,727.17075,
2854.085,718.34239,
2851.175,720.84637,
2848.264,733.17166,
2845.353,720.8794,
2842.443,733.93747,
2839.532,736.98885,
2836.622,741.6263,
2833.711,725.01687,
2830.801,728.84338,
2827.890,739.58216,
2824.979,757.50384,
2822.069,738.98881,
2819.158,757.84973,
2816.248,759.23263,
2813.337,789.82196,
2810.427,781.91942,
2807.516,783.85797,
2804.605,782.54567,
2801.695,776.65788,
2798.784,779.23254,
2795.874,763.2935,
2792.963,769.82095,
2790.052,753.75107,
2787.142,753.69754,
2784.231,744.7842,
2781.321,754.3786,
2778.410,774.12435,
2775.500,788.75,
2772.589,777.98089,
2769.678,770.46677,
2766.768,782.47624,
2763.857,775.27794,
2760.947,799.81935,
2758.036,797.19578,
2755.126,793.03205,
2752.215,798.4954,
2749.304,780.79318,
2746.394,796.67735,
2743.483,819.85,
2740.573,804.7809,
2737.662,804.63314,
2734.751,801.30824,
2731.841,835.64379,
2728.930,811.48712,
2726.020,826.40799,
2723.109,830.389,
2720.199,842.47496,
2717.288,846.03102,
2714.377,834.17098,
2711.467,844.04452,
2708.556,859.32474,
2705.646,870.87682,
2702.735,866.26805,
2699.825,885.21728,
2696.914,876.2259,
2694.003,845.63129,
2691.093,861.78492,
2688.182,850.67815,
2685.272,859.75,
2682.361,871.57315,
2679.450,871.34678,
2676.540,856.46134,
2673.629,887.76347,
2670.719,893.95426,
2667.808,879.81998,
2664.898,891.76264,
2661.987,899.28309,
2659.076,884.51293,
2656.166,898.87983,
2653.255,912.11905,
2650.345,914.96597,
2647.434,939.69313,
2644.524,943.95861,
2641.613,940.23586,
2638.702,953.57641,
2635.792,916.59347,
2632.881,941.84485,
2629.971,929.08539,
2627.060,963.91781,
2624.149,942.34689,
2621.239,931.50741,
2618.328,952.51297,
2615.418,964.4409,
2612.507,955.61165,
2609.597,962.1991,
2606.686,963.08736,
2603.775,964.5873,
2600.865,973.33367,
2597.954,979.80411,
2595.044,994.80314,
2592.133,992.53354,
2589.223,991.61736,
2586.312,1027.8957,
2583.401,1026.8923,
2580.491,1011.1491,
2577.580,1031.745,
2574.670,1029.5802,
2571.759,1019.6387,
2568.848,1033.6231,
2565.938,1028.3214,
2563.027,1030.4568,
2560.117,1032.3762,
2557.206,1042.1744,
2554.296,1033.4365,
2551.385,1042.8821,
2548.474,1046.5277,
2545.564,1059.2752,
2542.653,1078.9614,
2539.743,1063.7007,
2536.832,1063.2192,
2533.922,1071.2073,
2531.011,1096.7253,
2528.100,1081.8197,
2525.190,1102.6295,
2522.279,1085.5307,
2519.369,1058.6369,
2516.458,1082.6593,
2513.548,1101.7046,
2510.637,1085.6885,
2507.726,1082.2519,
2504.816,1088.564,
2501.905,1092.0689,
2498.995,1106.4069,
2496.084,1115.5235,
2493.173,1114.4079,
2490.263,1108.5703,
2487.352,1142.6264,
2484.442,1159.902,
2481.531,1143.798,
2478.621,1134.9822,
2475.710,1142.7883,
2472.799,1145.037,
2469.889,1143.052,
2466.978,1148.3067,
2464.068,1158.2844,
2461.157,1151.9849,
2458.247,1169.3235,
2455.336,1166.112,
2452.425,1187.9293,
2449.515,1178.0619,
2446.604,1210.5633,
2443.694,1198.2606,
2440.783,1209.3277,
2437.872,1238.7135,
2434.962,1224.6164,
2432.051,1215.0591,
2429.141,1229.5149,
2426.230,1230.2937,
2423.320,1234.1641,
2420.409,1246.2884,
2417.498,1248.3652,
2414.588,1238.2101,
2411.677,1269.5389,
2408.767,1281.8967,
2405.856,1253.4048,
2402.946,1276.078,
2400.035,1271.5669,
2397.124,1272.8516,
2394.214,1266.3988,
2391.303,1275.2527,
2388.393,1268.3128,
2385.482,1264.7059,
2382.571,1229.7756,
2379.661,1243.9356,
2376.750,1298.6415,
2373.840,1319.7312,
2370.929,1322.75,
2368.019,1334.641,
2365.108,1335.2866,
2362.197,1315.3609,
2359.287,1325.7249,
2356.376,1330.7465,
2353.466,1337.7191,
2350.555,1352.4652,
2347.645,1362.1579,
2344.734,1373.5703,
2341.823,1370.8495,
2338.913,1384.5261,
2336.002,1386.4462,
2333.092,1361.1066,
2330.181,1385.2103,
2327.270,1403.365,
2324.360,1402.5731,
2321.449,1417.1956,
2318.539,1413.8356,
2315.628,1421.2372,
2312.718,1409.5011,
2309.807,1408.7747,
2306.896,1426.0254,
2303.986,1446.6267,
2301.075,1467.5372,
2298.165,1447.8072,
2295.254,1463.2761,
2292.344,1431.9574,
2289.433,1457.5223,
2286.522,1470.3751,
2283.612,1462.9605,
2280.701,1524.6019,
2277.791,1480.9522,
2274.880,1511.676,
2271.969,1517.9763,
2269.059,1515.6328,
2266.148,1546.8502,
2263.238,1543.4566,
2260.327,1570.5772,
2257.417,1536.5272,
2254.506,1566.7728,
2251.595,1568.0373,
2248.685,1575.5884,
2245.774,1590.4641,
2242.864,1560.3335,
2239.953,1563.9708,
2237.043,1559.8289,
2234.132,1587.0097,
2231.221,1607.962,
2228.311,1600.7023,
2225.400,1633.3411,
2222.490,1658.9488,
2219.579,1673.8862,
2216.669,1645.3144,
2213.758,1661.103,
2210.847,1677.556,
2207.937,1703.6506,
2205.026,1712.7494,
2202.116,1741.0738,
2199.205,1759.6636,
2196.294,1757.5439,
2193.384,1792.9335,
2190.473,1797.3181,
2187.563,1822.0932,
2184.652,1894.5573,
2181.742,1924.2524,
2178.831,1978.6644,
2175.920,2024.3056,
2173.010,2130.9563,
2170.099,2172.1488,
2167.189,2327.4388,
2164.278,2441.8254,
2161.368,2595.0306,
2158.457,2752.4325,
2155.546,2898.428,
2152.636,3055.9997,
2149.725,3224.4143,
2146.815,3352.2129,
2143.904,3449.7982,
2140.993,3573.2684,
2138.083,3618.8228,
2135.172,3675.624,
2132.262,3676.9806,
2129.351,3662.7086,
2126.441,3588.3032,
2123.530,3448.3807,
2120.619,3304.0813,
2117.709,3100.3756,
2114.798,2904.5726,
2111.888,2769.0281,
2108.977,2576.5049,
2106.067,2408.436,
2103.156,2308.243,
2100.245,2157.7293,
2097.335,2115.839,
2094.424,2041.6547,
2091.514,2003.0967,
2088.603,1970.5611,
2085.692,1957.2964,
2082.782,1918.7543,
2079.871,1901.75,
2076.961,1869.9456,
2074.050,1870.0045,
2071.140,1840.5772,
2068.229,1864.9336,
2065.318,1858.157,
2062.408,1828.5904,
2059.497,1803.9464,
2056.587,1831.1216,
2053.676,1811.7186,
2050.766,1799.2119,
2047.855,1771.4905,
2044.944,1793.0257,
2042.034,1774.6749,
2039.123,1795.4503,
2036.213,1804.9411,
2033.302,1816.0108,
2030.391,1812.3095,
2027.481,1776.7625,
2024.570,1788.5065,
2021.660,1823.7987,
2018.749,1796.0539,
2015.839,1805.4987,
2012.928,1809.6242,
2010.017,1791.269,
2007.107,1809.4491,
2004.196,1808,
2001.286,1797.1458,
1998.375,1800.9252,
1995.465,1769.7125,
1992.554,1768.6382,
1989.643,1777.4735,
1986.733,1727.7298,
1983.822,1759.7877,
1980.912,1738.1061,
1978.001,1732.3344,
1975.090,1743.5622,
1972.180,1731.992,
1969.269,1724.75,
1966.359,1713.0742,
1963.448,1728.6655,
1960.538,1734.3155,
1957.627,1739.0998,
1954.716,1766.9456,
1951.806,1760.5145,
1948.895,1723.1062,
1945.985,1751.1716,
1943.074,1722.7979,
1940.164,1736.1058,
1937.253,1704.4681,
1934.342,1672.3398,
1931.432,1654.4629,
1928.521,1667.5186,
1925.611,1706.6524,
1922.700,1637.1892,
1919.790,1613.305,
1916.879,1618.3315,
1913.968,1679.675,
1911.058,1678.2665,
1908.147,1613.5034,
1905.237,1683.2499,
1902.326,1637.1885,
1899.415,1628.2731,
1896.505,1569.5814,
1893.594,1613.5489,
1890.684,1652.7827,
1887.773,1642.7761,
1884.863,1651.3331,
1881.952,1667.7249,
1879.041,1673.776,
1876.131,1649.5043,
1873.220,1657.697,
1870.310,1684.8127,
1867.399,1661.1658,
1864.489,1694.4913,
1861.578,1638.5632,
1858.667,1646.5793,
1855.757,1705.7428,
1852.846,1712.4936,
1849.936,1693.9372,
1847.025,1677.0371,
1844.114,1711.9688,
1841.204,1722.1626,
1838.293,1731.2458,
1835.383,1715.169,
1832.472,1727.623,
1829.562,1747.3888,
1826.651,1744.3311,
1823.740,1755.1255,
1820.830,1772.0966,
1817.919,1740.7318,
1815.009,1795.2551,
1812.098,1764.4587,
1809.188,1777.5717,
1806.277,1753.3254,
1803.366,1756.4487,
1800.456,1798.7942,
1797.545,1819.147,
1794.635,1839.0089,
1791.724,1821.6722,
1788.813,1854.3405,
1785.903,1809.5079,
1782.992,1749.0197,
1780.082,1698.6616,
1777.171,1623.069,
1774.261,1590.5554,
1771.350,1696.0063,
1768.439,1826.0087,
1765.529,1860.5685,
1762.618,1869.9969,
1759.708,1858.8476,
1756.797,1876.7879,
1753.887,1910.0066,
1750.976,1919.4156,
1748.065,1930.28,
1745.155,1923.5307,
1742.244,1903.183,
1739.334,1957.3735,
1736.423,1956.0753,
1733.512,1975.7664,
1730.602,1981.7659,
1727.691,2001.2445,
1724.781,2017.1889,
1721.870,2005.2642,
1718.960,2004.2167,
1716.049,2025.7244,
1713.138,2043.4299,
1710.228,2043.1391,
1707.317,2118.8231,
1704.407,2099.1029,
1701.496,2119.4502,
1698.586,2105.1183,
1695.675,2128.0784,
1692.764,2215.9017,
1689.854,2183.439,
1686.943,2163.3908,
1684.033,2238.8128,
1681.122,2244.682,
1678.211,2278.4264,
1675.301,2299.6852,
1672.390,2371.8427,
1669.480,2403.103,
1666.569,2447.0293,
1663.659,2469.6156,
1660.748,2523.8903,
1657.837,2631.6784,
1654.927,2585.554,
1652.016,2663.2285,
1649.106,2764.0475,
1646.195,2816.4693,
1643.285,2848.6211,
1640.374,2972.3772,
1637.463,3004.8125,
1634.553,3173.2721,
1631.642,3276.6718,
1628.732,3452.8047,
1625.821,3629.9351,
1622.911,3911.1553,
1620.000,4099.3688,
1617.089,4414.4017,
1614.179,4783.231,
1611.268,5010.385,
1608.358,5327.5793,
1605.447,5482.294,
1602.536,5610.9634,
1599.626,5609.6307,
1596.715,5603.3044,
1593.805,5516.8941,
1590.894,5499.7046,
1587.984,5400.0155,
1585.073,5337.9551,
1582.162,5220.3799,
1579.252,5142.2872,
1576.341,5128.9489,
1573.431,5182.0058,
1570.520,5131.0136,
1567.610,5051.1412,
1564.699,5041.6254,
1561.788,4911.9485,
1558.878,4846.8741,
1555.967,4739.6863,
1553.057,4651.6641,
1550.146,4568.452,
1547.235,4476.2109,
1544.325,4386.0245,
1541.414,4267.5218,
1538.504,4190.4463,
1535.593,4144.2052,
1532.683,4068.1609,
1529.772,3972.7258,
1526.861,3929.6827,
1523.951,3943.9958,
1521.040,3930.2765,
1518.130,3929.4248,
1515.219,3839.9904,
1512.309,3815.8581,
1509.398,3760.2009,
1506.487,3672.2706,
1503.577,3601.5708,
1500.666,3612.4456,
1497.756,3519.5462,
1494.845,3480.9901,
1491.934,3486.6996,
1489.024,3471.2997,
1486.113,3321.4683,
1483.203,3293.763,
1480.292,3248.4759,
1477.382,3180.9396,
1474.471,3100.7554,
1471.560,3125.7413,
1468.650,3057.3408,
1465.739,3025.4359,
1462.829,3021.9914,
1459.918,2991.3354,
1457.008,2965.673,
1454.097,2957.0527,
1451.186,2953.9976,
1448.276,2977.1502,
1445.365,3003.4625,
1442.455,2987.2164,
1439.544,2984.2513,
1436.633,2935.6348,
1433.723,2986.3912,
1430.812,2944.0215,
1427.902,2885.3137,
1424.991,2909.0078,
1422.081,2946.4491,
1419.170,2974.8078,
1416.259,2973.8896,
1413.349,2947.827,
1410.438,2956.5447,
1407.528,2897.4446,
1404.617,2868.3827,
1401.707,2876.3997,
1398.796,2853.2606,
1395.885,2869.8094,
1392.975,2917.8118,
1390.064,2881.3923,
1387.154,2870.0588,
1384.243,2898.855,
1381.332,2931.6634,
1378.422,2891.7347,
1375.511,3065.976,
1372.601,3177.4953,
1369.690,3175.6061,
1366.780,3283.0509,
1363.869,3378.5859,
1360.958,3383.9435,
1358.048,3465.12,
1355.137,3577.69,
1352.227,3635.5605,
1349.316,3731.6264,
1346.406,3860.6659,
1343.495,3898.6316,
1340.584,4000.0358,
1337.674,4013.0445,
1334.763,4149.9144,
1331.853,4180.513,
1328.942,4195.9814,
1326.032,4307.8588,
1323.121,4362.3886,
1320.210,4481.2951,
1317.300,4555.8179,
1314.389,4662.7657,
1311.479,4798.371,
1308.568,4917.2206,
1305.657,5038.5742,
1302.747,5124.5596,
1299.836,5300.0402,
1296.926,5496.4667,
1294.015,5684.0087,
1291.105,5844.0837,
1288.194,6058.0458,
1285.283,6241.3586,
1282.373,6359.9294,
1279.462,6483.9444,
1276.552,6605.8526,
1273.641,6702.331,
1270.731,6763.1619,
1267.820,6765.697,
1264.909,6777.1233,
1261.999,6749.8512,
1259.088,6725.224,
1256.178,6646.6689,
1253.267,6412.0305,
1250.356,6257.3843,
1247.446,6069.6549,
1244.535,5849.3084,
1241.625,5617.5207,
1238.714,5364.5687,
1235.804,5144.2259,
1232.893,5036.015,
1229.982,4963.0584,
1227.072,4824.5457,
1224.161,4734.0616,
1221.251,4648.7661,
1218.340,4593.0072,
1215.430,4501.4277,
1212.519,4458.4076,
1209.608,4442.5406,
1206.698,4379.3459,
1203.787,4386.363,
1200.877,4361.724,
1197.966,4522.6735,
1195.055,4618.6346,
1192.145,4738.1867,
1189.234,4882.3959,
1186.324,4955.3877,
1183.413,5005.613,
1180.503,5038.2245,
1177.592,4990.184,
1174.681,4938.4966,
1171.771,4935.5343,
1168.860,4882.842,
1165.950,4898.7135,
1163.039,4854.1634,
1160.129,4840.4181,
1157.218,4832.7701,
1154.307,4795.3754,
1151.397,4743.4981,
1148.486,4713.2457,
1145.576,4736.3215,
1142.665,4680.383,
1139.754,4622.0505,
1136.844,4590.1415,
1133.933,4560.6358,
1131.023,4545.2779,
1128.112,4532.6089,
1125.202,4509.3007,
1122.291,4506.254,
1119.380,4516.7587,
1116.470,4517.6412,
1113.559,4460.5296,
1110.649,4496.1377,
1107.738,4494.28,
1104.828,4471.2466,
1101.917,4456.406,
1099.006,4419.2344,
1096.096,4450.1263,
1093.185,4456.2723,
1090.275,4495.595,
1087.364,4529.4504,
1084.453,4587.4345,
1081.543,4629.0087,
1078.632,4661.4483,
1075.722,4712.8604,
1072.811,4690.1366,
1069.901,4667.4319,
1066.990,4647.9667,
1064.079,4598.1556,
1061.169,4592.7667,
1058.258,4615.9137,
1055.348,4621.2252,
1052.437,4606.8176,
1049.527,4639.6633,
1046.616,4689.1866,
1043.705,4727.1221,
1040.795,4731.0035,
1037.884,4746.968,
1034.974,4753.8325,
1032.063,4739.4729,
1029.153,4766.2667,
1026.242,4837.1931,
1023.331,4831.4172,
1020.421,4862.5138,
1017.510,4929.4159,
1014.600,4972.0188,
1011.689,4991.7094,
1008.778,5050.5314,
1005.868,5131.9161,
1002.957,5261.8295,
1000.047,5435.3581,
997.136,5624.311,
994.226,5729.2421,
991.315,5728.005,
988.404,5697.5323,
985.494,5735.4292,
982.583,5631.7859,
979.673,5694.3045,
976.762,5754.4535,
973.852,5779.4021,
970.941,5759.0395,
968.030,5710.1143,
965.120,5751.7643,
962.209,5755.1745,
959.299,5780.5387,
956.388,5790.19,
953.477,5773.3089,
950.567,5780.0751,
947.656,5865.6386,
944.746,5864.789,
941.835,5842.0752,
938.925,5791.3445,
936.014,5806.1928,
933.103,5814.7963,
930.193,5747.1677,
927.282,5685.1754,
924.372,5619.218,
921.461,5478.9344,
918.551,5423.6169,
915.640,5362.5073,
912.729,5288.2867,
909.819,5275.8494,
906.908,5170.5463,
903.998,5163.9546,
901.087,5207.6689,
898.176,5269.0168,
895.266,5310.0196,
892.355,5330.3407,
889.445,5424.3386,
886.534,5455.6403,
883.624,5512.2124,
880.713,5596.972,
877.802,5618.6213,
874.892,5500.0083,
871.981,5270.4887,
869.071,5090.0396,
866.160,5165.6937,
863.250,5321.2116,
860.339,5419.8239,
857.428,5421.5587,
854.518,5417.5485,
851.607,5306.8832,
848.697,5163.2551,
845.786,5081.3207,
842.875,5128.0092,
839.965,5271.862,
837.054,5332.1966,
834.144,5371.9767,
831.233,5344.4192,
828.323,5300.5377,
825.412,5266.6668,
822.501,5228.3665,
819.591,5098.6218,
816.680,5016.2242,
813.770,4942.2443,
810.859,4892.6029,
807.949,4872.5768,
805.038,4870.2699,
802.127,4833.2292,
799.217,4812.606,
796.306,4795.9661,
793.396,4795.5363,
790.485,4798.4845,
787.574,4767.1751,
784.664,4857.3875,
781.753,4917.364,
778.843,4971.5855,
775.932,5015.6264,
773.022,5025.197,
770.111,4944.2568,
767.200,4915.1493,
764.290,4868.4543,
761.379,4847.2335,
758.469,4851.8442,
755.558,4824.1697,
752.648,4771.2204,
749.737,4788.1671,
746.826,4781.77,
743.916,4735.9705,
741.005,4667.1864,
738.095,4555.9593,
735.184,4462.6633,
732.274,4449.6823,
729.363,4504.0716,
726.452,4593.2448,
723.542,4679.0405,
720.631,4790.0209,
717.721,4829.0513,
714.810,4852.784,
711.899,4877.9183,
708.989,4852.9036,
706.078,4886.4047,
703.168,4872.89,
700.257,4835.646,
697.347,4802.0979,
694.436,4799.4227,
691.525,4787.3656,
688.615,4777.2031,
685.704,4784.8374,
682.794,4805.1968,
679.883,4822.4533,
676.973,4882.5561,
674.062,4866.0363,
671.151,4852.38,
668.241,4841.2169,
665.330,4794.0315,
662.420,4778.8556,
659.509,4759.2418,
656.598,4788.6975,
653.688,4849.4118,
650.777,4882.4791,
647.867,4903.9799,
644.956,4873.4584,
642.046,4786.2435,
639.135,4704.2305,
636.224,4743.8495,
633.314,4763.6979,
630.403,4757.517,
627.493,4762.4245,
624.582,4773.7449,
621.672,4733.3532,
618.761,4760.6277,
615.850,4769.75,
612.940,4782.7283,
610.029,4805.6456,
607.119,4793.0115,
604.208,4786.7799,
601.297,4776.7737,
598.387,4781.6484,
595.476,4811.893,
592.566,4792.2163,
589.655,4773.2006,
586.745,4738.7119,
583.834,4689.5987,
580.923,4636.0106,
578.013,4679.171,
575.102,4686.1613,
572.192,4720.2649,
569.281,4776.6426,
566.371,4714.8153,
563.460,4723.5648,
560.549,4746.3175,
557.639,4771.5383,
554.728,4793.9818,
551.818,4813.4897,
548.907,4899.4114,
545.996,4929.9778,
543.086,4893.0658,
540.175,4880.6075,
537.265,4863.0916,
534.354,4906.4174,
531.444,4952.4061,
528.533,4945.0744,
525.622,4963.6971,
522.712,5027.2118,
519.801,5111.5756,
516.891,5191.3842,
513.980,5219.2588,
511.070,5264.0108,
508.159,5322.3431,
505.248,5402.0511,
502.338,5510.5966,
499.427,5607.8474,
496.517,5694.8408,
493.606,5765.6409,
490.695,5818.7411,
487.785,5861.8494,
484.874,5868.1038,
481.964,5850.7236,
479.053,5828.037,
476.143,5833.4127,
473.232,5746.7022,
470.321,5750.2164,
467.411,5792.7891,
464.500,5803.4954,
461.590,5872.412,
458.679,5879.0932,
455.769,5927.3519,
452.858,6053.7956,
449.947,6044.6284,
447.037,6081.5827,
444.126,6144.4591,
441.216,6226.0798,
438.305,6325.8928,
435.395,6285.3322,
432.484,6286.7562,
429.573,6332.4775,
426.663,6348.4405,
423.752,6070.7824,
420.842,5835.5785,
417.931,5691.5622,
415.020,5662.7446,
412.110,6151.9308,
409.199,6500.454,
406.289,6647.9704,
403.378,6559.7065,
400.468,6546.8546,
397.557,6575.1414,
394.646,6663.39,
391.736,6819.243,
388.825,6803.4041,
385.915,6793.9603,
383.004,6811.4513,
380.094,6866.9785,
377.183,6891.0577,
374.272,6968.3115,
371.362,7033.9309,
368.451,7048.5676,
365.541,7045.5655,
362.630,7090.6342,
359.719,7126.9742,
356.809,7122.8859,
353.898,7125.1323,
350.988,7136.0572,
348.077,7149.1061,
345.167,7159.9392,
342.256,7163.6745,
339.345,7162.0928,
336.435,7170.0209,
333.524,7198.4881,
330.614,7253.6296,
327.703,7256.8881,
324.793,7246.3279,
321.882,7253.887,
318.971,7310.3887,
316.061,7400.0672,
313.150,7498.9237,
310.240,7579.8144,
307.329,7652.7844,
304.418,7656.1285,
301.508,7632.0669,
298.597,7652.0582,
295.687,7610.4066,
292.776,7637.2503,
289.866,7728.8162,
286.955,7847.751,
284.044,7906.495,
281.134,7938.8963,
278.223,7959.5402,
275.313,8005.9621,
272.402,8047.6997,
269.492,8050.1546,
266.581,8010.5847,
263.670,8078.2212,
260.760,8210.0624,
257.849,8330.2006,
254.939,8380.1047,
252.028,8393.7792,
249.117,8417.9368,
246.207,8435.0677,
243.296,8413.1066,
240.386,8477.3552,
237.475,8519.2812,
234.565,8517.3263,
231.654,8438.4449,
228.743,8471.807,
225.833,8475.2114,
222.922,8398.1724,
220.012,8385.787,
217.101,8392.5457,
214.191,8427.3545,
211.280,8505.9205,
208.369,8439.0862,
205.459,8392.571,
202.548,8372.7416,
199.638,8355.3261,
196.727,8401.8808,
193.816,8429.1173,
190.906,8406.4707,
187.995,8398.5064,
185.085,8463.8412,
182.174,8542.4924,
179.264,8552.6111,
176.353,8593.4783,
173.442,8619.013,
170.532,8612.905,
167.621,8511.2474,
164.711,8397.0313,
161.800,8198.5711,
158.890,7846.6243,
155.979,7406.5981,
153.068,6896.1295,
150.158,6287.0818,
147.247,5448.5135,
144.337,4525.6661,
141.426,3599.5525,
138.516,2707.0229,
135.605,1921.5531,
132.694,1313.1319,
129.784,866.53517,
126.873,588.34966,
123.963,399.15666,
121.052,269.28792,
118.141,195.04211,
115.231,156.3792,
112.320,126.34638,
109.410,102.7957,
106.499,82.143196,
103.589,77.75,
100.678,73.947296,
97.767,63.99417,
94.857,58.899077,
91.946,53.525113,
89.036,47.959715,
86.125,42.995278,
83.215,37.502637,
80.304,35.186596,
77.393,39.435616,
74.483,37.12946,
71.572,36.837056,
68.662,38.265128,
65.751,33.31997,
62.840,29.823192,
59.930,29.061003,
57.019,33.996577,
54.109,25.792587,
51.198,21.861265,
48.288,26.72735,
45.377,23.913838,
42.466,21.101123,
39.556,17.713933,
36.645,11.394221,
33.735,10.269248,
30.824,11.633548,
27.914,14.438249,
25.003,13.504725,
22.092,9.843859,
19.182,3.4525228,
16.271,-5.6408489,
13.361,-64.882453,
10.450,-211.08025,
7.539,-616.80148,
4.629,-1027.9144,
1.718,-1250.1049,
-1.192,-1040.9615,
-4.103,-687.32382,
-7.013,-333.05546,
-9.924,-5.25,
