,PLA0AC~1,
Raman shift [1/cm],Intensity,
3014.167,3.125,
3011.256,-2.2750859,
3008.346,395.90136,
3005.435,478.62323,
3002.525,496.27768,
2999.614,500.31332,
2996.704,517.07242,
2993.793,524.59274,
2990.882,545.17082,
2987.972,568.21581,
2985.061,586.56835,
2982.151,617.06788,
2979.240,618.80846,
2976.329,658.69871,
2973.419,663.64824,
2970.508,681.79153,
2967.598,681.84548,
2964.687,726.15421,
2961.777,728.97107,
2958.866,739.78622,
2955.955,766.09621,
2953.045,800.67534,
2950.134,801.30575,
2947.224,835.34916,
2944.313,869.48469,
2941.403,880.98266,
2938.492,891.00848,
2935.581,896.78636,
2932.671,932.04777,
2929.760,938.10576,
2926.850,944.39342,
2923.939,955.40538,
2921.028,959.51917,
2918.118,972.86429,
2915.207,977.13145,
2912.297,981.13769,
2909.386,1005.1688,
2906.476,997.32728,
2903.565,996.5613,
2900.654,988.63055,
2897.744,982.11243,
2894.833,979.06318,
2891.923,968.016,
2889.012,947.87067,
2886.102,963.33311,
2883.191,967.12217,
2880.280,914.18721,
2877.370,936.89822,
2874.459,936.125,
2871.549,957.62527,
2868.638,993.21777,
2865.727,1010.2596,
2862.817,1001.9098,
2859.906,1011.2902,
2856.996,1028.6227,
2854.085,1009.7594,
2851.175,1002.4352,
2848.264,1013.831,
2845.353,1006.2544,
2842.443,1005.3368,
2839.532,1014.5279,
2836.622,989.51823,
2833.711,983.49548,
2830.801,968.53529,
2827.890,1023.6215,
2824.979,1008.051,
2822.069,1019.1932,
2819.158,1023.2247,
2816.248,1022.3663,
2813.337,1015.2177,
2810.427,1021.0299,
2807.516,1019.1323,
2804.605,1028.4471,
2801.695,1022.6119,
2798.784,1006.8992,
2795.874,1019.7108,
2792.963,1011.9109,
2790.052,1019.1241,
2787.142,1003.7039,
2784.231,1006.802,
2781.321,984.62788,
2778.410,1009.1389,
2775.500,1008.6174,
2772.589,1011.9346,
2769.678,1029.0568,
2766.768,1021.6182,
2763.857,1042.757,
2760.947,1052.666,
2758.036,1068.4435,
2755.126,1083.6955,
2752.215,1071.2339,
2749.304,1067.7203,
2746.394,1084.5263,
2743.483,1065.625,
2740.573,1082.4171,
2737.662,1062.3277,
2734.751,1064.7558,
2731.841,1074.4492,
2728.930,1065.9216,
2726.020,1086.5845,
2723.109,1112.3103,
2720.199,1082.2218,
2717.288,1096.5812,
2714.377,1102.2207,
2711.467,1127.6986,
2708.556,1134.6463,
2705.646,1116.5334,
2702.735,1124.7951,
2699.825,1138.396,
2696.914,1152.3632,
2694.003,1143.1071,
2691.093,1153.6064,
2688.182,1130.8339,
2685.272,1133.7537,
2682.361,1151.9077,
2679.450,1157.8986,
2676.540,1147.755,
2673.629,1171.1564,
2670.719,1146.8477,
2667.808,1160.1523,
2664.898,1165.3585,
2661.987,1184.825,
2659.076,1183.5065,
2656.166,1200.7051,
2653.255,1207.1199,
2650.345,1185.8437,
2647.434,1240.496,
2644.524,1223.8972,
2641.613,1236.0967,
2638.702,1202.7405,
2635.792,1225.4062,
2632.881,1242.2914,
2629.971,1227.9503,
2627.060,1218.7894,
2624.149,1242.6375,
2621.239,1251.3794,
2618.328,1250.7859,
2615.418,1244.4523,
2612.507,1252.0894,
2609.597,1260.5741,
2606.686,1278.125,
2603.775,1271.8829,
2600.865,1295.7053,
2597.954,1295.6938,
2595.044,1300.6706,
2592.133,1318.3415,
2589.223,1310.3418,
2586.312,1337.6627,
2583.401,1341.9827,
2580.491,1327.2356,
2577.580,1367.0656,
2574.670,1331.125,
2571.759,1339.3827,
2568.848,1338.7161,
2565.938,1361.2681,
2563.027,1341.809,
2560.117,1357.6671,
2557.206,1379.9184,
2554.296,1365.5209,
2551.385,1363.0171,
2548.474,1369.4581,
2545.564,1361.22,
2542.653,1399.4203,
2539.743,1398.9771,
2536.832,1428.4932,
2533.922,1384.5665,
2531.011,1416.2497,
2528.100,1429.2574,
2525.190,1405.8266,
2522.279,1422.7498,
2519.369,1411.5026,
2516.458,1424.2511,
2513.548,1440.3159,
2510.637,1441.6331,
2507.726,1424.1324,
2504.816,1417.877,
2501.905,1427.6902,
2498.995,1462.543,
2496.084,1467.8985,
2493.173,1461.2565,
2490.263,1478.8663,
2487.352,1505.8746,
2484.442,1494.4291,
2481.531,1489.077,
2478.621,1510.1772,
2475.710,1507.01,
2472.799,1496.0711,
2469.889,1513.4574,
2466.978,1503.9705,
2464.068,1514.4055,
2461.157,1522.28,
2458.247,1530.5368,
2455.336,1540.4009,
2452.425,1532.4269,
2449.515,1546.3329,
2446.604,1570.2332,
2443.694,1575.2409,
2440.783,1585.9381,
2437.872,1607.3803,
2434.962,1614.6503,
2432.051,1615.6373,
2429.141,1608.7192,
2426.230,1608.9294,
2423.320,1631.2249,
2420.409,1645.8236,
2417.498,1619.4396,
2414.588,1632.9993,
2411.677,1607.5235,
2408.767,1646.8957,
2405.856,1653.0631,
2402.946,1654.8095,
2400.035,1663.2166,
2397.124,1645.2801,
2394.214,1678.125,
2391.303,1681.8764,
2388.393,1694.8297,
2385.482,1722.9794,
2382.571,1694.4284,
2379.661,1710.9621,
2376.750,1746.3293,
2373.840,1754.3594,
2370.929,1721.4499,
2368.019,1771.1613,
2365.108,1761.1957,
2362.197,1763.473,
2359.287,1800.6632,
2356.376,1804.132,
2353.466,1788.4263,
2350.555,1806.2247,
2347.645,1787.6124,
2344.734,1832.7703,
2341.823,1819.5727,
2338.913,1843.4608,
2336.002,1829.6418,
2333.092,1862.0439,
2330.181,1865.7363,
2327.270,1869.4649,
2324.360,1852.3514,
2321.449,1874.7407,
2318.539,1857.6968,
2315.628,1869.5099,
2312.718,1869.8761,
2309.807,1924.2616,
2306.896,1919.0702,
2303.986,1894.6444,
2301.075,1900.6143,
2298.165,1915.1059,
2295.254,1921.0388,
2292.344,1909.2203,
2289.433,1932.6809,
2286.522,1928.2543,
2283.612,1938.7041,
2280.701,1972.0711,
2277.791,1964.686,
2274.880,1974.4871,
2271.969,1971.9563,
2269.059,2002.531,
2266.148,2018.2318,
2263.238,2031.82,
2260.327,2021.0219,
2257.417,2059.6506,
2254.506,2058.125,
2251.595,2064.405,
2248.685,2067.6519,
2245.774,2063.5207,
2242.864,2043.1723,
2239.953,2089.1732,
2237.043,2086.3839,
2234.132,2112.4235,
2231.221,2134.0448,
2228.311,2143.0425,
2225.400,2162.9412,
2222.490,2196.3238,
2219.579,2222.2021,
2216.669,2225.6369,
2213.758,2238.7799,
2210.847,2259.2157,
2207.937,2271.7178,
2205.026,2334.7906,
2202.116,2363.3384,
2199.205,2379.6862,
2196.294,2440.4069,
2193.384,2445.0995,
2190.473,2500.4736,
2187.563,2560.4053,
2184.652,2636.0478,
2181.742,2768.7426,
2178.831,2903.0435,
2175.920,3104.6096,
2173.010,3311.8591,
2170.099,3533.7714,
2167.189,3795.6606,
2164.278,4052.1451,
2161.368,4375.5454,
2158.457,4645.7955,
2155.546,4950.6166,
2152.636,5191.2204,
2149.725,5397.2457,
2146.815,5519.0217,
2143.904,5684.0283,
2140.993,5696.781,
2138.083,5707.7481,
2135.172,5661.4525,
2132.262,5588.9533,
2129.351,5480.7693,
2126.441,5296.6294,
2123.530,5076.0721,
2120.619,4772.0347,
2117.709,4475.9193,
2114.798,4157.0738,
2111.888,3851.7561,
2108.977,3608.8667,
2106.067,3421.5094,
2103.156,3208.7975,
2100.245,3102.0284,
2097.335,2938.1303,
2094.424,2860.5774,
2091.514,2812.8747,
2088.603,2740.3094,
2085.692,2706.6195,
2082.782,2671.9203,
2079.871,2639.3024,
2076.961,2591.0956,
2074.050,2585.3371,
2071.140,2598.9879,
2068.229,2544.7643,
2065.318,2535.001,
2062.408,2514.2914,
2059.497,2499.5179,
2056.587,2481.5206,
2053.676,2497.1737,
2050.766,2495.6639,
2047.855,2441.8972,
2044.944,2437.4503,
2042.034,2451.3041,
2039.123,2421.3641,
2036.213,2434.6784,
2033.302,2448.4513,
2030.391,2450.2941,
2027.481,2453.6616,
2024.570,2476.5672,
2021.660,2451.0171,
2018.749,2452.2267,
2015.839,2486.3127,
2012.928,2510.724,
2010.017,2477.3053,
2007.107,2506.7512,
2004.196,2489.494,
2001.286,2491.3759,
1998.375,2468.9862,
1995.465,2460.2714,
1992.554,2453.2368,
1989.643,2456.9522,
1986.733,2454.5031,
1983.822,2412.498,
1980.912,2437.0753,
1978.001,2432.9469,
1975.090,2419.5998,
1972.180,2407.0199,
1969.269,2444.9383,
1966.359,2438.7193,
1963.448,2454.8846,
1960.538,2439.9682,
1957.627,2402.0259,
1954.716,2479.7119,
1951.806,2429.0689,
1948.895,2446.2323,
1945.985,2439.308,
1943.074,2437.2468,
1940.164,2423.4035,
1937.253,2390.5424,
1934.342,2416.3731,
1931.432,2418.5698,
1928.521,2404.9696,
1925.611,2413.8912,
1922.700,2363.0988,
1919.790,2407.6908,
1916.879,2435.73,
1913.968,2398.173,
1911.058,2454.3772,
1908.147,2375.9148,
1905.237,2400.0809,
1902.326,2431.7724,
1899.415,2438.3628,
1896.505,2404.6009,
1893.594,2405.4848,
1890.684,2402.7983,
1887.773,2390.2371,
1884.863,2384.9359,
1881.952,2395.6799,
1879.041,2402.638,
1876.131,2391.7237,
1873.220,2399.5852,
1870.310,2449.394,
1867.399,2417.7008,
1864.489,2446.1639,
1861.578,2443.6692,
1858.667,2409.8316,
1855.757,2412.31,
1852.846,2431.8891,
1849.936,2453.124,
1847.025,2480.6554,
1844.114,2464.4567,
1841.204,2462.0096,
1838.293,2485.1167,
1835.383,2488.4855,
1832.472,2484.7528,
1829.562,2495.2622,
1826.651,2532.2112,
1823.740,2538.8453,
1820.830,2533.0384,
1817.919,2516.6518,
1815.009,2539.6683,
1812.098,2570.1565,
1809.188,2579.6909,
1806.277,2525.3644,
1803.366,2590.8921,
1800.456,2577.7845,
1797.545,2588.1109,
1794.635,2580.834,
1791.724,2606.5521,
1788.813,2647.9299,
1785.903,2667.1114,
1782.992,2676.9059,
1780.082,2656.9783,
1777.171,2634.1266,
1774.261,2643.4101,
1771.350,2673.6615,
1768.439,2703.0388,
1765.529,2717.5843,
1762.618,2751.5069,
1759.708,2755.125,
1756.797,2763.1932,
1753.887,2767.3043,
1750.976,2814.6564,
1748.065,2838.6795,
1745.155,2812.9638,
1742.244,2829.2726,
1739.334,2819.845,
1736.423,2847.9848,
1733.512,2832.8363,
1730.602,2872.7382,
1727.691,2871.7011,
1724.781,2927.478,
1721.870,2948.1488,
1718.960,2995.9922,
1716.049,2992.7014,
1713.138,3001.2399,
1710.228,2970.924,
1707.317,3031.5833,
1704.407,3082.3497,
1701.496,3118.1176,
1698.586,3086.9376,
1695.675,3103.7749,
1692.764,3195.0636,
1689.854,3180.9911,
1686.943,3234.2364,
1684.033,3203.9446,
1681.122,3314.2049,
1678.211,3294.3344,
1675.301,3432.6964,
1672.390,3469.3553,
1669.480,3546.6946,
1666.569,3618.6231,
1663.659,3736.1376,
1660.748,3799.3617,
1657.837,3914.8308,
1654.927,3992.273,
1652.016,4040.9755,
1649.106,4076.8632,
1646.195,4148.2349,
1643.285,4236.1986,
1640.374,4327.78,
1637.463,4453.422,
1634.553,4526.5486,
1631.642,4690.2423,
1628.732,4884.5945,
1625.821,5131.2388,
1622.911,5304.1445,
1620.000,5584.5596,
1617.089,5854.7121,
1614.179,6131.2569,
1611.268,6498.2576,
1608.358,6858.1282,
1605.447,7009.9547,
1602.536,7136.4747,
1599.626,7208.6004,
1596.715,7223.201,
1593.805,7201.7667,
1590.894,7259.0106,
1587.984,7173.5871,
1585.073,7091.9105,
1582.162,7116.86,
1579.252,7064.389,
1576.341,7063.141,
1573.431,7001.1215,
1570.520,6973.9525,
1567.610,6948.7717,
1564.699,6920.0991,
1561.788,6831.1399,
1558.878,6707.683,
1555.967,6586.1846,
1553.057,6533.0044,
1550.146,6425.9543,
1547.235,6271.6244,
1544.325,6193.9867,
1541.414,6130.1994,
1538.504,6009.0822,
1535.593,5913.7531,
1532.683,5848.6983,
1529.772,5750.2383,
1526.861,5648.9271,
1523.951,5571.2891,
1521.040,5494.6085,
1518.130,5426.6469,
1515.219,5396.686,
1512.309,5365.3457,
1509.398,5354.0721,
1506.487,5276.2195,
1503.577,5264.4834,
1500.666,5211.8426,
1497.756,5145.1334,
1494.845,5131.6042,
1491.934,5094.8321,
1489.024,5005.3202,
1486.113,4904.7674,
1483.203,4921.1055,
1480.292,4905.4577,
1477.382,4865.7538,
1474.471,4826.4298,
1471.560,4703.1954,
1468.650,4675.8403,
1465.739,4663.2698,
1462.829,4636.6077,
1459.918,4636.0698,
1457.008,4601.986,
1454.097,4600.4084,
1451.186,4643.6298,
1448.276,4624.2593,
1445.365,4614.8067,
1442.455,4653.2183,
1439.544,4652.0868,
1436.633,4630.6096,
1433.723,4597.7421,
1430.812,4612.2831,
1427.902,4563.1103,
1424.991,4520.461,
1422.081,4470.4987,
1419.170,4528.3373,
1416.259,4458.7388,
1413.349,4466.5584,
1410.438,4420.5422,
1407.528,4442.8307,
1404.617,4502.1784,
1401.707,4535.6639,
1398.796,4532.7964,
1395.885,4514.3375,
1392.975,4533.397,
1390.064,4566.938,
1387.154,4518.0776,
1384.243,4467.8804,
1381.332,4402.2781,
1378.422,4547.1775,
1375.511,4683.9476,
1372.601,4802.2429,
1369.690,4932.9934,
1366.780,5022.0321,
1363.869,5101.8755,
1360.958,5187.8455,
1358.048,5328.1077,
1355.137,5437.3458,
1352.227,5488.7983,
1349.316,5595.7232,
1346.406,5769.9128,
1343.495,5880.0589,
1340.584,5948.7313,
1337.674,6002.4466,
1334.763,6011.3705,
1331.853,6175.4904,
1328.942,6181.2355,
1326.032,6284.7088,
1323.121,6428.9022,
1320.210,6453.1451,
1317.300,6477.178,
1314.389,6566.418,
1311.479,6659.2704,
1308.568,6752.722,
1305.657,6872.6016,
1302.747,6970.3608,
1299.836,7152.2211,
1296.926,7319.1333,
1294.015,7362.3415,
1291.105,7570.1718,
1288.194,7765.0623,
1285.283,7951.7576,
1282.373,8088.8591,
1279.462,8231.2016,
1276.552,8362.6213,
1273.641,8456.5304,
1270.731,8507.3026,
1267.820,8496.0476,
1264.909,8479.6626,
1261.999,8415.695,
1259.088,8349.1102,
1256.178,8257.7664,
1253.267,8108.8658,
1250.356,7933.3515,
1247.446,7723.6167,
1244.535,7490.3039,
1241.625,7265.4845,
1238.714,7068.4753,
1235.804,6888.6544,
1232.893,6724.8877,
1229.982,6661.5135,
1227.072,6495.8414,
1224.161,6400.0746,
1221.251,6253.8359,
1218.340,6137.8657,
1215.430,6045.1725,
1212.519,5981.6563,
1209.608,5961.3144,
1206.698,5969.4229,
1203.787,5976.7481,
1200.877,5983.0782,
1197.966,6030.7336,
1195.055,6157.6993,
1192.145,6315.8695,
1189.234,6437.6825,
1186.324,6565.3151,
1183.413,6668.922,
1180.503,6701.3681,
1177.592,6647.5585,
1174.681,6508.0874,
1171.771,6423.5384,
1168.860,6354.7705,
1165.950,6320.7112,
1163.039,6253.364,
1160.129,6199.9917,
1157.218,6137.378,
1154.307,6060.443,
1151.397,5979.8862,
1148.486,5892.6264,
1145.576,5878.4971,
1142.665,5748.8618,
1139.754,5711.2753,
1136.844,5637.8959,
1133.933,5570.4156,
1131.023,5526.1295,
1128.112,5493.9126,
1125.202,5482.6853,
1122.291,5522.6263,
1119.380,5526.6447,
1116.470,5579.5964,
1113.559,5562.1543,
1110.649,5595.7254,
1107.738,5572.6521,
1104.828,5541.6148,
1101.917,5554.1961,
1099.006,5551.5891,
1096.096,5517.4688,
1093.185,5539.4189,
1090.275,5557.3104,
1087.364,5572.7891,
1084.453,5528.0657,
1081.543,5495.6983,
1078.632,5500.6777,
1075.722,5494.2534,
1072.811,5500.9866,
1069.901,5527.1844,
1066.990,5554.9916,
1064.079,5613.5246,
1061.169,5659.6647,
1058.258,5701.6872,
1055.348,5746.8833,
1052.437,5781.8485,
1049.527,5818.4411,
1046.616,5878.3903,
1043.705,5898.9988,
1040.795,5919.0876,
1037.884,5957.9635,
1034.974,5997.1804,
1032.063,6028.6706,
1029.153,6073.8787,
1026.242,6063.4992,
1023.331,6057.292,
1020.421,6107.0134,
1017.510,6164.9827,
1014.600,6223.9989,
1011.689,6284.0844,
1008.778,6342.6132,
1005.868,6423.6347,
1002.957,6703.2498,
1000.047,6974.7171,
997.136,7252.7678,
994.226,7388.125,
991.315,7356.4617,
988.404,7262.3995,
985.494,7148.4947,
982.583,7075.6874,
979.673,7043.9072,
976.762,7012.0538,
973.852,6995.567,
970.941,6983.3806,
968.030,6952.5238,
965.120,6949.2718,
962.209,6984.226,
959.299,6985.1673,
956.388,6960.1665,
953.477,6992.2704,
950.567,7045.0411,
947.656,6995.2472,
944.746,7026.6808,
941.835,6999.7815,
938.925,7025.3695,
936.014,7059.8289,
933.103,7063.3543,
930.193,7022.3442,
927.282,6953.0756,
924.372,6841.4555,
921.461,6760.1126,
918.551,6677.4507,
915.640,6620.6769,
912.729,6565.4336,
909.819,6459.8958,
906.908,6397.5564,
903.998,6421.9627,
901.087,6488.3201,
898.176,6575.5708,
895.266,6645.5514,
892.355,6687.5586,
889.445,6780.7173,
886.534,6853.7589,
883.624,6853.9955,
880.713,6949.1962,
877.802,7021.7654,
874.892,6976.515,
871.981,6986.6713,
869.071,6967.4568,
866.160,6928.2471,
863.250,6908.4556,
860.339,6923.7397,
857.428,6956.1685,
854.518,6948.0809,
851.607,6808.2933,
848.697,6784.8128,
845.786,6810.0354,
842.875,6828.5809,
839.965,6817.79,
837.054,6806.6133,
834.144,6761.0319,
831.233,6786.7892,
828.323,6790.7716,
825.412,6739.1334,
822.501,6658.3803,
819.591,6654.2483,
816.680,6557.1697,
813.770,6488.0168,
810.859,6400.6587,
807.949,6346.969,
805.038,6392.2555,
802.127,6335.4597,
799.217,6300.3094,
796.306,6273.0978,
793.396,6250.0028,
790.485,6238.7578,
787.574,6256.2184,
784.664,6258.6787,
781.753,6201.4204,
778.843,6221.6431,
775.932,6271.1991,
773.022,6273.4361,
770.111,6301.2338,
767.200,6290.1827,
764.290,6283.2356,
761.379,6279.5495,
758.469,6267.2895,
755.558,6230.0521,
752.648,6227.6083,
749.737,6199.0551,
746.826,6123.5163,
743.916,6010.8451,
741.005,5875.19,
738.095,5663.2902,
735.184,5446.489,
732.274,5401.1529,
729.363,5532.684,
726.452,5771.3305,
723.542,5960.7286,
720.631,6081.2186,
717.721,6128.8733,
714.810,6150.9261,
711.899,6167.1151,
708.989,6154.2043,
706.078,6122.8742,
703.168,6092.0506,
700.257,6045.7695,
697.347,6015.0366,
694.436,6062.9646,
691.525,5983.3879,
688.615,5995.6838,
685.704,6041.1851,
682.794,6054.955,
679.883,5981.7201,
676.973,6039.4188,
674.062,6026.8779,
671.151,6021.0149,
668.241,6043.0374,
665.330,6080.6334,
662.420,6070.2499,
659.509,6070.0298,
656.598,6047.7565,
653.688,6029.3173,
650.777,6069.585,
647.867,6053.6584,
644.956,6002.4504,
642.046,5986.8067,
639.135,6023.5226,
636.224,6089.117,
633.314,6087.5292,
630.403,6059.9293,
627.493,6092.9751,
624.582,6178.2439,
621.672,6187.7478,
618.761,6229.1617,
615.850,6288.959,
612.940,6343.8602,
610.029,6376.125,
607.119,6376.125,
604.208,6364.0548,
601.297,6377.0716,
598.387,6382.2266,
595.476,6352.1305,
592.566,6373.3814,
589.655,6379.0687,
586.745,6363.2002,
583.834,6330.3654,
580.923,6292.234,
578.013,6310.2829,
575.102,6351.8347,
572.192,6359.8316,
569.281,6344.2466,
566.371,6450.6834,
563.460,6432.2008,
560.549,6473.7256,
557.639,6532.5421,
554.728,6541.0466,
551.818,6571.4789,
548.907,6617.7369,
545.996,6658.2878,
543.086,6698.0624,
540.175,6772.0338,
537.265,6816.2361,
534.354,6847.1791,
531.444,6902.9731,
528.533,7010.981,
525.622,7079.2644,
522.712,7156.6206,
519.801,7241.805,
516.891,7340.4178,
513.980,7470.4996,
511.070,7521.5685,
508.159,7626.4748,
505.248,7777.704,
502.338,7943.9716,
499.427,8041.2224,
496.517,8167.2461,
493.606,8248.1629,
490.695,8270.033,
487.785,8370.1058,
484.874,8377.0779,
481.964,8362.9889,
479.053,8342.7707,
476.143,8312.0522,
473.232,8318.0384,
470.321,8284.6318,
467.411,8239.7935,
464.500,8221.4159,
461.590,8232.902,
458.679,8236.6753,
455.769,8258.2343,
452.858,8302.0571,
449.947,8282.1949,
447.037,8256.2816,
444.126,8270.222,
441.216,8311.246,
438.305,8271.6256,
435.395,8246.4559,
432.484,8276.1332,
429.573,8331.2375,
426.663,8327.4368,
423.752,8282.4902,
420.842,8284.5892,
417.931,8319.1747,
415.020,8351.0257,
412.110,8406.2644,
409.199,8470.1347,
406.289,8552.038,
403.378,8662.1045,
400.468,8656.0566,
397.557,8609.9081,
394.646,8541.7291,
391.736,8470.8011,
388.825,8491.9195,
385.915,8514.623,
383.004,8541.9744,
380.094,8577.3497,
377.183,8640.5577,
374.272,8818.2452,
371.362,8951.359,
368.451,8955.377,
365.541,9091.224,
362.630,9057.1137,
359.719,9050.5113,
356.809,9180.2449,
353.898,9264.8591,
350.988,9298.9747,
348.077,9313.0619,
345.167,9329.9687,
342.256,9425.5935,
339.345,9443.5592,
336.435,9446.5063,
333.524,9479.6482,
330.614,9591.4216,
327.703,9666.1706,
324.793,9718.5613,
321.882,9760.235,
318.971,9805.585,
316.061,9901.2085,
313.150,9988.1274,
310.240,9997.7749,
307.329,9976.6859,
304.418,10075.274,
301.508,10181.463,
298.597,10100.018,
295.687,10082.289,
292.776,10194.209,
289.866,10406.856,
286.955,10638.077,
284.044,10918.432,
281.134,11199.132,
278.223,11475.561,
275.313,11772.513,
272.402,12038.441,
269.492,12260.536,
266.581,12438.785,
263.670,12657.869,
260.760,12901.87,
257.849,13133.335,
254.939,13322.677,
252.028,13407.643,
249.117,13509.02,
246.207,13611.634,
243.296,13687.034,
240.386,13642.886,
237.475,13661.612,
234.565,13720.25,
231.654,13619.457,
228.743,13589.494,
225.833,13524.585,
222.922,13392.586,
220.012,13423.914,
217.101,13358.555,
214.191,13278.377,
211.280,13272.557,
208.369,13249.249,
205.459,13272.061,
202.548,13334.532,
199.638,13400.566,
196.727,13376.095,
193.816,13367.39,
190.906,13412.481,
187.995,13422.617,
185.085,13472.465,
182.174,13520.403,
179.264,13506.671,
176.353,13524.348,
173.442,13590.959,
170.532,13679.128,
167.621,13593.332,
164.711,13343.605,
161.800,12976.429,
158.890,12499.969,
155.979,11706.139,
153.068,10754.191,
150.158,9642.6099,
147.247,8293.5777,
144.337,6883.4228,
141.426,5442.6907,
138.516,3980.9495,
135.605,2880.9731,
132.694,1984.4571,
129.784,1287.552,
126.873,848.46226,
123.963,578.72977,
121.052,402.18122,
118.141,301.52104,
115.231,225.80454,
112.320,173.9432,
109.410,142.80696,
106.499,130.70032,
103.589,125.88398,
100.678,117.06284,
97.767,98.578459,
94.857,88.423153,
91.946,77.272115,
89.036,67.125,
86.125,67.125,
83.215,65.001319,
80.304,61.448971,
77.393,56.491782,
74.483,50.88392,
71.572,47.400296,
68.662,45.640128,
65.751,40.69497,
62.840,42.496914,
59.930,45.937714,
57.019,45.232632,
54.109,39.750552,
51.198,34.616954,
48.288,31.158975,
45.377,35.379243,
42.466,30.94171,
39.556,23.045949,
36.645,28.66347,
33.735,25.971012,
30.824,21.462339,
27.914,19.358813,
25.003,19.747637,
22.092,20.447905,
19.182,21.330946,
16.271,27.626357,
13.361,52.462273,
10.450,87.091262,
7.539,110.13567,
4.629,-102.28046,
1.718,-391.11892,
-1.192,-665.79387,
-4.103,-472.39127,
-7.013,-225.76371,
-9.924,1.125,
