,PL28C2~1,
Wavenumbers [1/cm],Intensity,
3014.167,3.875,
3011.256,-1.2749248,
3008.346,131.52798,
3005.435,150.75839,
3002.525,144.08249,
2999.614,174.53865,
2996.704,163.52037,
2993.793,176.48502,
2990.882,181.09641,
2987.972,179.88509,
2985.061,192.51541,
2982.151,197.94894,
2979.240,204.875,
2976.329,198.86408,
2973.419,212.47526,
2970.508,229.00819,
2967.598,245.72801,
2964.687,232.42663,
2961.777,220.2252,
2958.866,239.53919,
2955.955,239.08076,
2953.045,259.77432,
2950.134,253.66217,
2947.224,267.18816,
2944.313,272.03241,
2941.403,274.43476,
2938.492,288.62027,
2935.581,282.4505,
2932.671,289.19691,
2929.760,309.03271,
2926.850,296.07688,
2923.939,309.11331,
2921.028,314.1044,
2918.118,313.13571,
2915.207,314.16608,
2912.297,301.91308,
2909.386,310.63414,
2906.476,309.1924,
2903.565,299.97129,
2900.654,304.81636,
2897.744,307.57327,
2894.833,285.52445,
2891.923,304.09301,
2889.012,286.20448,
2886.102,277.12908,
2883.191,236.89954,
2880.280,149.77928,
2877.370,-1.0956327,
2874.459,-58.325924,
2871.549,72.691727,
2868.638,263.56973,
2865.727,280.77496,
2862.817,299.33222,
2859.906,280.98896,
2856.996,305.26858,
2854.085,321.83297,
2851.175,327.68227,
2848.264,340.27732,
2845.353,323.98284,
2842.443,329.67361,
2839.532,349.50175,
2836.622,355.26823,
2833.711,337.67561,
2830.801,342.8603,
2827.890,347.66167,
2824.979,342.13487,
2822.069,356.77265,
2819.158,347.11489,
2816.248,363.80552,
2813.337,356.00914,
2810.427,364.875,
2807.516,356.45781,
2804.605,353.32693,
2801.695,371.92765,
2798.784,350.16662,
2795.874,357.72988,
2792.963,365.66085,
2790.052,354.878,
2787.142,346.69092,
2784.231,347.3921,
2781.321,364.05782,
2778.410,358.92956,
2775.500,353.55776,
2772.589,346.75956,
2769.678,356.55072,
2766.768,364.00509,
2763.857,359.19292,
2760.947,367.31511,
2758.036,361.26356,
2755.126,348.43911,
2752.215,372.66142,
2749.304,354.19517,
2746.394,371.08669,
2743.483,368.02502,
2740.573,382.61844,
2737.662,378.78919,
2734.751,388.61783,
2731.841,379.30723,
2728.930,366.16298,
2726.020,371.74711,
2723.109,387.24566,
2720.199,387.7969,
2717.288,384.96259,
2714.377,391.97074,
2711.467,384.48159,
2708.556,390.17268,
2705.646,408.70602,
2702.735,398.70232,
2699.825,399.7223,
2696.914,396.3509,
2694.003,377.98556,
2691.093,406.32145,
2688.182,395.41944,
2685.272,405.43261,
2682.361,415.42194,
2679.450,410.25776,
2676.540,418.69208,
2673.629,417.17541,
2670.719,420.9554,
2667.808,414.875,
2664.898,414.51118,
2661.987,409.5747,
2659.076,415.33188,
2656.166,429.3902,
2653.255,411.1369,
2650.345,414.06738,
2647.434,448.53204,
2644.524,432.52003,
2641.613,441.67576,
2638.702,420.42734,
2635.792,450.40839,
2632.881,440.22608,
2629.971,446.61998,
2627.060,460.04593,
2624.149,420.36251,
2621.239,434.16502,
2618.328,433.68036,
2615.418,444.24317,
2612.507,438.80382,
2609.597,456.68139,
2606.686,439.01758,
2603.775,456.0377,
2600.865,457.99443,
2597.954,434.92911,
2595.044,464.79529,
2592.133,463.30792,
2589.223,455.3329,
2586.312,453.2871,
2583.401,456.97361,
2580.491,474.88945,
2577.580,483.8552,
2574.670,476.85627,
2571.759,478.86473,
2568.848,478.10709,
2565.938,486.92269,
2563.027,477.14319,
2560.117,466.34227,
2557.206,446.41006,
2554.296,487.61413,
2551.385,470.56099,
2548.474,469.57872,
2545.564,490.21023,
2542.653,491.57969,
2539.743,492.51671,
2536.832,483.89556,
2533.922,502.70154,
2531.011,491.32505,
2528.100,487.74259,
2525.190,511.17336,
2522.279,500.65565,
2519.369,476.17687,
2516.458,490.77372,
2513.548,502.68408,
2510.637,504.44462,
2507.726,496.00139,
2504.816,502.56384,
2501.905,510.06341,
2498.995,505.53191,
2496.084,519.24784,
2493.173,509.74288,
2490.263,512.62757,
2487.352,529.54113,
2484.442,532.41244,
2481.531,540.44433,
2478.621,500.84174,
2475.710,524.79065,
2472.799,514.36827,
2469.889,520.23789,
2466.978,514.05036,
2464.068,517.5364,
2461.157,529.18007,
2458.247,530.24279,
2455.336,555.4484,
2452.425,550.06839,
2449.515,540.69622,
2446.604,558.40728,
2443.694,555.03783,
2440.783,551.82658,
2437.872,556.13025,
2434.962,562.08698,
2432.051,561.82565,
2429.141,558.89271,
2426.230,563.41866,
2423.320,565.13198,
2420.409,570.36221,
2417.498,566.08005,
2414.588,586.12966,
2411.677,588.40884,
2408.767,576.12795,
2405.856,566.55601,
2402.946,573.35757,
2400.035,584.57219,
2397.124,583.11029,
2394.214,584.76501,
2391.303,582.34451,
2388.393,577.70519,
2385.482,548.93248,
2382.571,537.16564,
2379.661,558.34004,
2376.750,583.23942,
2373.840,613.91554,
2370.929,609.97247,
2368.019,615.34419,
2365.108,622.75982,
2362.197,623.82026,
2359.287,621.49672,
2356.376,616.87852,
2353.466,609.45032,
2350.555,616.66503,
2347.645,628.53194,
2344.734,620.11459,
2341.823,630.62625,
2338.913,622.42726,
2336.002,634.05447,
2333.092,641.64484,
2330.181,641.80342,
2327.270,643.54497,
2324.360,647.96694,
2321.449,659.79675,
2318.539,641.34289,
2315.628,657.31106,
2312.718,656.0424,
2309.807,664.05524,
2306.896,655.64652,
2303.986,671.70624,
2301.075,670.76866,
2298.165,666.26928,
2295.254,643.39203,
2292.344,667.71733,
2289.433,668.55455,
2286.522,682.65616,
2283.612,700.46557,
2280.701,683.10374,
2277.791,681.31582,
2274.880,691.23301,
2271.969,700.47994,
2269.059,713.28916,
2266.148,703.03861,
2263.238,681.98312,
2260.327,719.39218,
2257.417,711.92611,
2254.506,712.9206,
2251.595,722.30043,
2248.685,738.13264,
2245.774,728.45767,
2242.864,714.19918,
2239.953,723.8818,
2237.043,739.70607,
2234.132,746.68535,
2231.221,751.03261,
2228.311,729.86858,
2225.400,757.70613,
2222.490,751.68933,
2219.579,756.00356,
2216.669,755.42508,
2213.758,765.09594,
2210.847,771.84478,
2207.937,783.34567,
2205.026,763.42981,
2202.116,781.77734,
2199.205,778.7623,
2196.294,790.18098,
2193.384,820.03204,
2190.473,835.02289,
2187.563,838.84117,
2184.652,837.89948,
2181.742,885.46759,
2178.831,910.83995,
2175.920,928.10452,
2173.010,973.7021,
2170.099,1035.0025,
2167.189,1089.4419,
2164.278,1167.5815,
2161.368,1190.1578,
2158.457,1266.9728,
2155.546,1353.902,
2152.636,1428.5664,
2149.725,1495.4656,
2146.815,1560.0397,
2143.904,1579.5032,
2140.993,1650.4358,
2138.083,1674.5588,
2135.172,1695.9254,
2132.262,1711.7808,
2129.351,1714.3025,
2126.441,1641.9622,
2123.530,1598.8985,
2120.619,1504.2056,
2117.709,1424.8247,
2114.798,1327.6824,
2111.888,1236.1896,
2108.977,1147.2789,
2106.067,1096.3318,
2103.156,1037.7244,
2100.245,970.86873,
2097.335,958.70746,
2094.424,934.97647,
2091.514,894.50121,
2088.603,862.12848,
2085.692,859.2393,
2082.782,855.92724,
2079.871,864.55411,
2076.961,838.81234,
2074.050,881.19015,
2071.140,812.25404,
2068.229,826.60938,
2065.318,811.75099,
2062.408,802.36744,
2059.497,805.88096,
2056.587,806.45642,
2053.676,791.99252,
2050.766,816.56558,
2047.855,790.56173,
2044.944,780.67307,
2042.034,792.27393,
2039.123,805.05345,
2036.213,782.79941,
2033.302,795.6138,
2030.391,786.18084,
2027.481,788.72849,
2024.570,791.50366,
2021.660,806.8698,
2018.749,787.4951,
2015.839,774.91568,
2012.928,764.15017,
2010.017,778.56446,
2007.107,760.08623,
2004.196,781.0655,
2001.286,791.29196,
1998.375,773.39074,
1995.465,729.47768,
1992.554,736.5278,
1989.643,763.97634,
1986.733,751.90834,
1983.822,786.18224,
1980.912,761.98279,
1978.001,711.73956,
1975.090,704.47653,
1972.180,703.875,
1969.269,726.51875,
1966.359,725.7126,
1963.448,704.91727,
1960.538,720.35123,
1957.627,705.25889,
1954.716,707.73137,
1951.806,715.68916,
1948.895,678.84861,
1945.985,705.7263,
1943.074,686.28815,
1940.164,710.36544,
1937.253,683.0235,
1934.342,657.01189,
1931.432,658.44282,
1928.521,675.14961,
1925.611,676.90111,
1922.700,646.54904,
1919.790,619.20471,
1916.879,609.36325,
1913.968,678.78893,
1911.058,666.63775,
1908.147,628.04878,
1905.237,660.38226,
1902.326,608.73128,
1899.415,611.47254,
1896.505,582.57385,
1893.594,590.32927,
1890.684,598.62005,
1887.773,601.25443,
1884.863,620.19846,
1881.952,653.1023,
1879.041,643.71923,
1876.131,652.53382,
1873.220,607.93233,
1870.310,607.37275,
1867.399,643.29923,
1864.489,655.17402,
1861.578,637.3146,
1858.667,634.369,
1855.757,640.90364,
1852.846,623.7006,
1849.936,654.87602,
1847.025,629.81417,
1844.114,654.96917,
1841.204,673.91346,
1838.293,680.85338,
1835.383,667.09653,
1832.472,634.79326,
1829.562,662.37032,
1826.651,653.84013,
1823.740,649.61065,
1820.830,651.33168,
1817.919,654.13251,
1815.009,678.84955,
1812.098,679.28445,
1809.188,663.86728,
1806.277,670.69795,
1803.366,678.65873,
1800.456,667.7985,
1797.545,698.10918,
1794.635,677.84111,
1791.724,718.93333,
1788.813,684.6696,
1785.903,669.98545,
1782.992,650.31754,
1780.082,548.9538,
1777.171,461.19726,
1774.261,456.37574,
1771.350,560.24152,
1768.439,650.38963,
1765.529,705.69635,
1762.618,705.58371,
1759.708,706.86436,
1756.797,711.125,
1753.887,729.72339,
1750.976,732.28862,
1748.065,722.63383,
1745.155,724.32018,
1742.244,732.80705,
1739.334,760.47029,
1736.423,752.50493,
1733.512,775.43606,
1730.602,763.68647,
1727.691,761.24862,
1724.781,757.36896,
1721.870,767.9465,
1718.960,734.69679,
1716.049,733.5868,
1713.138,787.88474,
1710.228,770.76609,
1707.317,785.451,
1704.407,809.43653,
1701.496,802.75952,
1698.586,823.12664,
1695.675,800.54658,
1692.764,820.6496,
1689.854,828.57185,
1686.943,849.16676,
1684.033,896.68286,
1681.122,887.06192,
1678.211,884.89403,
1675.301,898.83183,
1672.390,918.9408,
1669.480,940.8028,
1666.569,932.25588,
1663.659,962.02199,
1660.748,971.31848,
1657.837,993.61256,
1654.927,982.78874,
1652.016,1022.2843,
1649.106,1078.826,
1646.195,1078.6253,
1643.285,1150.3991,
1640.374,1173.0841,
1637.463,1184.9467,
1634.553,1298.5843,
1631.642,1346.3636,
1628.732,1391.5564,
1625.821,1505.926,
1622.911,1583.4355,
1620.000,1754.6954,
1617.089,1906.8302,
1614.179,2056.6166,
1611.268,2162.9341,
1608.358,2348.9318,
1605.447,2462.533,
1602.536,2453.9648,
1599.626,2397.679,
1596.715,2446.4235,
1593.805,2448.2977,
1590.894,2394.1541,
1587.984,2369.5532,
1585.073,2317.5276,
1582.162,2287.168,
1579.252,2214.1377,
1576.341,2202.0793,
1573.431,2198.176,
1570.520,2241.2089,
1567.610,2207.9331,
1564.699,2155.6235,
1561.788,2048.9181,
1558.878,2040.5993,
1555.967,2034.3944,
1553.057,1993.2546,
1550.146,1923.0242,
1547.235,1873.3459,
1544.325,1817.198,
1541.414,1770.9937,
1538.504,1734.6711,
1535.593,1683.0947,
1532.683,1640.1744,
1529.772,1597.8629,
1526.861,1573.3239,
1523.951,1577.6751,
1521.040,1569.6987,
1518.130,1566.2304,
1515.219,1532.4751,
1512.309,1502.1182,
1509.398,1419.1564,
1506.487,1407.4422,
1503.577,1396.5416,
1500.666,1466.0256,
1497.756,1387.5699,
1494.845,1380.4731,
1491.934,1298.8907,
1489.024,1303.7032,
1486.113,1271.4225,
1483.203,1259.9933,
1480.292,1281.7848,
1477.382,1220.4069,
1474.471,1171.8777,
1471.560,1145.9103,
1468.650,1103.6615,
1465.739,1135.5523,
1462.829,1117.5169,
1459.918,1054.8305,
1457.008,1033.4443,
1454.097,1041.1101,
1451.186,1052.7764,
1448.276,1067.5647,
1445.365,1074.8395,
1442.455,1065.6689,
1439.544,1031.1638,
1436.633,1029.3814,
1433.723,1089.0268,
1430.812,1022.8115,
1427.902,972.70934,
1424.991,1007.7766,
1422.081,1031.8119,
1419.170,1020.05,
1416.259,997.62342,
1413.349,993.63024,
1410.438,1021.1664,
1407.528,980.73192,
1404.617,937.78392,
1401.707,920.45583,
1398.796,940.78052,
1395.885,972.94195,
1392.975,958.16593,
1390.064,924.10914,
1387.154,915.43545,
1384.243,906.56571,
1381.332,925.02177,
1378.422,860.87923,
1375.511,996.71247,
1372.601,1073.5222,
1369.690,1079.0178,
1366.780,1196.0962,
1363.869,1197.0894,
1360.958,1180.5933,
1358.048,1252.039,
1355.137,1291.31,
1352.227,1320.6792,
1349.316,1401.3143,
1346.406,1452.2784,
1343.495,1473.0406,
1340.584,1548.7319,
1337.674,1564.2334,
1334.763,1584.9336,
1331.853,1612.7505,
1328.942,1651.2325,
1326.032,1752.9339,
1323.121,1763.7605,
1320.210,1814.4805,
1317.300,1865.4843,
1314.389,1950.7375,
1311.479,2016.3119,
1308.568,2053.1533,
1305.657,2136.9801,
1302.747,2204.8809,
1299.836,2294.74,
1296.926,2402.8405,
1294.015,2445.1294,
1291.105,2557.8233,
1288.194,2640.7682,
1285.283,2735.9193,
1282.373,2818.1326,
1279.462,2904.4229,
1276.552,2975.0326,
1273.641,3005.1526,
1270.731,3005.3466,
1267.820,2989.3964,
1264.909,2970.6672,
1261.999,3041.4755,
1259.088,3030.5301,
1256.178,2964.7843,
1253.267,2963.0813,
1250.356,2850.7418,
1247.446,2713.1465,
1244.535,2593.4287,
1241.625,2487.6788,
1238.714,2384.6434,
1235.804,2270.5694,
1232.893,2164.5129,
1229.982,2106.5496,
1227.072,2126.4665,
1224.161,2090.0523,
1221.251,2058.3062,
1218.340,2014.2453,
1215.430,1978.3589,
1212.519,1968.0443,
1209.608,1951.6756,
1206.698,1915.1303,
1203.787,1915.875,
1200.877,1917.8252,
1197.966,1949.2958,
1195.055,2050.7051,
1192.145,2101.6855,
1189.234,2169.3199,
1186.324,2189.5104,
1183.413,2228.5705,
1180.503,2259.871,
1177.592,2208.9155,
1174.681,2225.9606,
1171.771,2205.7308,
1168.860,2199.4791,
1165.950,2208.5505,
1163.039,2194.1133,
1160.129,2205.7504,
1157.218,2176.5702,
1154.307,2134.2142,
1151.397,2143.0031,
1148.486,2153.0739,
1145.576,2157.7163,
1142.665,2107.9932,
1139.754,2075.398,
1136.844,2077.2786,
1133.933,2059.1743,
1131.023,2032.5447,
1128.112,2042.0146,
1125.202,2072.9378,
1122.291,2051.0165,
1119.380,2093.7364,
1116.470,2079.616,
1113.559,2047.7183,
1110.649,2066.3785,
1107.738,2043.3677,
1104.828,2036.2571,
1101.917,2056.1939,
1099.006,2021.3285,
1096.096,2032.23,
1093.185,2021.6939,
1090.275,2092.9001,
1087.364,2102.3276,
1084.453,2112.3741,
1081.543,2147.8536,
1078.632,2181.1286,
1075.722,2180.4899,
1072.811,2164.0755,
1069.901,2138.7509,
1066.990,2159.5083,
1064.079,2135.6129,
1061.169,2106.4106,
1058.258,2101.4977,
1055.348,2121.2817,
1052.437,2145.1869,
1049.527,2152.2442,
1046.616,2161.8014,
1043.705,2172.1242,
1040.795,2172.321,
1037.884,2166.8291,
1034.974,2181.4961,
1032.063,2216.6903,
1029.153,2231.4716,
1026.242,2253.0955,
1023.331,2247.2088,
1020.421,2255.6344,
1017.510,2275.5627,
1014.600,2305.6381,
1011.689,2323.3184,
1008.778,2311.8598,
1005.868,2341.3692,
1002.957,2396.4319,
1000.047,2463.843,
997.136,2586.3077,
994.226,2656.4289,
991.315,2671.0978,
988.404,2697.4442,
985.494,2653.453,
982.583,2634.6088,
979.673,2660.4092,
976.762,2663.8298,
973.852,2682.7436,
970.941,2705.4655,
968.030,2692.534,
965.120,2718.918,
962.209,2729.1485,
959.299,2708.9193,
956.388,2705.4746,
953.477,2713.5742,
950.567,2725.1492,
947.656,2741.7609,
944.746,2733.2653,
941.835,2719.1082,
938.925,2736.9326,
936.014,2744.84,
933.103,2734.8131,
930.193,2712.0869,
927.282,2669.9878,
924.372,2616.7146,
921.461,2570.8458,
918.551,2524.3427,
915.640,2505.5494,
912.729,2489.3331,
909.819,2431.3223,
906.908,2457.4375,
903.998,2409.5624,
901.087,2416.6067,
898.176,2440.7593,
895.266,2472.9667,
892.355,2514.0738,
889.445,2525.8236,
886.534,2545.0771,
883.624,2577.8068,
880.713,2601.5718,
877.802,2584.8206,
874.892,2499.6572,
871.981,2335.4029,
869.071,2188.3702,
866.160,2280.1681,
863.250,2424.0863,
860.339,2504.3692,
857.428,2507.91,
854.518,2539.6845,
851.607,2463.9662,
848.697,2267.2278,
845.786,2221.2406,
842.875,2285.9362,
839.965,2373.1283,
837.054,2515.3261,
834.144,2466.4297,
831.233,2431.5435,
828.323,2442.1199,
825.412,2443.6596,
822.501,2395.0877,
819.591,2385.1709,
816.680,2321.5736,
813.770,2270.1644,
810.859,2250.2287,
807.949,2244.4335,
805.038,2223.4812,
802.127,2211.9574,
799.217,2232.4913,
796.306,2220.01,
793.396,2195.5314,
790.485,2181.0856,
787.574,2183.8989,
784.664,2237.2062,
781.753,2275.7273,
778.843,2282.0337,
775.932,2305.9732,
773.022,2369.76,
770.111,2317.4349,
767.200,2285.7064,
764.290,2271.0962,
761.379,2262.5425,
758.469,2247.2951,
755.558,2214.1456,
752.648,2189.7075,
749.737,2205.1115,
746.826,2204.2195,
743.916,2160.9979,
741.005,2073.4206,
738.095,1980.8667,
735.184,1876.9172,
732.274,1848.8153,
729.363,1918.4052,
726.452,2054.2004,
723.542,2133.5209,
720.631,2153.9303,
717.721,2198.4013,
714.810,2235.1079,
711.899,2242.7364,
708.989,2224.984,
706.078,2220.0672,
703.168,2226.1617,
700.257,2220.1481,
697.347,2199.6582,
694.436,2181.486,
691.525,2203.9926,
688.615,2178.0584,
685.704,2185.3449,
682.794,2214.6623,
679.883,2201.8482,
676.973,2223.4852,
674.062,2231.7035,
671.151,2244.8333,
668.241,2247.4391,
665.330,2209.7783,
662.420,2186.6151,
659.509,2183.7798,
656.598,2212.1382,
653.688,2247.645,
650.777,2246.497,
647.867,2235.3484,
644.956,2211.8239,
642.046,2132.1247,
639.135,2055.0629,
636.224,2119.883,
633.314,2121.4708,
630.403,2130.7432,
627.493,2163.7602,
624.582,2203.6967,
621.672,2189.4408,
618.761,2127.3199,
615.850,2128.2615,
612.940,2160.2441,
610.029,2193.8207,
607.119,2217.5096,
604.208,2186.5044,
601.297,2191.8187,
598.387,2198.2632,
595.476,2168.8063,
592.566,2189.27,
589.655,2150.1143,
586.745,2114.7239,
583.834,2100.6317,
580.923,2106.5622,
578.013,2054.7698,
575.102,2089.0564,
572.192,2131.6634,
569.281,2145.1404,
566.371,2152.184,
563.460,2164.868,
560.549,2161.5913,
557.639,2148.8466,
554.728,2141.3733,
551.818,2196.7757,
548.907,2213.1409,
545.996,2217.0414,
543.086,2217.8684,
540.175,2213.1965,
537.265,2225.912,
534.354,2237.397,
531.444,2246.6616,
528.533,2255.0338,
525.622,2271.3287,
522.712,2297.3249,
519.801,2327.914,
516.891,2357.1616,
513.980,2373.4218,
511.070,2390.3706,
508.159,2430.3046,
505.248,2475.137,
502.338,2501.6824,
499.427,2563.4289,
496.517,2629.0871,
493.606,2663.5101,
490.695,2662.8661,
487.785,2705.9744,
484.874,2696.7194,
481.964,2674.1708,
479.053,2662.4132,
476.143,2693.8996,
473.232,2641.9197,
470.321,2645.6904,
467.411,2679.2195,
464.500,2701.2823,
461.590,2717.3628,
458.679,2714.7212,
455.769,2742.5869,
452.858,2812.6141,
449.947,2781.2929,
447.037,2818.5618,
444.126,2870.9053,
441.216,2912.6687,
438.305,2917.2403,
435.395,2877.8812,
432.484,2884.7974,
429.573,2914.2899,
426.663,2873.2423,
423.752,2686.4538,
420.842,2432.8776,
417.931,2217.0408,
415.020,2185.9481,
412.110,2613.6003,
409.199,2879.4323,
406.289,2968.0311,
403.378,2891.7111,
400.468,2843.3274,
397.557,2871.5777,
394.646,2960.0105,
391.736,3086.6919,
388.825,3049.7346,
385.915,3046.8579,
383.004,3068.7233,
380.094,3108.7542,
377.183,3165.1899,
374.272,3229.7252,
371.362,3258.2189,
368.451,3226.5073,
365.541,3203.9912,
362.630,3230.1032,
359.719,3249.7718,
356.809,3234.189,
353.898,3255.9041,
350.988,3272.7247,
348.077,3282.4558,
345.167,3283.9128,
342.256,3284.6599,
339.345,3288.0636,
336.435,3301.7011,
333.524,3327.8785,
330.614,3264.5403,
327.703,3290.5681,
324.793,3328.977,
321.882,3314.985,
318.971,3360.335,
316.061,3406.1505,
313.150,3441.8012,
310.240,3454.4172,
307.329,3478.458,
304.418,3485.1393,
301.508,3456.4719,
298.597,3360.9581,
295.687,3377.2557,
292.776,3400.1251,
289.866,3432.6896,
286.955,3512.4719,
284.044,3604.2024,
281.134,3653.0967,
278.223,3658.5995,
275.313,3670.3892,
272.402,3670.5514,
269.492,3629.5853,
266.581,3544.402,
263.670,3537.7854,
260.760,3608.4863,
257.849,3689.7594,
254.939,3732.3246,
252.028,3726.3604,
249.117,3730.2706,
246.207,3744.6938,
243.296,3771.0471,
240.386,3825.4613,
237.475,3843.2703,
234.565,3828.2201,
231.654,3830.4113,
228.743,3799.8051,
225.833,3795.4737,
222.922,3836.4821,
220.012,3806.6113,
217.101,3765.9599,
214.191,3735.1864,
211.280,3739.5511,
208.369,3753.3313,
205.459,3752.6885,
202.548,3740.8722,
199.638,3735.067,
196.727,3711.9788,
193.816,3691.9617,
190.906,3684.0178,
187.995,3716.5989,
185.085,3735.9135,
182.174,3761.9169,
179.264,3824.7975,
176.353,3819.0594,
173.442,3831.4531,
170.532,3864.6149,
167.621,3853.8003,
164.711,3797.7927,
161.800,3705.6374,
158.890,3576.0864,
155.979,3404.8594,
153.068,3192.4559,
150.158,2933.3436,
147.247,2595.188,
144.337,2183.6185,
141.426,1753.3348,
138.516,1326.7846,
135.605,948.78935,
132.694,638.06338,
129.784,400.62467,
126.873,276.19207,
123.963,187.70822,
121.052,125.14396,
118.141,88.021057,
115.231,64.426178,
112.320,51.485913,
109.410,44.28425,
106.499,30.753301,
103.589,31.796781,
100.678,32.702026,
97.767,27.014526,
94.857,26.182011,
91.946,24.665667,
89.036,22.197613,
86.125,17.942381,
83.215,14.220398,
80.304,12.832731,
77.393,15.66541,
74.483,17.840405,
71.572,18.150296,
68.662,16.59793,
65.751,13.772126,
62.840,10.46649,
59.930,9.1860034,
57.019,14.121577,
54.109,10.694874,
51.198,10.287874,
48.288,15.818376,
45.377,8.7845949,
42.466,5.0505613,
39.556,4.1052372,
36.645,5.5096176,
33.735,7.9519939,
30.824,7.8870172,
27.914,1.57644,
25.003,5.2334623,
22.092,9.1666182,
19.182,11.508874,
16.271,0.31703208,
13.361,8.5187393,
10.450,22.149117,
7.539,0.50134117,
4.629,-100.64512,
1.718,-143.29906,
-1.192,9.3755903,
-4.103,-6.3698303,
-7.013,-20.308351,
-9.924,-0.125,
