,PLF7F4~1,
Wavenumbers [1/cm],Intensity,
3014.167,-4.125,
3011.256,2.6749571,
3008.346,142.42702,
3005.435,167.26016,
3002.525,188.10263,
2999.614,184.01397,
2996.704,192.23789,
2993.793,176.7235,
2990.882,188.96665,
2987.972,214.84978,
2985.061,203.22475,
2982.151,209.84644,
2979.240,218.47194,
2976.329,246.89684,
2973.419,244.50581,
2970.508,248.42497,
2967.598,254.01476,
2964.687,248.33696,
2961.777,268.12294,
2958.866,257.87203,
2955.955,261.875,
2953.045,273.69155,
2950.134,281.36481,
2947.224,278.07069,
2944.313,309.8864,
2941.403,311.04197,
2938.492,310.875,
2935.581,304.53636,
2932.671,300.75916,
2929.760,311.71729,
2926.850,318.03891,
2923.939,328.47312,
2921.028,331.79262,
2918.118,340.3347,
2915.207,341.40669,
2912.297,339.89193,
2909.386,336.66332,
2906.476,337.51825,
2903.565,346.53798,
2900.654,331.10956,
2897.744,338.02587,
2894.833,343.68955,
2891.923,330.8205,
2889.012,323.82876,
2886.102,336.45879,
2883.191,359.8514,
2880.280,316.63576,
2877.370,284.25297,
2874.459,309.31487,
2871.549,284.91496,
2868.638,339.6956,
2865.727,358.65965,
2862.817,340.68917,
2859.906,361.1542,
2856.996,370.91123,
2854.085,360.23424,
2851.175,355.26047,
2848.264,363.46301,
2845.353,359.76716,
2842.443,358.46873,
2839.532,361.54666,
2836.622,363.903,
2833.711,353.4009,
2830.801,370.96103,
2827.890,365.875,
2824.979,358.17105,
2822.069,357.96598,
2819.158,369.67554,
2816.248,365.41553,
2813.337,391.72013,
2810.427,381.56645,
2807.516,366.1486,
2804.605,368.18751,
2801.695,374.73023,
2798.784,387.02692,
2795.874,387.31565,
2792.963,386.16096,
2790.052,393.87457,
2787.142,376.03285,
2784.231,364.48836,
2781.321,383.12068,
2778.410,370.63008,
2775.500,381.12879,
2772.589,367.95297,
2769.678,380.62587,
2766.768,380.12161,
2763.857,374.82298,
2760.947,384.90652,
2758.036,394.95783,
2755.126,388.38996,
2752.215,398.57938,
2749.304,395.59801,
2746.394,400.875,
2743.483,392.62503,
2740.573,397.40824,
2737.662,410.86465,
2734.751,407.22446,
2731.841,399.1717,
2728.930,404.875,
2726.020,415.99769,
2723.109,396.50434,
2720.199,418.75615,
2717.288,417.10491,
2714.377,422.16222,
2711.467,436.31785,
2708.556,430.56637,
2705.646,435.72007,
2702.735,441.34663,
2699.825,427.08051,
2696.914,427.92226,
2694.003,456.14981,
2691.093,433.10725,
2688.182,433.58389,
2685.272,435.52081,
2682.361,432.88046,
2679.450,448.6281,
2676.540,435.97662,
2673.629,448.17541,
2670.719,436.53949,
2667.808,452.31866,
2664.898,469.161,
2661.987,462.50852,
2659.076,475.98491,
2656.166,461.47237,
2653.255,465.98724,
2650.345,464.44306,
2647.434,463.79012,
2644.524,485.99486,
2641.613,473.24646,
2638.702,483.71719,
2635.792,471.00261,
2632.881,462.42242,
2629.971,469.13002,
2627.060,466.70719,
2624.149,477.25312,
2621.239,475.86907,
2618.328,479.63797,
2615.418,493.225,
2612.507,486.49555,
2609.597,498.68139,
2606.686,474.8228,
2603.775,488.63691,
2600.865,482.64288,
2597.954,502.5458,
2595.044,516.20538,
2592.133,511.98323,
2589.223,548.10451,
2586.312,515.67903,
2583.401,513.91516,
2580.491,512.34136,
2577.580,515.85685,
2574.670,516.22123,
2571.759,522.20293,
2568.848,543.21222,
2565.938,541.25593,
2563.027,539.3864,
2560.117,515.25815,
2557.206,528.57241,
2554.296,541.129,
2551.385,529.18901,
2548.474,540.72705,
2545.564,549.71672,
2542.653,567.10654,
2539.743,555.52903,
2536.832,548.91612,
2533.922,561.65423,
2531.011,551.99965,
2528.100,567.13982,
2525.190,557.43525,
2522.279,560.64051,
2519.369,558.59182,
2516.458,562.09526,
2513.548,542.88433,
2510.637,570.38314,
2507.726,564.74861,
2504.816,564.37443,
2501.905,556.81707,
2498.995,567.51669,
2496.084,565.86109,
2493.173,579.84884,
2490.263,589.45919,
2487.352,578.66793,
2484.442,602.57091,
2481.531,608.44955,
2478.621,597.03612,
2475.710,586.99768,
2472.799,607.80768,
2469.889,637.41796,
2466.978,616.79287,
2464.068,627.77456,
2461.157,604.45249,
2458.247,613.69861,
2455.336,634.08636,
2452.425,620.26177,
2449.515,644.50701,
2446.604,636.58702,
2443.694,628.61925,
2440.783,641.21059,
2437.872,633.38551,
2434.962,644.51095,
2432.051,634.94902,
2429.141,654.65118,
2426.230,648.91806,
2423.320,659.71788,
2420.409,656.60581,
2417.498,657.66152,
2414.588,660.875,
2411.677,665.94268,
2408.767,644.41634,
2405.856,649.7155,
2402.946,650.7204,
2400.035,643.08626,
2397.124,661.89638,
2394.214,668.46741,
2391.303,658.52134,
2388.393,643.73308,
2385.482,656.90564,
2382.571,652.68485,
2379.661,670.80507,
2376.750,691.66314,
2373.840,691.95314,
2370.929,703.73421,
2368.019,695.52587,
2365.108,699.7572,
2362.197,719.05584,
2359.287,703.51344,
2356.376,722.83273,
2353.466,730.11819,
2350.555,714.92486,
2347.645,714.79552,
2344.734,719.66302,
2341.823,743.477,
2338.913,763.88241,
2336.002,730.5831,
2333.092,729.55329,
2330.181,746.50921,
2327.270,745.37005,
2324.360,752.24533,
2321.449,731.78317,
2318.539,734.30007,
2315.628,755.28548,
2312.718,769.40804,
2309.807,717.85609,
2306.896,748.9063,
2303.986,756.95938,
2301.075,752.49202,
2298.165,752.875,
2295.254,772.44414,
2292.344,774.55545,
2289.433,782.82863,
2286.522,774.46872,
2283.612,776.4949,
2280.701,781.93328,
2277.791,795.3559,
2274.880,809.87094,
2271.969,820.48817,
2269.059,807.02757,
2266.148,817.30238,
2263.238,825.77461,
2260.327,809.94424,
2257.417,831.70723,
2254.506,813.49324,
2251.595,829.00583,
2248.685,845.50382,
2245.774,846.07283,
2242.864,817.23658,
2239.953,839.60598,
2237.043,841.08215,
2234.132,826.12177,
2231.221,855.1413,
2228.311,864.39562,
2225.400,859.29718,
2222.490,875.1747,
2219.579,887.37118,
2216.669,883.4537,
2213.758,876.65933,
2210.847,883.48709,
2207.937,914.57203,
2205.026,923.65284,
2202.116,929.47902,
2199.205,954.17477,
2196.294,927.40309,
2193.384,919.21653,
2190.473,955.04637,
2187.563,961.92334,
2184.652,975.48969,
2181.742,986.12379,
2178.831,979.58324,
2175.920,1034.6819,
2173.010,1055.2497,
2170.099,1122.3339,
2167.189,1087.6069,
2164.278,1195.1846,
2161.368,1242.7308,
2158.457,1297.4108,
2155.546,1368.5097,
2152.636,1419.96,
2149.725,1470.8213,
2146.815,1501.1075,
2143.904,1582.8006,
2140.993,1645.8062,
2138.083,1655.0756,
2135.172,1660.4212,
2132.262,1677.4067,
2129.351,1702.9578,
2126.441,1652.9816,
2123.530,1654.1679,
2120.619,1582.7928,
2117.709,1505.5711,
2114.798,1417.0208,
2111.888,1334.0764,
2108.977,1291.4313,
2106.067,1224.9632,
2103.156,1190.038,
2100.245,1120.8662,
2097.335,1103.985,
2094.424,1084.7898,
2091.514,1070.4958,
2088.603,1036.7229,
2085.692,1030.4178,
2082.782,1034.4773,
2079.871,1030.6603,
2076.961,1015.7791,
2074.050,1039.8083,
2071.140,1018.875,
2068.229,1016.9701,
2065.318,1014.937,
2062.408,1011.5036,
2059.497,993.25594,
2056.587,1006.7351,
2053.676,1021.4079,
2050.766,1010.8757,
2047.855,1000.7041,
2044.944,996.20512,
2042.034,1007.245,
2039.123,1010.7942,
2036.213,1003.3172,
2033.302,991.91866,
2030.391,998.62031,
2027.481,990.02151,
2024.570,1004.9459,
2021.660,1006.9933,
2018.749,997.36888,
2015.839,1012.2963,
2012.928,1028.7945,
2010.017,1026.356,
2007.107,1008.5946,
2004.196,1021.3751,
2001.286,1030.3945,
1998.375,1027.7461,
1995.465,998.41072,
1992.554,1000.3926,
1989.643,1001.875,
1986.733,1014.1961,
1983.822,1021.2856,
1980.912,1028.0531,
1978.001,1015.6041,
1975.090,1006.6567,
1972.180,1020.633,
1969.269,1016.5531,
1966.359,1014.3616,
1963.448,1006.9173,
1960.538,1023.9743,
1957.627,1027.9834,
1954.716,1009.4208,
1951.806,981.80601,
1948.895,1030.7334,
1945.985,981.67075,
1943.074,985.92289,
1940.164,992.47101,
1937.253,982.5967,
1934.342,978.82367,
1931.432,978.64787,
1928.521,1003.6557,
1925.611,970.90792,
1922.700,971.2866,
1919.790,967.26238,
1916.879,957.50275,
1913.968,995.82705,
1911.058,958.866,
1908.147,975.13341,
1905.237,991.66178,
1902.326,985.68984,
1899.415,955.43599,
1896.505,979.83899,
1893.594,995.96646,
1890.684,1004.6854,
1887.773,1021.3834,
1884.863,1001.3625,
1881.952,988.26999,
1879.041,965.4238,
1876.131,990.45015,
1873.220,952.54738,
1870.310,957.94224,
1867.399,998.23526,
1864.489,1007.5635,
1861.578,1001.6496,
1858.667,1011.0996,
1855.757,972.65065,
1852.846,999.37244,
1849.936,989.71285,
1847.025,996.27642,
1844.114,1038.0467,
1841.204,1027.2666,
1838.293,1039.8467,
1835.383,1066.712,
1832.472,1052.9324,
1829.562,1039.1526,
1826.651,1058.337,
1823.740,1053.7715,
1820.830,1048.875,
1817.919,1074.1207,
1815.009,1049.0506,
1812.098,1051.0561,
1809.188,1072.5106,
1806.277,1063.1185,
1803.366,1061.1412,
1800.456,1079.0183,
1797.545,1115.2296,
1794.635,1107.972,
1791.724,1101.875,
1788.813,1103.0765,
1785.903,1107.875,
1782.992,1096.8765,
1780.082,1075.0091,
1777.171,1085.8707,
1774.261,1066.2249,
1771.350,1086.3903,
1768.439,1131.5565,
1765.529,1143.7852,
1762.618,1168.7507,
1759.708,1171.527,
1756.797,1152.1098,
1753.887,1150.5674,
1750.976,1150.6957,
1748.065,1195.9579,
1745.155,1168.0302,
1742.244,1176.2653,
1739.334,1172.2256,
1736.423,1170.7666,
1733.512,1181.4238,
1730.602,1204.8195,
1727.691,1226.4606,
1724.781,1234.8079,
1721.870,1224.6083,
1718.960,1226.8084,
1716.049,1260.595,
1713.138,1244.6451,
1710.228,1235.6532,
1707.317,1273.7961,
1704.407,1266.2974,
1701.496,1291.3099,
1698.586,1312.3547,
1695.675,1338.2034,
1692.764,1337.0348,
1689.854,1347.3986,
1686.943,1325.6507,
1684.033,1343.4031,
1681.122,1384.1783,
1678.211,1368.0368,
1675.301,1422.7054,
1672.390,1437.7494,
1669.480,1396.5649,
1666.569,1482.0147,
1663.659,1493.4793,
1660.748,1530.4535,
1657.837,1560.7279,
1654.927,1598.8516,
1652.016,1598.4582,
1649.106,1622.3401,
1646.195,1642.3615,
1643.285,1701.2572,
1640.374,1634.5091,
1637.463,1758.8118,
1634.553,1810.4661,
1631.642,1849.9944,
1628.732,1861.8408,
1625.821,2023.9143,
1622.911,2083.5369,
1620.000,2207.3002,
1617.089,2346.0889,
1614.179,2474.2371,
1611.268,2595.3393,
1608.358,2739.992,
1605.447,2852.4759,
1602.536,2952.0637,
1599.626,3002.1118,
1596.715,2969.571,
1593.805,2913.1094,
1590.894,2905.9943,
1587.984,2909.3394,
1585.073,2852.8703,
1582.162,2803.6354,
1579.252,2753.3233,
1576.341,2676.5857,
1573.431,2647.3442,
1570.520,2594.1905,
1567.610,2568.4435,
1564.699,2581.5507,
1561.788,2579.4244,
1558.878,2562.2197,
1555.967,2506.3251,
1553.057,2447.7029,
1550.146,2399.3769,
1547.235,2373.7911,
1544.325,2328.1567,
1541.414,2294.1747,
1538.504,2277.4885,
1535.593,2213.7228,
1532.683,2183.3853,
1529.772,2193.4878,
1526.861,2134.8608,
1523.951,2082.8568,
1521.040,2089.9304,
1518.130,2080.4768,
1515.219,2039.9558,
1512.309,2018.3165,
1509.398,2028.8523,
1506.487,2006.1973,
1503.577,2044.0578,
1500.666,1988.1742,
1497.756,1953.1634,
1494.845,1981.1952,
1491.934,1988.7427,
1489.024,1948.318,
1486.113,1956.1472,
1483.203,1910.6903,
1480.292,1887.0563,
1477.382,1846.6956,
1474.471,1820.2253,
1471.560,1818.5033,
1468.650,1817.1419,
1465.739,1794.0983,
1462.829,1793.8113,
1459.918,1806.2949,
1457.008,1808.8596,
1454.097,1774.1375,
1451.186,1745.2715,
1448.276,1764.3026,
1445.365,1764.8023,
1442.455,1762.9943,
1439.544,1776.7868,
1436.633,1719.2553,
1433.723,1786.7655,
1430.812,1752.7959,
1427.902,1776.0858,
1424.991,1742.9141,
1422.081,1718.9381,
1419.170,1697.0016,
1416.259,1671.1932,
1413.349,1649.2597,
1410.438,1674.6653,
1407.528,1726.4995,
1404.617,1666.2642,
1401.707,1638.5517,
1398.796,1665.8191,
1395.885,1682.5838,
1392.975,1711.9586,
1390.064,1712.8083,
1387.154,1677.0988,
1384.243,1669.0156,
1381.332,1736.6537,
1378.422,1737.1453,
1375.511,1781.174,
1372.601,1784.6397,
1369.690,1810.5917,
1366.780,1893.2865,
1363.869,1977.0785,
1360.958,1992.2922,
1358.048,2043.6463,
1355.137,2090.8116,
1352.227,2133.6465,
1349.316,2186.5399,
1346.406,2227.8655,
1343.495,2283.1032,
1340.584,2304.7319,
1337.674,2318.1966,
1334.763,2323.6978,
1331.853,2397.8763,
1328.942,2415.9959,
1326.032,2421.9531,
1323.121,2500.6763,
1320.210,2590.4715,
1317.300,2590.5927,
1314.389,2609.473,
1311.479,2706.4183,
1308.568,2810.2511,
1305.657,2903.2996,
1302.747,3030.2743,
1299.836,3101.8922,
1296.926,3095.986,
1294.015,3119.8884,
1291.105,3217.7346,
1288.194,3275.6046,
1285.283,3324.1072,
1282.373,3380.6405,
1279.462,3446.5997,
1276.552,3510.1428,
1273.641,3570.4474,
1270.731,3642.69,
1267.820,3718.7304,
1264.909,3742.699,
1261.999,3725.377,
1259.088,3684.3316,
1256.178,3551.6936,
1253.267,3532.9438,
1250.356,3427.5461,
1247.446,3383.9157,
1244.535,3328.4198,
1241.625,3208.3381,
1238.714,3096.3433,
1235.804,3030.4819,
1232.893,2982.5222,
1229.982,2879.6672,
1227.072,2814.4847,
1224.161,2751.0397,
1221.251,2704.8831,
1218.340,2659.1888,
1215.430,2620.5052,
1212.519,2582.5953,
1209.608,2548.0156,
1206.698,2536.7262,
1203.787,2554.1464,
1200.877,2572.5994,
1197.966,2584.2884,
1195.055,2653.1349,
1192.145,2759.5443,
1189.234,2844.7248,
1186.324,2898.4228,
1183.413,2910.0425,
1180.503,2887.7456,
1177.592,2862.3901,
1174.681,2843.399,
1171.771,2790.8859,
1168.860,2748.0176,
1165.950,2739.0373,
1163.039,2714.1293,
1160.129,2696.7967,
1157.218,2672.1648,
1154.307,2659.0376,
1151.397,2664.5333,
1148.486,2642.6733,
1145.576,2653.5303,
1142.665,2668.6248,
1139.754,2676.384,
1136.844,2677.875,
1133.933,2632.714,
1131.023,2636.7543,
1128.112,2667.5906,
1125.202,2649.4257,
1122.291,2649.6378,
1119.380,2682.953,
1116.470,2690.8957,
1113.559,2711.2062,
1110.649,2743.0688,
1107.738,2730.0841,
1104.828,2698.553,
1101.917,2690.1296,
1099.006,2687.0093,
1096.096,2636.52,
1093.185,2647.0561,
1090.275,2681.8643,
1087.364,2682.3276,
1084.453,2691.8117,
1081.543,2707.5719,
1078.632,2708.9205,
1075.722,2696.0631,
1072.811,2702.1494,
1069.901,2776.3766,
1066.990,2789.15,
1064.079,2814.693,
1061.169,2828.6365,
1058.258,2839.3447,
1055.348,2852.9327,
1052.437,2855.5792,
1049.527,2843.7072,
1046.616,2839.363,
1043.705,2853.5195,
1040.795,2855.9595,
1037.884,2839.7029,
1034.974,2822.268,
1032.063,2825.5055,
1029.153,2851.5368,
1026.242,2865.3761,
1023.331,2925.8712,
1020.421,2940.6634,
1017.510,2973.2504,
1014.600,3021.982,
1011.689,3077.6806,
1008.778,3135.4614,
1005.868,3139.3692,
1002.957,3194.4319,
1000.047,3235.635,
997.136,3331.2752,
994.226,3408.6132,
991.315,3409.6498,
988.404,3341.2028,
985.494,3250.2202,
982.583,3265.6383,
979.673,3240.8041,
976.762,3239.6815,
973.852,3248.5271,
970.941,3245.0582,
968.030,3235.7884,
965.120,3274.9251,
962.209,3286.8607,
959.299,3326.4122,
956.388,3290.9183,
953.477,3283.7572,
950.567,3326.4308,
947.656,3311.6468,
944.746,3294.6557,
941.835,3362.7091,
938.925,3336.7598,
936.014,3292.6187,
933.103,3265.5786,
930.193,3250.2818,
927.282,3226.5918,
924.372,3202.9148,
921.461,3154.9546,
918.551,3100.5334,
915.640,3048.2283,
912.729,3010.8497,
909.819,3001.0983,
906.908,3010.3649,
903.998,2990.1955,
901.087,2994.4226,
898.176,3042.3454,
895.266,3087.6054,
892.355,3089.2727,
889.445,3112.7722,
886.534,3144.6001,
883.624,3181.1524,
880.713,3199.4475,
877.802,3172.9993,
874.892,3094.8134,
871.981,2995.6321,
869.071,2943.0011,
866.160,2991.8316,
863.250,3059.8112,
860.339,3115.7737,
857.428,3150.7446,
854.518,3160.54,
851.607,3079.8293,
848.697,3074.1288,
845.786,3032.7249,
842.875,3020.5866,
839.965,3096.7105,
837.054,3192.2285,
834.144,3223.7211,
831.233,3245.2072,
828.323,3246.9401,
825.412,3242.4848,
822.501,3242.4494,
819.591,3223.4422,
816.680,3181.2083,
813.770,3155.2124,
810.859,3103.0071,
807.949,3055.2848,
805.038,3066.2777,
802.127,3061.3389,
799.217,3013.9154,
796.306,2973.4694,
793.396,2949.8139,
790.485,2939.9798,
787.574,2932.9996,
784.664,2936.28,
781.753,2939.5589,
778.843,2966.3593,
775.932,2982.9986,
773.022,2966.4541,
770.111,3002.4275,
767.200,2987.3648,
764.290,2994.0104,
761.379,3009.1769,
758.469,3013.6433,
755.558,2991.468,
752.648,2910.8223,
749.737,2937.9591,
746.826,2973.463,
743.916,2986.4789,
741.005,2979.9404,
738.095,2953.9604,
735.184,2930.8533,
732.274,2879.7514,
729.363,2856.6778,
726.452,2891.6756,
723.542,2912.7198,
720.631,2935.2821,
717.721,2934.428,
714.810,2917.4546,
711.899,2904.1423,
708.989,2926.7362,
706.078,2936.4906,
703.168,2918.8367,
700.257,2908.763,
697.347,2902.2239,
694.436,2864.0714,
691.525,2871.3056,
688.615,2872.875,
685.704,2875.4652,
682.794,2881.4494,
679.883,2892.1097,
676.973,2941.7947,
674.062,2954.4273,
671.151,2946.2317,
668.241,2927.9188,
665.330,2909.3288,
662.420,2918.9136,
659.509,2941.8277,
656.598,2982.4365,
653.688,3014.354,
650.777,2994.9029,
647.867,2966.2351,
644.956,2948.1111,
642.046,2891.1232,
639.135,2842.2551,
636.224,2922.7954,
633.314,2906.9167,
630.403,2947.2158,
627.493,2987.0928,
624.582,3002.0516,
621.672,3002.8436,
618.761,2980.0768,
615.850,2986.6497,
612.940,3018.7086,
610.029,3055.4554,
607.119,3034.925,
604.208,3035.005,
601.297,3034.3794,
598.387,3019.9766,
595.476,2990.6233,
592.566,3019.7449,
589.655,3011.2693,
586.745,3002.1391,
583.834,3006.0234,
580.923,3027.9982,
578.013,3048.4013,
575.102,3052.7278,
572.192,3065.0945,
569.281,3094.2178,
566.371,3123.9575,
563.460,3104.3,
560.549,3076.3584,
557.639,3063.3205,
554.728,3081.1706,
551.818,3085.8525,
548.907,3086.2656,
545.996,3063.3252,
543.086,3040.9605,
540.175,3101.6949,
537.265,3110.2207,
534.354,3092.3091,
531.444,3079.5628,
528.533,3097.7579,
525.622,3110.1731,
522.712,3129.2573,
519.801,3154.0046,
516.891,3177.188,
513.980,3178.7366,
511.070,3193.6663,
508.159,3240.9457,
505.248,3288.629,
502.338,3298.7727,
499.427,3363.6066,
496.517,3424.4305,
493.606,3455.1831,
490.695,3452.2287,
487.785,3469.1641,
484.874,3460.243,
481.964,3463.8417,
479.053,3468.1305,
476.143,3427.4285,
473.232,3427.0332,
470.321,3403.5462,
467.411,3397.376,
464.500,3455.6119,
461.590,3484.7101,
458.679,3520.94,
455.769,3559.6282,
452.858,3589.5801,
449.947,3548.3278,
447.037,3535.0209,
444.126,3564.778,
441.216,3630.2675,
438.305,3684.3646,
435.395,3662.3714,
432.484,3636.0394,
429.573,3630.8151,
426.663,3673.383,
423.752,3580.6312,
420.842,3425.6169,
417.931,3281.1789,
415.020,3247.0528,
412.110,3517.3035,
409.199,3715.1634,
406.289,3805.0841,
403.378,3765.8545,
400.468,3759.8066,
397.557,3766.6155,
394.646,3816.6236,
391.736,3928.7402,
388.825,3893.2913,
385.915,3881.8106,
383.004,3880.3039,
380.094,3879.2205,
377.183,3885.9928,
374.272,3908.5007,
371.362,3941.18,
368.451,3979.881,
365.541,4012.9046,
362.630,4022.9675,
359.719,4029.2024,
356.809,4040.7423,
353.898,4022.0223,
350.988,4026.0973,
348.077,4022.8395,
345.167,3996.9346,
342.256,4017.8525,
339.345,4030.2522,
336.435,4035.5974,
333.524,4034.2173,
330.614,4013.353,
327.703,4042.8134,
324.793,4088.4756,
321.882,4121.8768,
318.971,4122.6202,
316.061,4161.4518,
313.150,4217.3488,
310.240,4267.0705,
307.329,4301.0337,
304.418,4290.6214,
301.508,4265.8289,
298.597,4276.9351,
295.687,4340.8584,
292.776,4361.2916,
289.866,4369.2046,
286.955,4470.41,
284.044,4525.9875,
281.134,4569.8705,
278.223,4610.2341,
275.313,4653.7085,
272.402,4679.7212,
269.492,4708.0345,
266.581,4741.824,
263.670,4727.1204,
260.760,4732.2779,
257.849,4780.9088,
254.939,4895.3945,
252.028,4918.5903,
249.117,4953.8278,
246.207,4997.2396,
243.296,5041.1619,
240.386,5009.3075,
237.475,4977.581,
234.565,4957.875,
231.654,4957.875,
228.743,4931.4081,
225.833,4904.5575,
222.922,4886.584,
220.012,4858.8989,
217.101,4879.8087,
214.191,4924.8629,
211.280,4971.4205,
208.369,4957.3819,
205.459,4937.696,
202.548,4917.2399,
199.638,4896.1961,
196.727,4961.0209,
193.816,5026.6251,
190.906,5063.1351,
187.995,5127.5733,
185.085,5139.4722,
182.174,5151.7728,
179.264,5239.9502,
176.353,5222.9623,
173.442,5219.8394,
170.532,5241.8831,
167.621,5250.5348,
164.711,5150.3893,
161.800,4995.205,
158.890,4811.6745,
155.979,4529.675,
153.068,4183.9093,
150.158,3771.906,
147.247,3260.724,
144.337,2708.5705,
141.426,2144.0125,
138.516,1578.3853,
135.605,1124.4554,
132.694,765.26314,
129.784,496.51681,
126.873,335.61259,
123.963,233.44844,
121.052,159.9116,
118.141,107.08285,
115.231,83.426178,
112.320,70.062277,
109.410,64.193224,
106.499,60.632448,
103.589,48.109656,
100.678,35.887161,
97.767,28.066848,
94.857,32.032934,
91.946,33.875,
89.036,32.407327,
86.125,23.187659,
83.215,19.813159,
80.304,20.790461,
77.393,26.455821,
74.483,22.289055,
71.572,20.599704,
68.662,21.59793,
65.751,18.772126,
62.840,19.801808,
59.930,20.189424,
57.019,13.843686,
54.109,20.04093,
51.198,22.462126,
48.288,16.846688,
45.377,13.329797,
42.466,15.584974,
39.556,19.838933,
36.645,13.519221,
33.735,14.471242,
30.824,14.445243,
27.914,6.7323156,
25.003,7.120275,
22.092,9.4895228,
19.182,13.83608,
16.271,43.214666,
13.361,134.1091,
10.450,289.98939,
7.539,563.72901,
4.629,729.36247,
1.718,693.21965,
-1.192,286.78439,
-4.103,127.3175,
-7.013,40.545725,
-9.924,0.875,
