,PLF08E~1,
Wavenumbers [1/cm],Intensity,
3014.167,-4.5,
3011.256,1.0999141,
3008.346,99.898443,
3005.435,123.80742,
3002.525,132.01007,
2999.614,147.12336,
2996.704,140.18144,
2993.793,142.23387,
2990.882,147.15653,
2987.972,163.46469,
2985.061,148.96304,
2982.151,153.59077,
2979.240,169.1977,
2976.329,178.49454,
2973.419,184.97676,
2970.508,193.34999,
2967.598,178.21687,
2964.687,198.23098,
2961.777,202.68802,
2958.866,215.50594,
2955.955,202.18806,
2953.045,217.8848,
2950.134,226.07434,
2947.224,231.92703,
2944.313,233.01709,
2941.403,240.83394,
2938.492,231.80895,
2935.581,241.09141,
2932.671,233.02364,
2929.760,242.41152,
2926.850,241.13421,
2923.939,252.93925,
2921.028,243.17046,
2918.118,253.1398,
2915.207,252.67723,
2912.297,257.48307,
2909.386,250.28103,
2906.476,267.49154,
2903.565,266.30741,
2900.654,257.22901,
2897.744,256.58801,
2894.833,249.06728,
2891.923,230.1218,
2889.012,247.58093,
2886.102,256.10405,
2883.191,222.5321,
2880.280,152.94497,
2877.370,91.901293,
2874.459,15.129175,
2871.549,113.21124,
2868.638,225.27932,
2865.727,233.58075,
2862.817,255.5294,
2859.906,257.37463,
2856.996,274.55887,
2854.085,287.90761,
2851.175,276.5,
2848.264,269.43617,
2845.353,276.39216,
2842.443,273.89582,
2839.532,286.81338,
2836.622,285.83138,
2833.711,275.44819,
2830.801,282.59338,
2827.890,289.60314,
2824.979,282.57401,
2822.069,286.61372,
2819.158,296.11995,
2816.248,292.51158,
2813.337,302.25244,
2810.427,285.80855,
2807.516,297.85953,
2804.605,287.97357,
2801.695,307.7237,
2798.784,282.86554,
2795.874,286.62399,
2792.963,309.00011,
2790.052,307.50086,
2787.142,292.94731,
2784.231,276.56523,
2781.321,285.74568,
2778.410,288.19414,
2775.500,303.67069,
2772.589,278.07873,
2769.678,306.42832,
2766.768,297.76018,
2763.857,289.7659,
2760.947,302.94011,
2758.036,301.97139,
2755.126,324.8312,
2752.215,322.52263,
2749.304,320.73381,
2746.394,324.22985,
2743.483,322.79999,
2740.573,320.17697,
2737.662,318.84023,
2734.751,326.29122,
2731.841,307.0934,
2728.930,329.47886,
2726.020,329.72975,
2723.109,315.10859,
2720.199,337.91256,
2717.288,327.9562,
2714.377,324.01672,
2711.467,342.10659,
2708.556,339.45747,
2705.646,350.33102,
2702.735,343.65721,
2699.825,341.83639,
2696.914,344.64272,
2694.003,349.45446,
2691.093,349.85622,
2688.182,324.7363,
2685.272,346.6323,
2682.361,335.96398,
2679.450,359.17494,
2676.540,357.4187,
2673.629,347.1951,
2670.719,338.99631,
2667.808,353.86774,
2664.898,349.01945,
2661.987,362.96691,
2659.076,359.40734,
2656.166,353.67749,
2653.255,359.31293,
2650.345,361.36388,
2647.434,376.89983,
2644.524,366.63907,
2641.613,384.50063,
2638.702,376.79984,
2635.792,368.97257,
2632.881,357.39851,
2629.971,370.5,
2627.060,368.33406,
2624.149,359.74375,
2621.239,364.7663,
2618.328,372.89878,
2615.418,399.52272,
2612.507,376.46843,
2609.597,388.48004,
2606.686,381.85138,
2603.775,374.34525,
2600.865,376.20985,
2597.954,391.45209,
2595.044,398.75953,
2592.133,402.65911,
2589.223,404.30738,
2586.312,416.52511,
2583.401,419.25547,
2580.491,412.8702,
2577.580,415.48515,
2574.670,408.99064,
2571.759,409.99487,
2568.848,414.5553,
2565.938,417.30954,
2563.027,409.64549,
2560.117,407.7617,
2557.206,419.73247,
2554.296,406.5595,
2551.385,416.938,
2548.474,423.83346,
2545.564,427.46834,
2542.653,439.10068,
2539.743,422.52465,
2536.832,416.7243,
2533.922,434.57885,
2531.011,440.87488,
2528.100,449.83103,
2525.190,441.85082,
2522.279,415.00074,
2519.369,439.46263,
2516.458,426.05595,
2513.548,435.39988,
2510.637,441.23779,
2507.726,447.19144,
2504.816,442.25085,
2501.905,453.1811,
2498.995,444.91803,
2496.084,448.43378,
2493.173,452.55298,
2490.263,458.30903,
2487.352,465.70867,
2484.442,472.49357,
2481.531,470.12773,
2478.621,485.76548,
2475.710,437.85272,
2472.799,481.77356,
2469.889,478.92383,
2466.978,487.99478,
2464.068,506.78048,
2461.157,475.84747,
2458.247,478.94115,
2455.336,488.03035,
2452.425,502.52359,
2449.515,477.83057,
2446.604,489.56455,
2443.694,464.80177,
2440.783,483.45834,
2437.872,493.75525,
2434.962,504.70276,
2432.051,498.45646,
2429.141,510.81725,
2426.230,494.52093,
2423.320,500.74231,
2420.409,516.31424,
2417.498,502.10674,
2414.588,517.66723,
2411.677,513.85455,
2408.767,501.55905,
2405.856,505.24292,
2402.946,517.14343,
2400.035,512.31689,
2397.124,522.39839,
2394.214,527.2292,
2391.303,530.00271,
2388.393,525.3023,
2385.482,503.33717,
2382.571,520.0064,
2379.661,519.73252,
2376.750,538.54917,
2373.840,544.0094,
2370.929,545.46751,
2368.019,541.64534,
2365.108,531.82461,
2362.197,550.45894,
2359.287,548.51671,
2356.376,553.48767,
2353.466,572.01724,
2350.555,542.29003,
2347.645,565.40593,
2344.734,582.07604,
2341.823,571.68242,
2338.913,582.4149,
2336.002,568.69134,
2333.092,566.79904,
2330.181,567.55368,
2327.270,572.38999,
2324.360,597.75238,
2321.449,581.97618,
2318.539,577.60704,
2315.628,594.35652,
2312.718,620.69825,
2309.807,579.93458,
2306.896,602.01957,
2303.986,597.31807,
2301.075,600.01057,
2298.165,606.71145,
2295.254,603.54309,
2292.344,607.49579,
2289.433,620.14091,
2286.522,617.60711,
2283.612,623.57016,
2280.701,598.53593,
2277.791,623.58015,
2274.880,630.42191,
2271.969,632.63991,
2269.059,618.67168,
2266.148,650.11602,
2263.238,647.70464,
2260.327,640.29308,
2257.417,637.97444,
2254.506,643.95016,
2251.595,647.07457,
2248.685,665.123,
2245.774,674.30217,
2242.864,641.82418,
2239.953,647.41033,
2237.043,647.38286,
2234.132,641.39871,
2231.221,671.7663,
2228.311,662.75389,
2225.400,693.30298,
2222.490,680.18716,
2219.579,668.56949,
2216.669,688.05485,
2213.758,695.41636,
2210.847,699.85769,
2207.937,687.9479,
2205.026,717.83294,
2202.116,731.12208,
2199.205,735.6127,
2196.294,720.82203,
2193.384,742.34105,
2190.473,733.90845,
2187.563,769.49033,
2184.652,767.19878,
2181.742,766.38647,
2178.831,772.45722,
2175.920,804.89528,
2173.010,812.89909,
2170.099,851.82839,
2167.189,890.67939,
2164.278,921.36935,
2161.368,975.78326,
2158.457,1024.3819,
2155.546,1060.7405,
2152.636,1096.3776,
2149.725,1141.7751,
2146.815,1170.7993,
2143.904,1187.8234,
2140.993,1244.2672,
2138.083,1264.2902,
2135.172,1290.0882,
2132.262,1307.0387,
2129.351,1321.9896,
2126.441,1284.3931,
2123.530,1272.7368,
2120.619,1199.9956,
2117.709,1155.4799,
2114.798,1104.5805,
2111.888,1033.6515,
2108.977,989.05628,
2106.067,954.44002,
2103.156,919.98478,
2100.245,890.48432,
2097.335,861.40577,
2094.424,829.5852,
2091.514,820.28223,
2088.603,819.24652,
2085.692,816.81603,
2082.782,805.13859,
2079.871,801.67853,
2076.961,814.59591,
2074.050,813.57879,
2071.140,797.75269,
2068.229,805.96225,
2065.318,797.64825,
2062.408,797.53026,
2059.497,789.48809,
2056.587,781.24425,
2053.676,781.94985,
2050.766,776.03886,
2047.855,779.75954,
2044.944,759.68749,
2042.034,785.91608,
2039.123,766.94108,
2036.213,759.81104,
2033.302,767.39085,
2030.391,773.17849,
2027.481,766.96337,
2024.570,780.29969,
2021.660,821.0757,
2018.749,778.33579,
2015.839,798.15485,
2012.928,789.5,
2010.017,805.73237,
2007.107,816.89061,
2004.196,788.05953,
2001.286,817.08652,
1998.375,793.44388,
1995.465,786.5125,
1992.554,785.99415,
1989.643,793.22349,
1986.733,809.98158,
1983.822,814.55022,
1980.912,789.58904,
1978.001,787.44063,
1975.090,779.93663,
1972.180,771.77526,
1969.269,793.78453,
1966.359,815.87851,
1963.448,806.15918,
1960.538,823.22227,
1957.627,791.05105,
1954.716,772.90218,
1951.806,787.64903,
1948.895,784.88875,
1945.985,748.95098,
1943.074,762.70658,
1940.164,778.1251,
1937.253,783.05659,
1934.342,768.41444,
1931.432,748.68612,
1928.521,757.73489,
1925.611,748.48071,
1922.700,769.20027,
1919.790,782.52883,
1916.879,754.66223,
1913.968,777.46926,
1911.058,762.64114,
1908.147,754.75113,
1905.237,787.46327,
1902.326,794.31484,
1899.415,747.65852,
1896.505,737.28927,
1893.594,757.0427,
1890.684,754.75495,
1887.773,763.09443,
1884.863,787.89408,
1881.952,789.22256,
1879.041,800.87332,
1876.131,763.1523,
1873.220,732.57956,
1870.310,752.70624,
1867.399,796.81228,
1864.489,793.26634,
1861.578,785.25841,
1858.667,770.39516,
1855.757,809.70286,
1852.846,810.26922,
1849.936,815.45396,
1847.025,804.67518,
1844.114,805.26939,
1841.204,802.46154,
1838.293,822.97589,
1835.383,827.11651,
1832.472,807.23217,
1829.562,828.8849,
1826.651,842.08111,
1823.740,805.55741,
1820.830,827.22472,
1817.919,817.95496,
1815.009,835.76208,
1812.098,856.55511,
1809.188,857.56202,
1806.277,812.51807,
1803.366,901.75137,
1800.456,857.33513,
1797.545,855.9751,
1794.635,871.40301,
1791.724,875.3544,
1788.813,864.09949,
1785.903,862.26551,
1782.992,848.62366,
1780.082,826.45429,
1777.171,833.48767,
1774.261,786.03997,
1771.350,833.36452,
1768.439,908.22323,
1765.529,897.40738,
1762.618,898.57815,
1759.708,910.47825,
1756.797,938.54546,
1753.887,952.2172,
1750.976,917.55498,
1748.065,914.86098,
1745.155,925.13871,
1742.244,955.95828,
1739.334,951.64354,
1736.423,912.11873,
1733.512,949.70746,
1730.602,972.9881,
1727.691,964.52041,
1724.781,967.79261,
1721.870,965.47617,
1718.960,992.45589,
1716.049,999.33897,
1713.138,1003.775,
1710.228,967.07723,
1707.317,1014.5743,
1704.407,987.36091,
1701.496,1021.785,
1698.586,1060.6114,
1695.675,1066.3071,
1692.764,1046.6188,
1689.854,1073.2441,
1686.943,1091.8929,
1684.033,1053.4934,
1681.122,1081.0072,
1678.211,1098.3382,
1675.301,1098.5,
1672.390,1152.4402,
1669.480,1132.6925,
1666.569,1156.5127,
1663.659,1158.3493,
1660.748,1210.5027,
1657.837,1261.5437,
1654.927,1263.5,
1652.016,1263.3542,
1649.106,1258.5282,
1646.195,1301.0345,
1643.285,1363.3405,
1640.374,1357.0436,
1637.463,1383.2386,
1634.553,1423.3966,
1631.642,1417.2709,
1628.732,1487.7252,
1625.821,1525.5962,
1622.911,1671.6716,
1620.000,1743.5929,
1617.089,1867.9925,
1614.179,1951.1593,
1611.268,2007.418,
1608.358,2145.8043,
1605.447,2258.1009,
1602.536,2301.7755,
1599.626,2321.0588,
1596.715,2341.5596,
1593.805,2243.3348,
1590.894,2243.8294,
1587.984,2229.9103,
1585.073,2308.3276,
1582.162,2193.0927,
1579.252,2147.0425,
1576.341,2144.9032,
1573.431,2103.9918,
1570.520,2081.7987,
1567.610,2059.8723,
1564.699,2017.2485,
1561.788,1983.7819,
1558.878,1983.6932,
1555.967,1980.2327,
1553.057,1936.3108,
1550.146,1918.4164,
1547.235,1885.4901,
1544.325,1831.6579,
1541.414,1817.6009,
1538.504,1795.7271,
1535.593,1766.0654,
1532.683,1757.9873,
1529.772,1715.2756,
1526.861,1652.6138,
1523.951,1626.7728,
1521.040,1632.8325,
1518.130,1641.2322,
1515.219,1607.78,
1512.309,1608.0045,
1509.398,1597.907,
1506.487,1577.7277,
1503.577,1624.3853,
1500.666,1598.1496,
1497.756,1578.1269,
1494.845,1559.8591,
1491.934,1520.4528,
1489.024,1506.0154,
1486.113,1525.8987,
1483.203,1523.0592,
1480.292,1512.3179,
1477.382,1450.6896,
1474.471,1445.7085,
1471.560,1491.3143,
1468.650,1486.3185,
1465.739,1445.7565,
1462.829,1429.0968,
1459.918,1441.6548,
1457.008,1459.1155,
1454.097,1456.3325,
1451.186,1432.0242,
1448.276,1406.3827,
1445.365,1396.0363,
1442.455,1414.9794,
1439.544,1434.7316,
1436.633,1400.9955,
1433.723,1417.0015,
1430.812,1411.2096,
1427.902,1384.3942,
1424.991,1464.0062,
1422.081,1416.9562,
1419.170,1401.2672,
1416.259,1367.0975,
1413.349,1310.4093,
1410.438,1343.4846,
1407.528,1401.837,
1404.617,1383.7495,
1401.707,1329.473,
1398.796,1336.6538,
1395.885,1366.9527,
1392.975,1376.7923,
1390.064,1391.1959,
1387.154,1339.5457,
1384.243,1300.5019,
1381.332,1354.1439,
1378.422,1399.7898,
1375.511,1405.4105,
1372.601,1486.5982,
1369.690,1522.6456,
1366.780,1481.562,
1363.869,1551.5919,
1360.958,1591.0828,
1358.048,1623.979,
1355.137,1686.6061,
1352.227,1721.8398,
1349.316,1730.7202,
1346.406,1755.3317,
1343.495,1770.2265,
1340.584,1795.1425,
1337.674,1822.0744,
1334.763,1869.2057,
1331.853,1887.7503,
1328.942,1934.7521,
1326.032,1900.5346,
1323.121,1980.4157,
1320.210,1997.5157,
1317.300,2040.0795,
1314.389,2090.9448,
1311.479,2165.0433,
1308.568,2244.8103,
1305.657,2280.0338,
1302.747,2359.1942,
1299.836,2393.7457,
1296.926,2399.1747,
1294.015,2478.2365,
1291.105,2549.3017,
1288.194,2593.6447,
1285.283,2631.1401,
1282.373,2655.789,
1279.462,2703.0287,
1276.552,2769.4135,
1273.641,2828.9987,
1270.731,2859.8537,
1267.820,2866.7953,
1264.909,2913.9942,
1261.999,2888.8329,
1259.088,2897.9541,
1256.178,2837.6916,
1253.267,2783.0027,
1250.356,2706.5154,
1247.446,2637.1893,
1244.535,2591.6608,
1241.625,2523.0372,
1238.714,2434.8001,
1235.804,2393.1409,
1232.893,2342.6402,
1229.982,2270.403,
1227.072,2178.9664,
1224.161,2136.3583,
1221.251,2144.3902,
1218.340,2087.9579,
1215.430,2036.3323,
1212.519,2010.6338,
1209.608,2012.0294,
1206.698,2028.0317,
1203.787,1995.9422,
1200.877,1988.8373,
1197.966,2010.4171,
1195.055,2112.1833,
1192.145,2137.7648,
1189.234,2205.3792,
1186.324,2265.0478,
1183.413,2274.0178,
1180.503,2263.8843,
1177.592,2268.3181,
1174.681,2250.5719,
1171.771,2222.717,
1168.860,2188.7796,
1165.950,2152.4421,
1163.039,2145.1984,
1160.129,2164.9652,
1157.218,2155.4247,
1154.307,2116.7721,
1151.397,2100.017,
1148.486,2120.7478,
1145.576,2131.1486,
1142.665,2076.9859,
1139.754,2066.8046,
1136.844,2083.0076,
1133.933,2094.6055,
1131.023,2103.6372,
1128.112,2110.8571,
1125.202,2118.9879,
1122.291,2147.7642,
1119.380,2184.5693,
1116.470,2191.6295,
1113.559,2197.1395,
1110.649,2169.0319,
1107.738,2164.7522,
1104.828,2152.4467,
1101.917,2128.0092,
1099.006,2139.4692,
1096.096,2121.0913,
1093.185,2130.7493,
1090.275,2134.7371,
1087.364,2136.8722,
1084.453,2124.5633,
1081.543,2139.0404,
1078.632,2159.8446,
1075.722,2138.9448,
1072.811,2152.6026,
1069.901,2196.2657,
1066.990,2186.5667,
1064.079,2231.136,
1061.169,2245.7678,
1058.258,2247.9697,
1055.348,2266.261,
1052.437,2278.8923,
1049.527,2258.3182,
1046.616,2201.8443,
1043.705,2238.6628,
1040.795,2237.4529,
1037.884,2248.2123,
1034.974,2248.6237,
1032.063,2224.4613,
1029.153,2248.6931,
1026.242,2291.9409,
1023.331,2320.9982,
1020.421,2338.3507,
1017.510,2361.9891,
1014.600,2411.6032,
1011.689,2454.9389,
1008.778,2436.6093,
1005.868,2396.5154,
1002.957,2398.2362,
1000.047,2556.4761,
997.136,2630.7705,
994.226,2630.3463,
991.315,2624.1114,
988.404,2625.7734,
985.494,2544.1356,
982.583,2527.861,
979.673,2574.5203,
976.762,2583.6935,
973.852,2569.1018,
970.941,2559.6855,
968.030,2566.8584,
965.120,2591.5143,
962.209,2594.9245,
959.299,2621.7052,
956.388,2622.9806,
953.477,2612.6228,
950.567,2622.6169,
947.656,2656.7066,
944.746,2612.5297,
941.835,2642.8925,
938.925,2628.1263,
936.014,2602.8427,
933.103,2584.9098,
930.193,2576.8995,
927.282,2577.6751,
924.372,2562.4542,
921.461,2475.0776,
918.551,2426.4911,
915.640,2419.0243,
912.729,2419.7911,
909.819,2398.1639,
906.908,2372.8911,
903.998,2376.2722,
901.087,2404.2333,
898.176,2380.8472,
895.266,2367.7007,
892.355,2437.7248,
889.445,2476.331,
886.534,2471.4908,
883.624,2504.1416,
880.713,2533.7693,
877.802,2524.6143,
874.892,2449.8561,
871.981,2300.7367,
869.071,2310.7617,
866.160,2343.5482,
863.250,2416.7349,
860.339,2486.2509,
857.428,2511.8217,
854.518,2498.3817,
851.607,2425.1596,
848.697,2354.7234,
845.786,2329.019,
842.875,2364.1053,
839.965,2438.5585,
837.054,2484.6302,
834.144,2496.2328,
831.233,2534.4974,
828.323,2556.9511,
825.412,2552.807,
822.501,2533.1595,
819.591,2525.7219,
816.680,2538.3205,
813.770,2483.8618,
810.859,2465.2934,
807.949,2468.5146,
805.038,2424.1106,
802.127,2404.3556,
799.217,2399.5184,
796.306,2372.9593,
793.396,2357.7825,
790.485,2362.6048,
787.574,2354.5659,
784.664,2329.9625,
781.753,2348.9844,
778.843,2351.1884,
775.932,2359.0923,
773.022,2395.5837,
770.111,2376.7794,
767.200,2406.7138,
764.290,2400.8973,
761.379,2377.2901,
758.469,2371.4745,
755.558,2418.1416,
752.648,2339.1251,
749.737,2344.3893,
746.826,2350.3716,
743.916,2340.3116,
741.005,2327.2074,
738.095,2306.9105,
735.184,2248.7253,
732.274,2189.6872,
729.363,2194.1578,
726.452,2270.985,
723.542,2284.7447,
720.631,2324.4915,
717.721,2326.7616,
714.810,2316.0739,
711.899,2308.4307,
708.989,2299.5545,
706.078,2335.5586,
703.168,2325.6762,
700.257,2308.9617,
697.347,2307.7168,
694.436,2325.3216,
691.525,2281.9161,
688.615,2273.1289,
685.704,2293.7896,
682.794,2327.2872,
679.883,2347.878,
676.973,2311.8164,
674.062,2317.2616,
671.151,2336.3349,
668.241,2348.8793,
665.330,2340.0462,
662.420,2330.4614,
659.509,2335.4842,
656.598,2351.1842,
653.688,2363.5094,
650.777,2353.257,
647.867,2346.09,
644.956,2314.1616,
642.046,2265.2343,
639.135,2231.3036,
636.224,2264.5438,
633.314,2273.2771,
630.403,2312.7463,
627.493,2351.9426,
624.582,2375.4423,
621.672,2384.1542,
618.761,2353.3425,
615.850,2335.2352,
612.940,2348.6505,
610.029,2390.6565,
607.119,2409.6077,
604.208,2413.63,
601.297,2406.0252,
598.387,2396.3535,
595.476,2394.7627,
592.566,2408.1429,
589.655,2391.7112,
586.745,2361.1035,
583.834,2347.2359,
580.923,2392.5332,
578.013,2398.0263,
575.102,2386.3075,
572.192,2384.3603,
569.281,2412.4194,
566.371,2489.8991,
563.460,2465.7539,
560.549,2453.4746,
557.639,2445.6374,
554.728,2420.416,
551.818,2403.2491,
548.907,2431.7989,
545.996,2452.8888,
543.086,2448.9704,
540.175,2427.947,
537.265,2443.1584,
534.354,2447.9949,
531.444,2448.1719,
528.533,2455.4798,
525.622,2497.381,
522.712,2512.5675,
519.801,2506.5711,
516.891,2502.8639,
513.980,2564.0333,
511.070,2564.5696,
508.159,2576.827,
505.248,2601.513,
502.338,2628.2063,
499.427,2618.1725,
496.517,2666.409,
493.606,2712.5663,
490.695,2729.2816,
487.785,2749.2962,
484.874,2736.9906,
481.964,2740.5431,
479.053,2753.8228,
476.143,2738.4636,
473.232,2729.5866,
470.321,2755.6946,
467.411,2761.9338,
464.500,2689.6745,
461.590,2696.5662,
458.679,2743.0739,
455.769,2797.7737,
452.858,2834.7163,
449.947,2807.9787,
447.037,2821.9163,
444.126,2840.7848,
441.216,2854.4103,
438.305,2871.1728,
435.395,2885.3015,
432.484,2893.5838,
429.573,2887.8024,
426.663,2850.5555,
423.752,2713.5955,
420.842,2568.273,
417.931,2453.2956,
415.020,2413.861,
412.110,2747.5788,
409.199,2921.8447,
406.289,2961.9711,
403.378,2920.5845,
400.468,2945.5323,
397.557,2956.5849,
394.646,2982.6637,
391.736,3044.7515,
388.825,3021.3703,
385.915,3006.5171,
383.004,3014.9193,
380.094,3053.8071,
377.183,3059.8269,
374.272,3072.8984,
371.362,3099.2767,
368.451,3141.1869,
365.541,3168.9567,
362.630,3162.2977,
359.719,3165.2984,
356.809,3198.8236,
353.898,3171.118,
350.988,3174.8922,
348.077,3179.2726,
345.167,3167.1433,
342.256,3179.8435,
339.345,3172.8713,
336.435,3175.4365,
333.524,3206.7819,
330.614,3215.7237,
327.703,3230.3083,
324.793,3234.5396,
321.882,3214.5505,
318.971,3235.3669,
316.061,3265.4508,
313.150,3289.5,
310.240,3289.5,
307.329,3361.6783,
304.418,3365.4226,
301.508,3335.5,
298.597,3335.5,
295.687,3319.2462,
292.776,3354.8336,
289.866,3430.9134,
286.955,3504.0472,
284.044,3527.15,
281.134,3557.0876,
278.223,3606.1703,
275.313,3679.119,
272.402,3672.4257,
269.492,3650.4798,
266.581,3637.7628,
263.670,3641.4387,
260.760,3701.0069,
257.849,3763.482,
254.939,3789.1678,
252.028,3829.3115,
249.117,3851.3524,
246.207,3858.5529,
243.296,3854.8928,
240.386,3836.8692,
237.475,3836.3363,
234.565,3848.4294,
231.654,3835.2825,
228.743,3796.2518,
225.833,3764.9266,
222.922,3754.8058,
220.012,3761.3628,
217.101,3773.3143,
214.191,3782.6258,
211.280,3779.7159,
208.369,3783.5369,
205.459,3769.1307,
202.548,3746.8816,
199.638,3760.669,
196.727,3825.1551,
193.816,3861.4693,
190.906,3841.9221,
187.995,3882.4675,
185.085,3883.26,
182.174,3890.2431,
179.264,3970.4701,
176.353,4021.1506,
173.442,4024.1968,
170.532,3987.2399,
167.621,3976.4253,
164.711,3896.7671,
161.800,3787.9319,
158.890,3672.0558,
155.979,3417.9496,
153.068,3132.7743,
150.158,2822.9686,
147.247,2484.813,
144.337,2079.3775,
141.426,1650.9364,
138.516,1216.5003,
135.605,868.14793,
132.694,591.30295,
129.784,381.43786,
126.873,247.70858,
123.963,172.69811,
121.052,122.61883,
118.141,87.63763,
115.231,65.472319,
112.320,53.958184,
109.410,49.681868,
106.499,45.408937,
103.589,40.017964,
100.678,33.512161,
97.767,25.691848,
94.857,26.885978,
91.946,25.484446,
89.036,21.709715,
86.125,16.745278,
83.215,11.252637,
80.304,9.6548942,
77.393,16.028424,
74.483,15.18973,
71.572,11.238831,
68.662,5.915605,
65.751,10.154311,
62.840,12.463404,
59.930,14.249145,
57.019,17.069473,
54.109,16.902839,
51.198,15.595172,
48.288,13.466025,
45.377,9.2457569,
42.466,12.034413,
39.556,17.69417,
36.645,12.778838,
33.735,13.057745,
30.824,11.849356,
27.914,3.4352534,
25.003,8.1037373,
22.092,17.312282,
19.182,30.072072,
16.271,47.559325,
13.361,172.92969,
10.450,431.89219,
7.539,991.94111,
4.629,1378.1074,
1.718,1448.4826,
-1.192,943.05284,
-4.103,523.62102,
-7.013,205.11742,
-9.924,0.5,
