,PLD6D5~1,
Raman shift [1/cm],Intensity,
3014.167,-2.625,
3011.256,0.375,
3008.346,231.42643,
3005.435,288.60468,
3002.525,304.77265,
2999.614,314.94902,
2996.704,325.36675,
2993.793,307.61348,
2990.882,332.19171,
2987.972,331.44058,
2985.061,341.7149,
2982.151,359.51115,
2979.240,364.00808,
2976.329,397.6837,
2973.419,409.66717,
2970.508,407.35838,
2967.598,430.94849,
2964.687,432.82337,
2961.777,447.74278,
2958.866,435.37203,
2955.955,462.89931,
2953.045,476.96115,
2950.134,509.50331,
2947.224,497.63122,
2944.313,519.40848,
2941.403,540.58942,
2938.492,514.38585,
2935.581,553.18107,
2932.671,520.86002,
2929.760,560.80964,
2926.850,545.89042,
2923.939,549.7254,
2921.028,574.66904,
2918.118,581.81581,
2915.207,588.96361,
2912.297,586.38769,
2909.386,606.92976,
2906.476,602.88622,
2903.565,589.89055,
2900.654,589.58735,
2897.744,600.04812,
2894.833,572.31318,
2891.923,574.2404,
2889.012,567.91257,
2886.102,574.12636,
2883.191,585.3599,
2880.280,561.05921,
2877.370,487.66009,
2874.459,491.47586,
2871.549,549.17788,
2868.638,593.01415,
2865.727,601.375,
2862.817,599.91778,
2859.906,615.5146,
2856.996,609.44293,
2854.085,610.21957,
2851.175,625.11295,
2848.264,608.32084,
2845.353,588.04358,
2842.443,617.17709,
2839.532,619.25557,
2836.622,591.13346,
2833.711,576.96838,
2830.801,588.25221,
2827.890,585.89774,
2824.979,587.67105,
2822.069,605.44323,
2819.158,610.23484,
2816.248,618.83447,
2813.337,609.35427,
2810.427,599.94112,
2807.516,627.83515,
2804.605,609.43991,
2801.695,614.01972,
2798.784,612.07931,
2795.874,614.36972,
2792.963,609.08904,
2790.052,603.375,
2787.142,604.92769,
2784.231,605.69799,
2781.321,587.3179,
2778.410,610.08945,
2775.500,607.05776,
2772.589,605.76032,
2769.678,608.48425,
2766.768,605.05656,
2763.857,633.37307,
2760.947,614.85924,
2758.036,614.06928,
2755.126,650.46688,
2752.215,657.2477,
2749.304,638.80128,
2746.394,647.0464,
2743.483,640.02499,
2740.573,639.60066,
2737.662,637.70488,
2734.751,637.60798,
2731.841,641.15888,
2728.930,650.54013,
2726.020,661.14525,
2723.109,655.375,
2720.199,663.19673,
2717.288,668.60491,
2714.377,682.37042,
2711.467,674.81785,
2708.556,663.85374,
2705.646,683.65674,
2702.735,674.71521,
2699.825,691.64595,
2696.914,692.66044,
2694.003,679.24655,
2691.093,681.0537,
2688.182,697.35796,
2685.272,669.73773,
2682.361,671.43941,
2679.450,684.66718,
2676.540,684.31403,
2673.629,687.6799,
2670.719,686.88608,
2667.808,700.30502,
2664.898,703.95963,
2661.987,704.40859,
2659.076,696.04527,
2656.166,712.375,
2653.255,720.55698,
2650.345,712.12636,
2647.434,728.63222,
2644.524,743.72997,
2641.613,746.23169,
2638.702,745.26453,
2635.792,738.25037,
2632.881,730.17866,
2629.971,738.58984,
2627.060,739.70875,
2624.149,736.375,
2621.239,748.39872,
2618.328,750.0359,
2615.418,751.99774,
2612.507,765.16949,
2609.597,769.54865,
2606.686,764.20632,
2603.775,763.69643,
2600.865,772.19754,
2597.954,776.24365,
2595.044,807.42814,
2592.133,797.82088,
2589.223,792.24236,
2586.312,803.74182,
2583.401,809.92609,
2580.491,794.12985,
2577.580,810.38655,
2574.670,813.22394,
2571.759,814.48629,
2568.848,807.08762,
2565.938,803.08931,
2563.027,812.81583,
2560.117,812.76748,
2557.206,817.55212,
2554.296,825.65875,
2551.385,814.30897,
2548.474,821.63448,
2545.564,837.99513,
2542.653,831.21728,
2539.743,837.74561,
2536.832,845.35444,
2533.922,865.99654,
2531.011,848.14951,
2528.100,854.84536,
2525.190,844.21271,
2522.279,857.375,
2519.369,858.88434,
2516.458,863.4869,
2513.548,849.81157,
2510.637,868.375,
2507.726,869.93634,
2504.816,879.00071,
2501.905,868.76646,
2498.995,888.61388,
2496.084,894.21473,
2493.173,891.19056,
2490.263,890.16145,
2487.352,902.749,
2484.442,890.08377,
2481.531,911.75249,
2478.621,902.80619,
2475.710,913.50535,
2472.799,934.32114,
2469.889,940.55781,
2466.978,923.55036,
2464.068,906.92522,
2461.157,923.52997,
2458.247,931.7868,
2455.336,923.18516,
2452.425,936.87974,
2449.515,931.47896,
2446.604,944.66298,
2443.694,944.49093,
2440.783,979.47861,
2437.872,968.14076,
2434.962,981.54552,
2432.051,959.44902,
2429.141,967.76309,
2426.230,947.13516,
2423.320,983.44693,
2420.409,960.86221,
2417.498,990.68403,
2414.588,1005.8351,
2411.677,1014.3033,
2408.767,1008.0748,
2405.856,990.2155,
2402.946,1006.2803,
2400.035,1028.0628,
2397.124,985.51937,
2394.214,1006.4822,
2391.303,1004.8059,
2388.393,1001.4168,
2385.482,1017.4938,
2382.571,1019.9819,
2379.661,1035.1891,
2376.750,1029.4784,
2373.840,1027.5313,
2370.929,1022.4075,
2368.019,1061.5314,
2365.108,1060.0504,
2362.197,1059.3339,
2359.287,1054.1984,
2356.376,1088.3098,
2353.466,1067.3441,
2350.555,1076.9551,
2347.645,1065.7578,
2344.734,1093.412,
2341.823,1100.4247,
2338.913,1118.8884,
2336.002,1097.7339,
2333.092,1099.9609,
2330.181,1102.3034,
2327.270,1133.3398,
2324.360,1123.5259,
2321.449,1135.1131,
2318.539,1124.7573,
2315.628,1121.4673,
2312.718,1128.5578,
2309.807,1153.1264,
2306.896,1157.0761,
2303.986,1136.1997,
2301.075,1148.8005,
2298.165,1147.9998,
2295.254,1157.1165,
2292.344,1164.0554,
2289.433,1171.6568,
2286.522,1171.7231,
2283.612,1173.3342,
2280.701,1205.5902,
2277.791,1198.5754,
2274.880,1207.6549,
2271.969,1204.4203,
2269.059,1182.1952,
2266.148,1206.6137,
2263.238,1237.6646,
2260.327,1224.4442,
2257.417,1253.7983,
2254.506,1250.2838,
2251.595,1240.6586,
2248.685,1250.4769,
2245.774,1240.7598,
2242.864,1243.7091,
2239.953,1272.8234,
2237.043,1266.7264,
2234.132,1286.8815,
2231.221,1288.5326,
2228.311,1284.7655,
2225.400,1307.375,
2222.490,1312.3881,
2219.579,1337.794,
2216.669,1344.375,
2213.758,1369.162,
2210.847,1386.4052,
2207.937,1379.7007,
2205.026,1396.9286,
2202.116,1444.1308,
2199.205,1436.7995,
2196.294,1467.0449,
2193.384,1510.795,
2190.473,1493.2036,
2187.563,1558.6263,
2184.652,1617.4538,
2181.742,1674.5135,
2178.831,1742.6358,
2175.920,1830.4169,
2173.010,1945.231,
2170.099,2069.6975,
2167.189,2167.3437,
2164.278,2320.1569,
2161.368,2474.2267,
2158.457,2646.9537,
2155.546,2786.5539,
2152.636,2905.2365,
2149.725,2999.7911,
2146.815,3106.1382,
2143.904,3131.0887,
2140.993,3165.7718,
2138.083,3179.8582,
2135.172,3154.7277,
2132.262,3104.8644,
2129.351,3068.6576,
2126.441,2969.1417,
2123.530,2821.7475,
2120.619,2664.8893,
2117.709,2529.4833,
2114.798,2342.313,
2111.888,2196.5533,
2108.977,2055.4412,
2106.067,1926.6448,
2103.156,1839.426,
2100.245,1775.348,
2097.335,1724.909,
2094.424,1658.4075,
2091.514,1614.297,
2088.603,1596.7299,
2085.692,1591.7393,
2082.782,1566.5157,
2079.871,1553.7321,
2076.961,1549.6333,
2074.050,1546.1144,
2071.140,1516.226,
2068.229,1491.8242,
2065.318,1497.9922,
2062.408,1502.7918,
2059.497,1499.9583,
2056.587,1474.5149,
2053.676,1460.6587,
2050.766,1480.6044,
2047.855,1474.5459,
2044.944,1480.508,
2042.034,1475.9241,
2039.123,1458.0349,
2036.213,1466.6617,
2033.302,1461.5274,
2030.391,1455.7477,
2027.481,1478.2285,
2024.570,1493.6462,
2021.660,1462.4445,
2018.749,1511.9816,
2015.839,1453.5272,
2012.928,1469.9035,
2010.017,1466.6877,
2007.107,1465.8218,
2004.196,1493.2559,
2001.286,1486.5623,
1998.375,1480.5039,
1995.465,1443.7643,
1992.554,1464.1747,
1989.643,1450.9971,
1986.733,1471.3917,
1983.822,1489.5161,
1980.912,1481.9486,
1978.001,1454.0021,
1975.090,1462.946,
1972.180,1469.0652,
1969.269,1441.8634,
1966.359,1449.3753,
1963.448,1458.7224,
1960.538,1430.5952,
1957.627,1476.9819,
1954.716,1412.4721,
1951.806,1446.8782,
1948.895,1437.2475,
1945.985,1440.2557,
1943.074,1448.6445,
1940.164,1435.2885,
1937.253,1434.6273,
1934.342,1418.3237,
1931.432,1424.498,
1928.521,1410.6462,
1925.611,1376.0311,
1922.700,1402.9896,
1919.790,1394.2885,
1916.879,1417.422,
1913.968,1386.4156,
1911.058,1394.5732,
1908.147,1398.9692,
1905.237,1416.9192,
1902.326,1432.8713,
1899.415,1396.9677,
1896.505,1407.1581,
1893.594,1392.0213,
1890.684,1403.8715,
1887.773,1422.9787,
1884.863,1410.2725,
1881.952,1433.8797,
1879.041,1434.0276,
1876.131,1408.3868,
1873.220,1396.4015,
1870.310,1400.9445,
1867.399,1381.6949,
1864.489,1393.6087,
1861.578,1398.3476,
1858.667,1393.2163,
1855.757,1422.77,
1852.846,1432.1442,
1849.936,1447.0026,
1847.025,1472.6621,
1844.114,1492.3044,
1841.204,1479.7876,
1838.293,1468.4049,
1835.383,1470.049,
1832.472,1486.375,
1829.562,1483.8198,
1826.651,1475.5372,
1823.740,1497.854,
1820.830,1481.9102,
1817.919,1496.3632,
1815.009,1493.6689,
1812.098,1476.2175,
1809.188,1510.0183,
1806.277,1522.1537,
1803.366,1505.2918,
1800.456,1502.4634,
1797.545,1539.9423,
1794.635,1555.633,
1791.724,1561.006,
1788.813,1561.3519,
1785.903,1508.1346,
1782.992,1563.4733,
1780.082,1539.2409,
1777.171,1526.0447,
1774.261,1547.2302,
1771.350,1558.8345,
1768.439,1571.6546,
1765.529,1607.1945,
1762.618,1633.7338,
1759.708,1611.4833,
1756.797,1581.0568,
1753.887,1597.8371,
1750.976,1614.3992,
1748.065,1623.2183,
1745.155,1639.0652,
1742.244,1653.3342,
1739.334,1644.0503,
1736.423,1684.3002,
1733.512,1675.7245,
1730.602,1683.3274,
1727.691,1679.3954,
1724.781,1702.332,
1721.870,1777.7802,
1718.960,1762.3079,
1716.049,1767.9596,
1713.138,1735.3202,
1710.228,1744.17,
1707.317,1777.335,
1704.407,1784.0702,
1701.496,1800.7829,
1698.586,1850.4222,
1695.675,1871.2178,
1692.764,1835.4528,
1689.854,1855.3789,
1686.943,1880.5319,
1684.033,1932.0835,
1681.122,1863.5815,
1678.211,1966.3757,
1675.301,2018.2177,
1672.390,2006.4647,
1669.480,2036.8162,
1666.569,2092.67,
1663.659,2194.1753,
1660.748,2243.0306,
1657.837,2278.4089,
1654.927,2368.7424,
1652.016,2344.0759,
1649.106,2412.4729,
1646.195,2416.7346,
1643.285,2433.1068,
1640.374,2508.6503,
1637.463,2569.3838,
1634.553,2626.3996,
1631.642,2762.6671,
1628.732,2881.0446,
1625.821,2993.4712,
1622.911,3139.5466,
1620.000,3282.5608,
1617.089,3526.4596,
1614.179,3698.5244,
1611.268,3856.4637,
1608.358,4096.8565,
1605.447,4071.6033,
1602.536,4284.6409,
1599.626,4258.978,
1596.715,4282.603,
1593.805,4242.4471,
1590.894,4203.9095,
1587.984,4200.2411,
1585.073,4217.3913,
1582.162,4129.3724,
1579.252,4106.4652,
1576.341,4041.2899,
1573.431,4088.0289,
1570.520,4048.0467,
1567.610,4039.3163,
1564.699,4023.5242,
1561.788,3926.9392,
1558.878,3855.2368,
1555.967,3793.1285,
1553.057,3736.2029,
1550.146,3668.826,
1547.235,3604.7264,
1544.325,3542.9188,
1541.414,3481.5116,
1538.504,3430.7401,
1535.593,3364.5527,
1532.683,3284.8392,
1529.772,3238.0439,
1526.861,3223.1447,
1523.951,3197.8571,
1521.040,3157.4127,
1518.130,3124.5347,
1515.219,3092.7754,
1512.309,3068.2173,
1509.398,3026.8486,
1506.487,2989.4616,
1503.577,2996.5793,
1500.666,3005.6815,
1497.756,2971.6456,
1494.845,2913.7347,
1491.934,2898.2207,
1489.024,2851.0585,
1486.113,2850.3022,
1483.203,2737.5777,
1480.292,2800.5895,
1477.382,2746.4822,
1474.471,2721.9338,
1471.560,2725.906,
1468.650,2701.7273,
1465.739,2673.3627,
1462.829,2669.7464,
1459.918,2636.3581,
1457.008,2667.2989,
1454.097,2676.4619,
1451.186,2626.6922,
1448.276,2639.8509,
1445.365,2655.8774,
1442.455,2678.9086,
1439.544,2660.5612,
1436.633,2643.5299,
1433.723,2621.6363,
1430.812,2590.5726,
1427.902,2529.7662,
1424.991,2504.1766,
1422.081,2467.5934,
1419.170,2460.9188,
1416.259,2485.487,
1413.349,2466.452,
1410.438,2463.9732,
1407.528,2499.2058,
1404.617,2456.3137,
1401.707,2449.411,
1398.796,2482.3191,
1395.885,2505.2846,
1392.975,2531.7706,
1390.064,2529.8498,
1387.154,2549.5809,
1384.243,2555.6149,
1381.332,2528.6669,
1378.422,2612.8725,
1375.511,2641.9127,
1372.601,2764.9439,
1369.690,2825.0939,
1366.780,2888.8175,
1363.869,2936.7929,
1360.958,2961.2589,
1358.048,3019.5864,
1355.137,3057.4777,
1352.227,3117.4799,
1349.316,3204.65,
1346.406,3238.484,
1343.495,3285.9971,
1340.584,3392.8038,
1337.674,3387.8455,
1334.763,3485.104,
1331.853,3530.5383,
1328.942,3579.5166,
1326.032,3629.4185,
1323.121,3683.0919,
1320.210,3705.7001,
1317.300,3770.7591,
1314.389,3870.4178,
1311.479,3948.4039,
1308.568,3998.0529,
1305.657,4045.1419,
1302.747,4092.102,
1299.836,4152.6258,
1296.926,4260.528,
1294.015,4392.9106,
1291.105,4523.4119,
1288.194,4683.35,
1285.283,4766.6312,
1282.373,4841.6951,
1279.462,4890.8453,
1276.552,4944.7925,
1273.641,5021.7435,
1270.731,5053.7332,
1267.820,5009.0899,
1264.909,5000.375,
1261.999,4997.8784,
1259.088,4929.4693,
1256.178,4854.2891,
1253.267,4765.6555,
1250.356,4648.914,
1247.446,4526.3403,
1244.535,4389.6118,
1241.625,4242.59,
1238.714,4122.8433,
1235.804,4034.482,
1232.893,3911.0145,
1229.982,3845.835,
1227.072,3859.4146,
1224.161,3775.4841,
1221.251,3675.2455,
1218.340,3621.7581,
1215.430,3594.6116,
1212.519,3566.1701,
1209.608,3538.6419,
1206.698,3509.7788,
1203.787,3467.2946,
1200.877,3503.1083,
1197.966,3563.352,
1195.055,3667.0583,
1192.145,3733.9637,
1189.234,3804.2248,
1186.324,3883.0161,
1183.413,3956.172,
1180.503,3976.4769,
1177.592,3924.5969,
1174.681,3874.899,
1171.771,3821.9326,
1168.860,3759.4164,
1165.950,3734.8303,
1163.039,3666.1219,
1160.129,3608.2924,
1157.218,3601.7971,
1154.307,3591.4032,
1151.397,3545.2896,
1148.486,3536.228,
1145.576,3515.8309,
1142.665,3457.2286,
1139.754,3414.1344,
1136.844,3382.9653,
1133.933,3350.5013,
1131.023,3306.0492,
1128.112,3289.0157,
1125.202,3310.061,
1122.291,3303.402,
1119.380,3372.8813,
1116.470,3322.5772,
1113.559,3349.6247,
1110.649,3358.0653,
1107.738,3337.5497,
1104.828,3329.9453,
1101.917,3345.742,
1099.006,3348.5709,
1096.096,3337.3639,
1093.185,3369.85,
1090.275,3366.7101,
1087.364,3336.5578,
1084.453,3300.8764,
1081.543,3283.375,
1078.632,3290.2697,
1075.722,3311.0168,
1072.811,3336.0576,
1069.901,3345.6634,
1066.990,3350.4167,
1064.079,3362.2632,
1061.169,3422.6051,
1058.258,3466.9515,
1055.348,3473.136,
1052.437,3503.15,
1049.527,3573.6771,
1046.616,3581.4966,
1043.705,3599.3318,
1040.795,3560.3182,
1037.884,3578.3627,
1034.974,3622.982,
1032.063,3632.621,
1029.153,3646.7784,
1026.242,3625.1545,
1023.331,3666.039,
1020.421,3663.2214,
1017.510,3691.9916,
1014.600,3736.1381,
1011.689,3760.0899,
1008.778,3779.4607,
1005.868,3897.9426,
1002.957,4072.5945,
1000.047,4248.6151,
997.136,4353.123,
994.226,4407.0055,
991.315,4387.8379,
988.404,4288.2129,
985.494,4286.838,
982.583,4262.8544,
979.673,4236.694,
976.762,4239.5299,
973.852,4208.9201,
970.941,4162.1533,
968.030,4165.7738,
965.120,4162.4215,
962.209,4173.5046,
959.299,4192.373,
956.388,4177.5364,
953.477,4166.9514,
950.567,4185.2634,
947.656,4216.3912,
944.746,4262.2672,
941.835,4225.504,
938.925,4212.4267,
936.014,4232.1255,
933.103,4254.4343,
930.193,4232.2044,
927.282,4135.1917,
924.372,4131.8093,
921.461,4051.1074,
918.551,3996.8139,
915.640,3971.5759,
912.729,3948.9572,
909.819,3913.5983,
906.908,3922.8649,
903.998,3896.3326,
901.087,3919.2908,
898.176,3948.7821,
895.266,3970.6274,
892.355,4002.9816,
889.445,4081.0334,
886.534,4112.2653,
883.624,4141.9241,
880.713,4215.6384,
877.802,4243.7624,
874.892,4181.6173,
871.981,4167.5797,
869.071,4091.5572,
866.160,4122.5324,
863.250,4151.8107,
860.339,4134.9588,
857.428,4095.8795,
854.518,4121.2567,
851.607,4048.0346,
848.697,4021.6187,
845.786,3999.806,
842.875,3990.9678,
839.965,4008.3801,
837.054,4040.3006,
834.144,4033.6706,
831.233,4035.7081,
828.323,4046.7719,
825.412,4044.1404,
822.501,4005.4172,
819.591,3933.5205,
816.680,3908.1378,
813.770,3871.6764,
810.859,3825.3981,
807.949,3788.3433,
805.038,3781.5697,
802.127,3791.4472,
799.217,3714.8543,
796.306,3728.105,
793.396,3765.3827,
790.485,3774.2692,
787.574,3763.7906,
784.664,3695.7213,
781.753,3699.4786,
778.843,3754.913,
775.932,3789.8691,
773.022,3762.5737,
770.111,3796.0944,
767.200,3814.3626,
764.290,3811.2847,
761.379,3792.7712,
758.469,3768.9804,
755.558,3751.8644,
752.648,3734.7578,
749.737,3711.1385,
746.826,3734.4091,
743.916,3752.7124,
741.005,3683.2349,
738.095,3540.3446,
735.184,3444.7184,
732.274,3416.5304,
729.363,3465.4386,
726.452,3574.9395,
723.542,3677.7325,
720.631,3691.7849,
717.721,3710.4147,
714.810,3703.7217,
711.899,3682.0285,
708.989,3719.147,
706.078,3693.7333,
703.168,3664.9078,
700.257,3649.1373,
697.347,3639.115,
694.436,3608.4585,
691.525,3574.6987,
688.615,3609.5121,
685.704,3620.5608,
682.794,3600.7367,
679.883,3595.8075,
676.973,3605.424,
674.062,3566.5377,
671.151,3561.7849,
668.241,3584.6603,
665.330,3582.375,
662.420,3582.375,
659.509,3622.3757,
656.598,3639.3165,
653.688,3638.7364,
650.777,3662.5109,
647.867,3637.0284,
644.956,3620.8494,
642.046,3601.9371,
639.135,3586.8903,
636.224,3596.8166,
633.314,3684.9438,
630.403,3686.0914,
627.493,3707.0939,
624.582,3754.1339,
621.672,3708.1982,
618.761,3698.0157,
615.850,3726.2303,
612.940,3785.1869,
610.029,3846.2978,
607.119,3821.8193,
604.208,3817.955,
601.297,3834.8231,
598.387,3844.0627,
595.476,3828.9459,
592.566,3887.9761,
589.655,3842.0086,
586.745,3830.4696,
583.834,3829.6837,
580.923,3738.6025,
578.013,3776.2697,
575.102,3784.0806,
572.192,3788.8061,
569.281,3803.6088,
566.371,3821.6091,
563.460,3867.8195,
560.549,3860.062,
557.639,3846.0717,
554.728,3884.1633,
551.818,3896.6484,
548.907,3948.7375,
545.996,3998.2593,
543.086,4024.8651,
540.175,4017.8573,
537.265,4037.6548,
534.354,4047.3818,
531.444,4063.5866,
528.533,4105.7277,
525.622,4180.9946,
522.712,4214.3641,
519.801,4257.8348,
516.891,4317.4177,
513.980,4352.261,
511.070,4417.3576,
508.159,4468.2085,
505.248,4523.666,
502.338,4610.4083,
499.427,4679.8732,
496.517,4743.6275,
493.606,4775.6831,
490.695,4775.6172,
487.785,4813.337,
484.874,4857.5022,
481.964,4864.6708,
479.053,4849.6037,
476.143,4867.2669,
473.232,4830.966,
470.321,4827.0797,
467.411,4826.4718,
464.500,4790.5993,
461.590,4759.9697,
458.679,4782.1915,
455.769,4810.2106,
452.858,4824.1694,
449.947,4899.0347,
447.037,4883.4302,
444.126,4849.6962,
441.216,4826.375,
438.305,4826.375,
435.395,4860.4681,
432.484,4867.5394,
429.573,4850.4225,
426.663,4842.0609,
423.752,4837.8879,
420.842,4771.0689,
417.931,4719.2313,
415.020,4810.2342,
412.110,4950.1867,
409.199,5026.2918,
406.289,5039.6002,
403.378,4997.416,
400.468,5009.5119,
397.557,5034.9693,
394.646,5061.5699,
391.736,5077.7714,
388.825,5058.9156,
385.915,5024.6365,
383.004,5016.2221,
380.094,5061.1006,
377.183,5114.5264,
374.272,5225.4471,
371.362,5297.2509,
368.451,5278.9767,
365.541,5338.269,
362.630,5374.0397,
359.719,5417.9,
356.809,5481.6079,
353.898,5452.4048,
350.988,5466.617,
348.077,5468.2409,
345.167,5429.5537,
342.256,5492.3074,
339.345,5514.095,
336.435,5510.9904,
333.524,5496.1366,
330.614,5552.0233,
327.703,5588.371,
324.793,5619.2646,
321.882,5656.4705,
318.971,5695.873,
316.061,5711.8166,
313.150,5725.2297,
310.240,5760.1092,
307.329,5822.8338,
304.418,5845.5512,
301.508,5848.2981,
298.597,5866.8085,
295.687,5928.6494,
292.776,6028.6254,
289.866,6179.1301,
286.955,6419.9546,
284.044,6518.2574,
281.134,6647.947,
278.223,6823.8055,
275.313,6949.8078,
272.402,7087.3275,
269.492,7211.4175,
266.581,7320.5637,
263.670,7519.0623,
260.760,7625.479,
257.849,7719.6474,
254.939,7860.5529,
252.028,7910.8726,
249.117,7947.6481,
246.207,7976.9514,
243.296,8006.2329,
240.386,8000.2331,
237.475,8008.4374,
234.565,8013.3853,
231.654,7911.8619,
228.743,7877.7169,
225.833,7833.007,
222.922,7753.3942,
220.012,7775.2509,
217.101,7716.6191,
214.191,7639.1955,
211.280,7608.642,
208.369,7609.7391,
205.459,7606.1847,
202.548,7600.0045,
199.638,7609.438,
196.727,7647.1004,
193.816,7642.9717,
190.906,7576.3112,
187.995,7688.535,
185.085,7758.1106,
182.174,7777.292,
179.264,7721.639,
176.353,7787.783,
173.442,7789.5813,
170.532,7717.0906,
167.621,7680.3209,
164.711,7576.2984,
161.800,7404.1286,
158.890,7148.6253,
155.979,6661.185,
153.068,6104.1525,
150.158,5476.3645,
147.247,4723.9505,
144.337,3867.1328,
141.426,3021.3301,
138.516,2241.3525,
135.605,1590.9792,
132.694,1080.5622,
129.784,702.05542,
126.873,474.64413,
123.963,321.38981,
121.052,220.82804,
118.141,171.56881,
115.231,137.97819,
112.320,104.88775,
109.410,78.375,
106.499,78.375,
103.589,71.091692,
100.678,66.461487,
97.767,69.305237,
94.857,52.743263,
91.946,44.971889,
89.036,42.794429,
86.125,32.865555,
83.215,34.622363,
80.304,38.135567,
77.393,37.427397,
74.483,35.409595,
71.572,32.925592,
68.662,29.959395,
65.751,25.720689,
62.840,23.893298,
59.930,23.000428,
57.019,21.590264,
54.109,17.792035,
51.198,16.883046,
48.288,20.369338,
45.377,19.665959,
42.466,16.901684,
39.556,14.065711,
36.645,18.278853,
33.735,13.663267,
30.824,9.7003218,
27.914,13.907373,
25.003,16.242912,
22.092,17.697905,
19.182,19.267432,
16.271,46.547547,
13.361,161.05366,
10.450,341.59534,
7.539,563.65963,
4.629,534.6324,
1.718,325.08476,
-1.192,-93.20196,
-4.103,-173.97013,
-7.013,-133.86075,
-9.924,-1.625,
