,PL0BF4~1,
Wavenumbers [1/cm],Intensity,
3014.167,-4.375,
3011.256,-0.075150313,
3008.346,81.345689,
3005.435,91.89355,
3002.525,88.625,
2999.614,99.674346,
2996.704,102.07654,
2993.793,89.48272,
2990.882,96.976175,
2987.972,103.625,
2985.061,99.634847,
2982.151,105.19308,
2979.240,117.84077,
2976.329,125.63046,
2973.419,125.05529,
2970.508,127.97509,
2967.598,134.38604,
2964.687,125.80435,
2961.777,130.68492,
2958.866,133.28771,
2955.955,137.86615,
2953.045,130.47737,
2950.134,150.05066,
2947.224,143.30825,
2944.313,160.78241,
2941.403,154.49407,
2938.492,150.65754,
2935.581,162.80783,
2932.671,148.98985,
2929.760,154.91343,
2926.850,145.25921,
2923.939,152.66236,
2921.028,166.24858,
2918.118,169.0847,
2915.207,165.44777,
2912.297,177.56999,
2909.386,162.19435,
2906.476,177.03508,
2903.565,168.73834,
2900.654,171.41265,
2897.744,168.56214,
2894.833,158.67664,
2891.923,155.6795,
2889.012,164.04119,
2886.102,169.85337,
2883.191,143.65238,
2880.280,113.89293,
2877.370,80.0669,
2874.459,52.335627,
2871.549,65.388452,
2868.638,153.3136,
2865.727,172.47112,
2862.817,160.85229,
2859.906,179.85292,
2856.996,179.13632,
2854.085,173.98424,
2851.175,180.70024,
2848.264,178.79134,
2845.353,188.4309,
2842.443,186.01386,
2839.532,193.29666,
2836.622,184.16992,
2833.711,182.67681,
2830.801,191.71838,
2827.890,194.2701,
2824.979,194.47697,
2822.069,187.63637,
2819.158,185.20451,
2816.248,195.31421,
2813.337,214.12989,
2810.427,196.05888,
2807.516,197.625,
2804.605,212.03365,
2801.695,206.26972,
2798.784,205.25538,
2795.874,197.61972,
2792.963,204.55362,
2790.052,200.62607,
2787.142,203.82242,
2784.231,198.9806,
2781.321,202.92777,
2778.410,182.60469,
2775.500,201.87879,
2772.589,195.28019,
2769.678,221.19494,
2766.768,204.0871,
2763.857,200.78493,
2760.947,215.10924,
2758.036,217.70783,
2755.126,201.37928,
2752.215,215.2431,
2749.304,216.60341,
2746.394,217.9536,
2743.483,221.12502,
2740.573,211.30197,
2737.662,209.40163,
2734.751,209.18324,
2731.841,223.00413,
2728.930,229.95129,
2726.020,225.40046,
2723.109,200.57384,
2720.199,215.29053,
2717.288,225.90602,
2714.377,233.20402,
2711.467,226.64148,
2708.556,232.00774,
2705.646,238.93485,
2702.735,245.77705,
2699.825,235.53774,
2696.914,230.71999,
2694.003,266.92745,
2691.093,239.69601,
2688.182,233.97093,
2685.272,230.30637,
2682.361,233.71889,
2679.450,230.46868,
2676.540,248.29981,
2673.629,241.25276,
2670.719,240.63978,
2667.808,250.60365,
2664.898,251.768,
2661.987,252.69184,
2659.076,243.04096,
2656.166,242.39986,
2653.255,253.99405,
2650.345,251.35277,
2647.434,265.96796,
2644.524,270.39719,
2641.613,259.96755,
2638.702,246.75125,
2635.792,250.03078,
2632.881,258.82134,
2629.971,260.88002,
2627.060,253.45594,
2624.149,265.27501,
2621.239,259.63093,
2618.328,252.98139,
2615.418,283.95682,
2612.507,268.49067,
2609.597,270.43139,
2606.686,271.01456,
2603.775,276.46627,
2600.865,274.50894,
2597.954,260.39163,
2595.044,277.93767,
2592.133,285.07088,
2589.223,288.40816,
2586.312,275.77568,
2583.401,291.7089,
2580.491,287.69227,
2577.580,279.6415,
2574.670,287.68784,
2571.759,285.37757,
2568.848,288.44821,
2565.938,291.91069,
2563.027,292.06365,
2560.117,288.26052,
2557.206,303.994,
2554.296,284.371,
2551.385,291.93094,
2548.474,299.40307,
2545.564,299.81493,
2542.653,306.69883,
2539.743,295.22974,
2536.832,295.68669,
2533.922,293.87731,
2531.011,310.99988,
2528.100,310.36018,
2525.190,316.90246,
2522.279,309.09398,
2519.369,311.98389,
2516.458,303.85234,
2513.548,300.72512,
2510.637,317.80945,
2507.726,312.19375,
2504.816,299.81328,
2501.905,320.04512,
2498.995,318.84865,
2496.084,308.46473,
2493.173,323.12533,
2490.263,330.82726,
2487.352,326.20927,
2484.442,336.77704,
2481.531,331.20477,
2478.621,357.19381,
2475.710,337.51765,
2472.799,325.84471,
2469.889,333.59453,
2466.978,347.61457,
2464.068,357.41338,
2461.157,346.12256,
2458.247,337.75738,
2455.336,340.625,
2452.425,345.08255,
2449.515,372.4358,
2446.604,351.38766,
2443.694,347.64801,
2440.783,358.81869,
2437.872,370.55207,
2434.962,369.15034,
2432.051,371.11266,
2429.141,375.18378,
2426.230,359.79844,
2423.320,376.2109,
2420.409,370.89419,
2417.498,375.22332,
2414.588,386.25233,
2411.677,381.80026,
2408.767,362.40748,
2405.856,364.05837,
2402.946,376.47665,
2400.035,359.55221,
2397.124,387.97259,
2394.214,395.381,
2391.303,378.44275,
2388.393,373.35757,
2385.482,371.75719,
2382.571,375.4989,
2379.661,371.15968,
2376.750,387.15212,
2373.840,401.88117,
2370.929,407.61417,
2368.019,390.44332,
2365.108,405.09097,
2362.197,406.18121,
2359.287,400.65007,
2356.376,417.58978,
2353.466,393.77564,
2350.555,406.22999,
2347.645,415.09783,
2344.734,421.625,
2341.823,429.49233,
2338.913,425.69068,
2336.002,431.36662,
2333.092,420.79762,
2330.181,417.66079,
2327.270,419.625,
2324.360,443.97884,
2321.449,409.24065,
2318.539,422.83909,
2315.628,438.90198,
2312.718,443.39152,
2309.807,424.03488,
2306.896,433.15239,
2303.986,440.57952,
2301.075,429.22077,
2298.165,428.61546,
2295.254,447.23723,
2292.344,459.62921,
2289.433,450.67909,
2286.522,463.08483,
2283.612,444.3737,
2280.701,439.22141,
2277.791,440.54859,
2274.880,487.90898,
2271.969,480.63323,
2269.059,468.88659,
2266.148,481.19094,
2263.238,471.03041,
2260.327,475.38372,
2257.417,488.70889,
2254.506,494.17484,
2251.595,487.625,
2248.685,494.99036,
2245.774,499.42717,
2242.864,496.43049,
2239.953,494.99049,
2237.043,491.05287,
2234.132,474.87177,
2231.221,496.07473,
2228.311,489.09796,
2225.400,509.76573,
2222.490,514.625,
2219.579,516.33452,
2216.669,517.63454,
2213.758,518.23415,
2210.847,506.72829,
2207.937,524.72921,
2205.026,533.625,
2202.116,534.93604,
2199.205,546.04947,
2196.294,550.44302,
2193.384,565.51903,
2190.473,530.72593,
2187.563,563.6685,
2184.652,568.8597,
2181.742,558.26268,
2178.831,586.26314,
2175.920,591.95651,
2173.010,586.37443,
2170.099,630.41966,
2167.189,633.71111,
2164.278,649.88028,
2161.368,682.33835,
2158.457,703.74314,
2155.546,720.07887,
2152.636,772.4334,
2149.725,808.93371,
2146.815,804.89195,
2143.904,836.73279,
2140.993,857.95301,
2138.083,875.10823,
2135.172,870.30553,
2132.262,858.63908,
2129.351,885.01478,
2126.441,851.8676,
2123.530,824.56888,
2120.619,818.66174,
2117.709,803.13225,
2114.798,762.25176,
2111.888,719.1259,
2108.977,691.36009,
2106.067,675.24933,
2103.156,672.50484,
2100.245,641.63065,
2097.335,646.53077,
2094.424,615.1889,
2091.514,612.77018,
2088.603,604.75869,
2085.692,604.03757,
2082.782,615.45229,
2079.871,601.83854,
2076.961,620.13971,
2074.050,612.2553,
2071.140,619.31508,
2068.229,596.25129,
2065.318,612.4525,
2062.408,617.14769,
2059.497,590.37496,
2056.587,585.68294,
2053.676,604.50748,
2050.766,597.47179,
2047.855,598.96675,
2044.944,610.89102,
2042.034,614.75798,
2039.123,619.5846,
2036.213,611.20276,
2033.302,612.69011,
2030.391,619.26905,
2027.481,609.21046,
2024.570,615.73902,
2021.660,664.66854,
2018.749,611.38481,
2015.839,627.80019,
2012.928,612.84312,
2010.017,627.52077,
2007.107,636.04369,
2004.196,638.67263,
2001.286,650.29283,
1998.375,639.22834,
1995.465,638.70446,
1992.554,659.03072,
1989.643,631.69648,
1986.733,607.48114,
1983.822,625.02308,
1980.912,640.08048,
1978.001,648.52297,
1975.090,643.30284,
1972.180,616.4867,
1969.269,637.60782,
1966.359,624.03006,
1963.448,616.19964,
1960.538,635.6667,
1957.627,653.89127,
1954.716,656.59627,
1951.806,643.37017,
1948.895,654.56432,
1945.985,633.01225,
1943.074,632.02719,
1940.164,638.47122,
1937.253,644.91628,
1934.342,635.53089,
1931.432,630.39787,
1928.521,643.06714,
1925.611,615.91104,
1922.700,645.57112,
1919.790,654.04121,
1916.879,646.183,
1913.968,655.6127,
1911.058,627.60699,
1908.147,657.35202,
1905.237,663.4632,
1902.326,640.25167,
1899.415,631.32866,
1896.505,626.23343,
1893.594,644.70434,
1890.684,676.91906,
1887.773,672.91842,
1884.863,680.84596,
1881.952,650.86789,
1879.041,644.21586,
1876.131,651.69689,
1873.220,636.93467,
1870.310,651.33349,
1867.399,674.27314,
1864.489,634.94908,
1861.578,664.44942,
1858.667,634.79864,
1855.757,646.80638,
1852.846,668.37884,
1849.936,673.95032,
1847.025,684.44738,
1844.114,690.83206,
1841.204,700.29283,
1838.293,683.66824,
1835.383,687.13597,
1832.472,702.1363,
1829.562,691.15338,
1826.651,697.51411,
1823.740,690.70544,
1820.830,701.28655,
1817.919,715.39752,
1815.009,700.50032,
1812.098,708.39665,
1809.188,727.44666,
1806.277,717.86845,
1803.366,731.12591,
1800.456,702.55927,
1797.545,717.70306,
1794.635,708.23799,
1791.724,703.64444,
1788.813,711.04737,
1785.903,775.46612,
1782.992,742.52957,
1780.082,701.33636,
1777.171,717.63036,
1774.261,735.06995,
1771.350,739.72725,
1768.439,748.94349,
1765.529,748.5352,
1762.618,770.11878,
1759.708,767.74439,
1756.797,781.82197,
1753.887,790.57252,
1750.976,766.01113,
1748.065,783.81701,
1745.155,774.7155,
1742.244,784.46192,
1739.334,774.02971,
1736.423,802.48476,
1733.512,796.06803,
1730.602,816.04964,
1727.691,826.39266,
1724.781,820.33239,
1721.870,822.64883,
1718.960,817.86938,
1716.049,844.31117,
1713.138,864.15993,
1710.228,843.99728,
1707.317,837.08671,
1704.407,843.81218,
1701.496,853.74048,
1698.586,859.24492,
1695.675,853.07504,
1692.764,882.9201,
1689.854,911.41242,
1686.943,862.37873,
1684.033,858.67467,
1681.122,920.55448,
1678.211,927.5679,
1675.301,914.66508,
1672.390,981.54724,
1669.480,955.77742,
1666.569,974.3076,
1663.659,950.57228,
1660.748,1007.9528,
1657.837,1024.3844,
1654.927,1013.2033,
1652.016,997.13154,
1649.106,1058.0167,
1646.195,1074.2004,
1643.285,1097.1237,
1640.374,1075.7922,
1637.463,1084.9761,
1634.553,1158.3147,
1631.642,1138.4176,
1628.732,1210.6013,
1625.821,1206.6669,
1622.911,1270.2644,
1620.000,1331.8439,
1617.089,1410.0529,
1614.179,1465.0739,
1611.268,1517.6546,
1608.358,1602.5514,
1605.447,1715.0545,
1602.536,1767.2875,
1599.626,1748.5466,
1596.715,1759.3314,
1593.805,1739.161,
1590.894,1714.6082,
1587.984,1673.5169,
1585.073,1682.0889,
1582.162,1642.8807,
1579.252,1607.6211,
1576.341,1575.991,
1573.431,1537.5149,
1570.520,1538.5619,
1567.610,1531.1935,
1564.699,1553.7261,
1561.788,1529.8225,
1558.878,1532.0113,
1555.967,1525.0904,
1553.057,1488.2805,
1550.146,1474.0832,
1547.235,1456.1442,
1544.325,1421.7003,
1541.414,1408.8653,
1538.504,1399.2937,
1535.593,1359.384,
1532.683,1369.5923,
1529.772,1377.8131,
1526.861,1315.7621,
1523.951,1315.2793,
1521.040,1329.635,
1518.130,1297.9006,
1515.219,1288.7042,
1512.309,1304.9628,
1509.398,1282.4994,
1506.487,1308.8926,
1503.577,1307.4243,
1500.666,1265.9608,
1497.756,1270.6846,
1494.845,1293.864,
1491.934,1251.6596,
1489.024,1262.2471,
1486.113,1243.1535,
1483.203,1265.6055,
1480.292,1217.7143,
1477.382,1189.227,
1474.471,1193.8335,
1471.560,1211.864,
1468.650,1223.0912,
1465.739,1233.9514,
1462.829,1224.8982,
1459.918,1201.2602,
1457.008,1186.0711,
1454.097,1177.0791,
1451.186,1175.6153,
1448.276,1166.3904,
1445.365,1154.6992,
1442.455,1190.8116,
1439.544,1192.5868,
1436.633,1178.2754,
1433.723,1182.1084,
1430.812,1219.2212,
1427.902,1202.1436,
1424.991,1223.9422,
1422.081,1175.0812,
1419.170,1171.4891,
1416.259,1141.6527,
1413.349,1134.625,
1410.438,1184.3094,
1407.528,1223.6498,
1404.617,1205.4428,
1401.707,1202.0532,
1398.796,1206.7124,
1395.885,1176.1957,
1392.975,1173.0635,
1390.064,1211.4445,
1387.154,1190.7835,
1384.243,1174.5566,
1381.332,1191.281,
1378.422,1214.0742,
1375.511,1242.1776,
1372.601,1282.2525,
1369.690,1274.4811,
1366.780,1285.2976,
1363.869,1305.334,
1360.958,1349.2573,
1358.048,1396.5107,
1355.137,1425.0873,
1352.227,1429.0498,
1349.316,1449.2877,
1346.406,1489.9443,
1343.495,1493.6146,
1340.584,1516.374,
1337.674,1578.4458,
1334.763,1569.5071,
1331.853,1592.6879,
1328.942,1616.7511,
1326.032,1581.2908,
1323.121,1609.6732,
1320.210,1649.2618,
1317.300,1660.2641,
1314.389,1654.5138,
1311.479,1699.9936,
1308.568,1761.829,
1305.657,1782.2254,
1302.747,1839.39,
1299.836,1837.0674,
1296.926,1911.625,
1294.015,1911.625,
1291.105,1910.7445,
1288.194,1984.1094,
1285.283,2021.9571,
1282.373,2070.1249,
1279.462,2100.2131,
1276.552,2130.7117,
1273.641,2170.254,
1270.731,2196.7399,
1267.820,2212.8083,
1264.909,2192.4384,
1261.999,2204.7595,
1259.088,2181.0444,
1256.178,2164.2088,
1253.267,2104.0853,
1250.356,2069.0164,
1247.446,2051.2374,
1244.535,2012.4153,
1241.625,1965.4954,
1238.714,1939.3318,
1235.804,1916.7027,
1232.893,1878.1242,
1229.982,1879.5705,
1227.072,1818.9146,
1224.161,1796.9744,
1221.251,1789.9025,
1218.340,1753.6432,
1215.430,1752.2421,
1212.519,1750.3257,
1209.608,1712.1975,
1206.698,1682.4549,
1203.787,1699.2331,
1200.877,1728.1205,
1197.966,1703.8432,
1195.055,1776.8576,
1192.145,1832.4516,
1189.234,1875.8207,
1186.324,1921.6279,
1183.413,1919.6859,
1180.503,1894.7309,
1177.592,1906.5845,
1174.681,1880.4161,
1171.771,1838.408,
1168.860,1872.3454,
1165.950,1811.9281,
1163.039,1810.5931,
1160.129,1813.0859,
1157.218,1810.1443,
1154.307,1783.2822,
1151.397,1750.0949,
1148.486,1786.2216,
1145.576,1805.5071,
1142.665,1779.7576,
1139.754,1788.2022,
1136.844,1762.6129,
1133.933,1738.8949,
1131.023,1743.8437,
1128.112,1754.3399,
1125.202,1755.8037,
1122.291,1788.5105,
1119.380,1815.3045,
1116.470,1782.651,
1113.559,1806.462,
1110.649,1829.6864,
1107.738,1826.9086,
1104.828,1813.464,
1101.917,1807.9209,
1099.006,1810.728,
1096.096,1818.4749,
1093.185,1783.3548,
1090.275,1791.9548,
1087.364,1827.5589,
1084.453,1819.564,
1081.543,1824.4125,
1078.632,1851.4312,
1075.722,1848.3175,
1072.811,1855.2527,
1069.901,1850.0131,
1066.990,1895.6999,
1064.079,1878.7239,
1061.169,1889.9263,
1058.258,1915.5538,
1055.348,1928.6223,
1052.437,1945.5447,
1049.527,1968.8795,
1046.616,1923.7004,
1043.705,1958.7048,
1040.795,1944.4463,
1037.884,1927.602,
1034.974,1945.7358,
1032.063,1977.4789,
1029.153,1966.1589,
1026.242,1928.9658,
1023.331,1975.122,
1020.421,1987.4134,
1017.510,1996.4689,
1014.600,2028.4237,
1011.689,2059.3489,
1008.778,2047.1589,
1005.868,2039.2505,
1002.957,2108.9392,
1000.047,2183.689,
997.136,2197.0531,
994.226,2186.9481,
991.315,2189.4096,
988.404,2193.3836,
985.494,2146.3155,
982.583,2177.1515,
979.673,2152.3591,
976.762,2121.0764,
973.852,2119.8853,
970.941,2133.6612,
968.030,2135.3419,
965.120,2184.6608,
962.209,2193.1862,
959.299,2179.7518,
956.388,2193.7837,
953.477,2195.239,
950.567,2179.592,
947.656,2194.4049,
944.746,2200.3518,
941.835,2185.2385,
938.925,2173.0703,
936.014,2169.1308,
933.103,2185.1612,
930.193,2207.6323,
927.282,2182.0668,
924.372,2153.3162,
921.461,2111.3322,
918.551,2093.5585,
915.640,2082.976,
912.729,2077.7238,
909.819,2089.0673,
906.908,2069.6915,
903.998,2069.4204,
901.087,2089.9932,
898.176,2118.3268,
895.266,2137.2598,
892.355,2140.1956,
889.445,2148.5883,
886.534,2194.543,
883.624,2194.8782,
880.713,2192.6664,
877.802,2174.8237,
874.892,2121.4465,
871.981,2049.3488,
869.071,2037.653,
866.160,2067.3631,
863.250,2120.9402,
860.339,2139.8002,
857.428,2120.5296,
854.518,2166.1436,
851.607,2149.5022,
848.697,2101.9169,
845.786,2088.3716,
842.875,2139.3672,
839.965,2219.7511,
837.054,2206.5041,
834.144,2195.7303,
831.233,2195.6249,
828.323,2241.1365,
825.412,2264.4096,
822.501,2213.4547,
819.591,2190.3155,
816.680,2187.2211,
813.770,2185.9985,
810.859,2159.0018,
807.949,2134.6177,
805.038,2153.9325,
802.127,2139.9394,
799.217,2120.7356,
796.306,2125.4089,
793.396,2132.8464,
790.485,2128.4663,
787.574,2116.9987,
784.664,2126.84,
781.753,2158.8193,
778.843,2163.3333,
775.932,2150.4645,
773.022,2147.2734,
770.111,2157.9019,
767.200,2160.1476,
764.290,2163.5144,
761.379,2156.1722,
758.469,2143.5084,
755.558,2150.4305,
752.648,2143.9137,
749.737,2152.4168,
746.826,2142.2397,
743.916,2123.5081,
741.005,2119.5245,
738.095,2109.782,
735.184,2078.5925,
732.274,2033.4935,
729.363,2012.367,
726.452,2040.296,
723.542,2099.3817,
720.631,2124.0321,
717.721,2133.4892,
714.810,2144.7613,
711.899,2158.4963,
708.989,2153.6547,
706.078,2155.2276,
703.168,2122.8351,
700.257,2124.3165,
697.347,2145.3218,
694.436,2104.2758,
691.525,2091.415,
688.615,2123.844,
685.704,2132.9693,
682.794,2123.71,
679.883,2143.7331,
676.973,2146.1372,
674.062,2157.4724,
671.151,2182.0349,
668.241,2184.1827,
665.330,2117.4402,
662.420,2155.7793,
659.509,2168.0695,
656.598,2189.666,
653.688,2206.8036,
650.777,2181.03,
647.867,2192.975,
644.956,2152.2845,
642.046,2123.9666,
639.135,2121.4154,
636.224,2120.6887,
633.314,2133.3917,
630.403,2167.368,
627.493,2198.6109,
624.582,2218.8627,
621.672,2237.8706,
618.761,2222.6663,
615.850,2211.0131,
612.940,2227.1417,
610.029,2265.2054,
607.119,2244.675,
604.208,2272.4456,
601.297,2252.2213,
598.387,2225.9309,
595.476,2241.4022,
592.566,2239.041,
589.655,2254.1744,
586.745,2256.1155,
583.834,2258.165,
580.923,2295.4307,
578.013,2263.2566,
575.102,2248.3155,
572.192,2249.3416,
569.281,2269.6076,
566.371,2325.1739,
563.460,2294.6461,
560.549,2298.6289,
557.639,2302.5112,
554.728,2259.3641,
551.818,2271.0688,
548.907,2244.9826,
545.996,2249.1748,
543.086,2282.9474,
540.175,2275.1609,
537.265,2259.4151,
534.354,2270.1808,
531.444,2286.9037,
528.533,2285.5281,
525.622,2256.0421,
522.712,2290.8842,
519.801,2319.1525,
516.891,2330.7023,
513.980,2375.6115,
511.070,2341.5902,
508.159,2378.1573,
505.248,2424.6091,
502.338,2393.2968,
499.427,2450.4124,
496.517,2459.4028,
493.606,2462.0278,
490.695,2475.3412,
487.785,2466.1037,
484.874,2468.5023,
481.964,2463.15,
479.053,2450.7864,
476.143,2443.1068,
473.232,2459.8907,
470.321,2463.219,
467.411,2466.2098,
464.500,2485.3147,
461.590,2473.0629,
458.679,2499.8912,
455.769,2523.9949,
452.858,2518.6483,
449.947,2480.4517,
447.037,2507.8171,
444.126,2538.3886,
441.216,2554.2708,
438.305,2569.5094,
435.395,2581.4595,
432.484,2585.7915,
429.573,2572.0224,
426.663,2518.0524,
423.752,2485.0308,
420.842,2432.8933,
417.931,2379.1609,
415.020,2356.4102,
412.110,2455.856,
409.199,2538.1017,
406.289,2575.0479,
403.378,2542.8274,
400.468,2602.5509,
397.557,2601.5732,
394.646,2609.8289,
391.736,2683.3836,
388.825,2675.8412,
385.915,2629.9851,
383.004,2617.0384,
380.094,2680.7018,
377.183,2682.2067,
374.272,2659.2854,
371.362,2661.1109,
368.451,2714.5398,
365.541,2746.0623,
362.630,2736.5991,
359.719,2727.8403,
356.809,2742.4438,
353.898,2739.4486,
350.988,2754.3571,
348.077,2773.1428,
345.167,2784.5816,
342.256,2744.2399,
339.345,2739.0022,
336.435,2755.7287,
333.524,2784.0613,
330.614,2766.1776,
327.703,2773.4601,
324.793,2784.8516,
321.882,2782.6466,
318.971,2791.5679,
316.061,2795.1133,
313.150,2797.9345,
310.240,2805.3557,
307.329,2862.796,
304.418,2873.3143,
301.508,2846.0219,
298.597,2798.6352,
295.687,2824.4236,
292.776,2855.7084,
289.866,2896.751,
286.955,2978.0108,
284.044,3012.395,
281.134,3017.849,
278.223,3008.6129,
275.313,3035.8765,
272.402,3034.6542,
269.492,3042.9328,
266.581,3067.7363,
263.670,3013.3329,
260.760,3040.9828,
257.849,3092.1732,
254.939,3125.1979,
252.028,3103.9097,
249.117,3129.4302,
246.207,3170.5721,
243.296,3174.2322,
240.386,3140.0164,
237.475,3117.0148,
234.565,3108.0145,
231.654,3097.7892,
228.743,3111.1599,
225.833,3086.3423,
222.922,3005.5275,
220.012,3046.3266,
217.101,3065.0229,
214.191,3069.3136,
211.280,3064.9489,
208.369,3119.1229,
205.459,3116.879,
202.548,3072.3715,
199.638,3065.115,
196.727,3126.4325,
193.816,3161.1861,
190.906,3135.0821,
187.995,3148.1145,
185.085,3154.5164,
182.174,3157.2127,
179.264,3159.3809,
176.353,3176.926,
173.442,3225.7812,
170.532,3293.1969,
167.621,3280.9403,
164.711,3240.3097,
161.800,3146.6584,
158.890,2971.0449,
155.979,2731.1924,
153.068,2493.0492,
150.158,2250.0103,
147.247,1964.2653,
144.337,1619.0172,
141.426,1280.7346,
138.516,981.07406,
135.605,694.44804,
132.694,465.73779,
129.784,294.11324,
126.873,193.99506,
123.963,130.94474,
121.052,88.709877,
118.141,63.723307,
115.231,49.413593,
112.320,41.083184,
109.410,36.534158,
106.499,30.836916,
103.589,27.944237,
100.678,24.723648,
97.767,19.747085,
94.857,21.010978,
91.946,19.206335,
89.036,15.850796,
86.125,17.269206,
83.215,13.908558,
80.304,11.103865,
77.393,12.520205,
74.483,8.6941903,
71.572,9.1614648,
68.662,13.209395,
65.751,8.9706885,
62.840,7.143298,
59.930,7.3741448,
57.019,10.194473,
54.109,9.4306783,
51.198,8.9266093,
48.288,9.6136751,
45.377,8.206919,
42.466,7.625,
39.556,7.0494071,
36.645,3.538456,
33.735,4.1827454,
30.824,4.5205651,
27.914,1.0146889,
25.003,-1.8655499,
22.092,-1.4375727,
19.182,3.1970716,
16.271,20.684325,
13.361,60.92018,
10.450,85.952362,
7.539,-34.157881,
4.629,-158.82982,
1.718,-321.21097,
-1.192,-565.21156,
-4.103,-390.98271,
-7.013,-179.32918,
-9.924,1.625,
