,PLBCE1~1,
Wavenumbers [1/cm],Intensity,
3014.167,-5.75,
3011.256,1.7498926,
3008.346,85.465853,
3005.435,93.674029,
3002.525,96.664989,
2999.614,114.39804,
2996.704,110.70154,
2993.793,109.87846,
2990.882,99.341645,
2987.972,106.32567,
2985.061,111.05294,
2982.151,122.02817,
2979.240,110.11309,
2976.329,133.00683,
2973.419,126.88081,
2970.508,127.71665,
2967.598,124.3492,
2964.687,134.78804,
2961.777,145.8058,
2958.866,141.25445,
2955.955,133.7323,
2953.045,147.35068,
2950.134,161.34623,
2947.224,145.87631,
2944.313,159.60969,
2941.403,148.51186,
2938.492,166.55895,
2935.581,165.27702,
2932.671,159.17277,
2929.760,158.81536,
2926.850,171.8391,
2923.939,170.84812,
2921.028,164.14987,
2918.118,170.77141,
2915.207,178.71831,
2912.297,180.23307,
2909.386,181.43249,
2906.476,180.69943,
2903.565,168.94408,
2900.654,162.69691,
2897.744,164.23743,
2894.833,152.52855,
2891.923,138.0609,
2889.012,144.62572,
2886.102,138.62568,
2883.191,120.2651,
2880.280,42.938968,
2877.370,-92.59277,
2874.459,-166.7562,
2871.549,-72.406902,
2868.638,78.986008,
2865.727,129.82694,
2862.817,131.99331,
2859.906,157.21295,
2856.996,172.78397,
2854.085,184.61558,
2851.175,172.87046,
2848.264,175.11267,
2845.353,206.64612,
2842.443,178.05209,
2839.532,184.78726,
2836.622,187.78907,
2833.711,175.65662,
2830.801,186.85441,
2827.890,190.83039,
2824.979,196.15186,
2822.069,195.40921,
2819.158,198.98853,
2816.248,197.93921,
2813.337,199.02317,
2810.427,194.38223,
2807.516,193.77516,
2804.605,203.22836,
2801.695,199.81579,
2798.784,192.84138,
2795.874,204.54024,
2792.963,204.75011,
2790.052,186.2545,
2787.142,188.72354,
2784.231,190.28103,
2781.321,205.36996,
2778.410,187.27031,
2775.500,198.63068,
2772.589,192.51987,
2769.678,205.03497,
2766.768,205.81505,
2763.857,191.56985,
2760.947,214.68381,
2758.036,218.65136,
2755.126,208.15171,
2752.215,205.61351,
2749.304,223.29134,
2746.394,210.49802,
2743.483,199.15,
2740.573,197.36283,
2737.662,213.15384,
2734.751,212.64336,
2731.841,209.60165,
2728.930,216.06373,
2726.020,210.15857,
2723.109,231.45608,
2720.199,226.38752,
2717.288,220.53102,
2714.377,208.67098,
2711.467,235.69285,
2708.556,232.02642,
2705.646,221.34855,
2702.735,237.07732,
2699.825,234.18456,
2696.914,232.39272,
2694.003,245.14918,
2691.093,238.30296,
2688.182,236.76037,
2685.272,235.25854,
2682.361,217.37336,
2679.450,230.20471,
2676.540,223.22968,
2673.629,224.90469,
2670.719,231.53466,
2667.808,232.25,
2664.898,237.09436,
2661.987,239.98362,
2659.076,239.03018,
2656.166,233.78246,
2653.255,243.46939,
2650.345,231.64927,
2647.434,239.27887,
2644.524,247.54735,
2641.613,252.85025,
2638.702,252.32891,
2635.792,252.84422,
2632.881,249.82737,
2629.971,248.50502,
2627.060,248.58188,
2624.149,252.44064,
2621.239,259.03113,
2618.328,254.01297,
2615.418,267.93181,
2612.507,245.73622,
2609.597,266.22006,
2606.686,261.15962,
2603.775,250.97223,
2600.865,256.72098,
2597.954,252.34583,
2595.044,263.83105,
2592.133,266.12881,
2589.223,262.38264,
2586.312,267.27511,
2583.401,272.25,
2580.491,276.60576,
2577.580,279.21699,
2574.670,263.40106,
2571.759,268.19435,
2568.848,267.36604,
2565.938,281.39292,
2563.027,273.98181,
2560.117,277.79206,
2557.206,284.67435,
2554.296,277.39188,
2551.385,280.25807,
2548.474,285.02769,
2545.564,271.62987,
2542.653,298.38759,
2539.743,279.28697,
2536.832,280.78084,
2533.922,275.64423,
2531.011,298.05019,
2528.100,299.71344,
2525.190,302.29713,
2522.279,295.25,
2519.369,287.70329,
2516.458,276.92139,
2513.548,288.72264,
2510.637,309.58997,
2507.726,287.37268,
2504.816,291.99972,
2501.905,294.30793,
2498.995,297.59309,
2496.084,287.25,
2493.173,300.51358,
2490.263,309.65452,
2487.352,316.58227,
2484.442,309.79387,
2481.531,322.82455,
2478.621,325.23108,
2475.710,296.50304,
2472.799,327.27693,
2469.889,328.52148,
2466.978,318.20893,
2464.068,319.86908,
2461.157,333.71004,
2458.247,316.58811,
2455.336,327.3107,
2452.425,317.07073,
2449.515,330.88201,
2446.604,327.1924,
2443.694,326.41283,
2440.783,340.20496,
2437.872,329.76051,
2434.962,342.46198,
2432.051,339.27467,
2429.141,342.52053,
2426.230,347.05443,
2423.320,345.89316,
2420.409,330.60261,
2417.498,341.8062,
2414.588,352.25,
2411.677,354.03485,
2408.767,342.93799,
2405.856,330.53332,
2402.946,334.93454,
2400.035,321.76407,
2397.124,348.92379,
2394.214,351.3304,
2391.303,352.2168,
2388.393,337.34762,
2385.482,305.39561,
2382.571,325.14951,
2379.661,319.34266,
2376.750,354.98644,
2373.840,348.40629,
2370.929,356.1417,
2368.019,361.79186,
2365.108,366.27356,
2362.197,359.66642,
2359.287,340.48509,
2356.376,375.18132,
2353.466,372.21915,
2350.555,375.50983,
2347.645,378.31489,
2344.734,388.40208,
2341.823,388.26658,
2338.913,392.45445,
2336.002,380.26187,
2333.092,395.56037,
2330.181,407.07605,
2327.270,392.35011,
2324.360,409.6793,
2321.449,381.54252,
2318.539,390.88916,
2315.628,408.40908,
2312.718,403.53414,
2309.807,400.65988,
2306.896,407.00587,
2303.986,398.80835,
2301.075,395.12231,
2298.165,405.24046,
2295.254,427.77605,
2292.344,413.51559,
2289.433,405.59364,
2286.522,416.46422,
2283.612,406.9987,
2280.701,407.90469,
2277.791,403.2118,
2274.880,427.53398,
2271.969,428.38169,
2269.059,423.36717,
2266.148,430.08639,
2263.238,439.44691,
2260.327,427.28435,
2257.417,417.80833,
2254.506,440.98224,
2251.595,451.97004,
2248.685,461.24418,
2245.774,462.64567,
2242.864,433.02804,
2239.953,449.2568,
2237.043,455.34001,
2234.132,449.81358,
2231.221,457.8288,
2228.311,443.33249,
2225.400,480.49008,
2222.490,456.10672,
2219.579,467.32714,
2216.669,470.26431,
2213.758,463.33627,
2210.847,458.02582,
2207.937,480.27277,
2205.026,496.58382,
2202.116,483.77442,
2199.205,486.48741,
2196.294,488.812,
2193.384,496.35501,
2190.473,489.8122,
2187.563,536.134,
2184.652,514.96102,
2181.742,535.86433,
2178.831,544.85309,
2175.920,551.49044,
2173.010,552.99943,
2170.099,569.31449,
2167.189,596.40786,
2164.278,622.65201,
2161.368,654.82063,
2158.457,675.9099,
2155.546,696.26445,
2152.636,756.02646,
2149.725,792.22985,
2146.815,818.44915,
2143.904,862.04926,
2140.993,858.85319,
2138.083,866.28641,
2135.172,871.38435,
2132.262,875.27817,
2129.351,854.02222,
2126.441,870.63843,
2123.530,830.25,
2120.619,824.0576,
2117.709,781.031,
2114.798,759.92682,
2111.888,694.51473,
2108.977,648.15729,
2106.067,651.52513,
2103.156,626.73478,
2100.245,589.2431,
2097.335,576.9254,
2094.424,573.47309,
2091.514,575.73103,
2088.603,541.40209,
2085.692,541.20537,
2082.782,539.71589,
2079.871,540.71441,
2076.961,538.44373,
2074.050,536.39545,
2071.140,536.19277,
2068.229,526.78124,
2065.318,545.39825,
2062.408,541.83321,
2059.497,531.44047,
2056.587,521.86638,
2053.676,520.06662,
2050.766,529.48019,
2047.855,519.16456,
2044.944,517.71314,
2042.034,526.06501,
2039.123,529.05135,
2036.213,531.63662,
2033.302,511.18489,
2030.391,509.1143,
2027.481,530.59128,
2024.570,536.40717,
2021.660,551.30393,
2018.749,548.8321,
2015.839,538.92257,
2012.928,538.88255,
2010.017,531.0676,
2007.107,543.99392,
2004.196,546.85716,
2001.286,557.29239,
1998.375,544.54921,
1995.465,541.96964,
1992.554,545.87939,
1989.643,542.38825,
1986.733,547.23333,
1983.822,534.46935,
1980.912,563.51711,
1978.001,545.47077,
1975.090,529.03932,
1972.180,541.93882,
1969.269,548.98562,
1966.359,533.6282,
1963.448,534.28567,
1960.538,550.23415,
1957.627,525.60911,
1954.716,516.42236,
1951.806,548.3926,
1948.895,565.78651,
1945.985,532.79902,
1943.074,533.62622,
1940.164,546.37469,
1937.253,518.66745,
1934.342,514.24144,
1931.432,504.01341,
1928.521,521.27764,
1925.611,506.1399,
1922.700,501.58149,
1919.790,520.47524,
1916.879,512.08699,
1913.968,545.20819,
1911.058,478.62839,
1908.147,516.23544,
1905.237,538.47792,
1902.326,513.75669,
1899.415,481.01706,
1896.505,489.00326,
1893.594,505.35055,
1890.684,503.2891,
1887.773,535.99958,
1884.863,542.50968,
1881.952,543.43496,
1879.041,526.33774,
1876.131,509.66308,
1873.220,495.04641,
1870.310,522.02573,
1867.399,529.17003,
1864.489,549.61437,
1861.578,510.93119,
1858.667,527.39671,
1855.757,528.44928,
1852.846,528.49616,
1849.936,532.29604,
1847.025,546.9556,
1844.114,547.04294,
1841.204,544.3479,
1838.293,545.24667,
1835.383,565.28448,
1832.472,566.61,
1829.562,552.13958,
1826.651,557.45533,
1823.740,563.43391,
1820.830,576.59657,
1817.919,576.17812,
1815.009,558.98156,
1812.098,546.37599,
1809.188,565.88561,
1806.277,571.16147,
1803.366,577.16682,
1800.456,571.4806,
1797.545,558.15781,
1794.635,560.08804,
1791.724,579.41505,
1788.813,583.45411,
1785.903,582.41482,
1782.992,520.08154,
1780.082,452.76415,
1777.171,384.57226,
1774.261,378.65571,
1771.350,494.86352,
1768.439,579.95237,
1765.529,590.43336,
1762.618,603.63188,
1759.708,619.51099,
1756.797,632.86364,
1753.887,617.88994,
1750.976,605.25,
1748.065,625.52649,
1745.155,634.41777,
1742.244,639.5335,
1739.334,612.43824,
1736.423,618.73969,
1733.512,643.25818,
1730.602,690.39093,
1727.691,684.29083,
1724.781,647.57351,
1721.870,663.393,
1718.960,665.13884,
1716.049,688.58027,
1713.138,671.02011,
1710.228,671.60148,
1707.317,682.86486,
1704.407,685.1484,
1701.496,677.04607,
1698.586,680.86992,
1695.675,680.31429,
1692.764,695.39755,
1689.854,743.12798,
1686.943,732.68843,
1684.033,702.99509,
1681.122,716.99511,
1678.211,737.05965,
1675.301,750.20992,
1672.390,792.10644,
1669.480,744.74736,
1666.569,805.88182,
1663.659,778.03395,
1660.748,825.26928,
1657.837,826.16252,
1654.927,823.16374,
1652.016,861.85748,
1649.106,885.68694,
1646.195,864.83244,
1643.285,928.7487,
1640.374,907.87717,
1637.463,938.3669,
1634.553,999.13178,
1631.642,991.76032,
1628.732,1038.3744,
1625.821,1059.2978,
1622.911,1131.8386,
1620.000,1177.6705,
1617.089,1261.5585,
1614.179,1340.0221,
1611.268,1373.0603,
1608.358,1462.8955,
1605.447,1566.2508,
1602.536,1579.7051,
1599.626,1583.0098,
1596.715,1563.2828,
1593.805,1530.8427,
1590.894,1544.8634,
1587.984,1501.3471,
1585.073,1521.4761,
1582.162,1497.8639,
1579.252,1481.6121,
1576.341,1462.4277,
1573.431,1405.7773,
1570.520,1349.9736,
1567.610,1366.3093,
1564.699,1357.3992,
1561.788,1341.0952,
1558.878,1321.5464,
1555.967,1342.6586,
1553.057,1330.4572,
1550.146,1280.8355,
1547.235,1263.3823,
1544.325,1248.153,
1541.414,1232.0898,
1538.504,1199.9357,
1535.593,1159.5641,
1532.683,1175.273,
1529.772,1169.4381,
1526.861,1118.25,
1523.951,1118.9954,
1521.040,1116.8243,
1518.130,1106.8225,
1515.219,1105.1296,
1512.309,1105.3851,
1509.398,1059.1759,
1506.487,1056.6987,
1503.577,1064.1317,
1500.666,1066.7877,
1497.756,1051.5217,
1494.845,1101.0888,
1491.934,1049.3476,
1489.024,1079.1849,
1486.113,1079.3228,
1483.203,1025.9599,
1480.292,1001.4313,
1477.382,975.61905,
1474.471,985.59758,
1471.560,1003.312,
1468.650,974.76959,
1465.739,1005.3653,
1462.829,1014.5391,
1459.918,983.91282,
1457.008,965.71151,
1454.097,970.64453,
1451.186,949.72389,
1448.276,918.58114,
1445.365,931.74921,
1442.455,932.90947,
1439.544,950.03288,
1436.633,915.26986,
1433.723,934.12538,
1430.812,935.09706,
1427.902,958.13725,
1424.991,953.39844,
1422.081,937.65289,
1419.170,921.56097,
1416.259,903.04874,
1413.349,879.61373,
1410.438,899.84163,
1407.528,965.96804,
1404.617,908.18076,
1401.707,847.30988,
1398.796,865.71499,
1395.885,885.25,
1392.975,890.9169,
1390.064,908.60773,
1387.154,914.3333,
1384.243,872.31842,
1381.332,866.77123,
1378.422,934.2839,
1375.511,915.54828,
1372.601,954.87752,
1369.690,1023.3989,
1366.780,989.89603,
1363.869,1037.8211,
1360.958,1047.0457,
1358.048,1077.6286,
1355.137,1115.3407,
1352.227,1155.5312,
1349.316,1192.1941,
1346.406,1197.1659,
1343.495,1196.2674,
1340.584,1191.4279,
1337.674,1239.4292,
1334.763,1250.5556,
1331.853,1284.8631,
1328.942,1310.2655,
1326.032,1297.7532,
1323.121,1345.3765,
1320.210,1386.5572,
1317.300,1388.8063,
1314.389,1383.2778,
1311.479,1428.8128,
1308.568,1493.0746,
1305.657,1524.0742,
1302.747,1578.9223,
1299.836,1608.6898,
1296.926,1636.1556,
1294.015,1698.6696,
1291.105,1678.3559,
1288.194,1755.923,
1285.283,1811.3342,
1282.373,1822.0859,
1279.462,1859.7787,
1276.552,1902.4705,
1273.641,1947.2758,
1270.731,1971.553,
1267.820,1901.9119,
1264.909,1914.0528,
1261.999,1957.2153,
1259.088,1983.6669,
1256.178,1939.8578,
1253.267,1864.7368,
1250.356,1804.292,
1247.446,1788.1836,
1244.535,1758.5358,
1241.625,1708.8908,
1238.714,1666.1251,
1235.804,1616.0171,
1232.893,1568.8802,
1229.982,1543.9928,
1227.072,1506.875,
1224.161,1483.2374,
1221.251,1476.272,
1218.340,1425.3685,
1215.430,1382.2845,
1212.519,1361.1003,
1209.608,1356.2113,
1206.698,1366.782,
1203.787,1371.5616,
1200.877,1372.9714,
1197.966,1368.4756,
1195.055,1427.1242,
1192.145,1484.5846,
1189.234,1540.4751,
1186.324,1568.2506,
1183.413,1571.4835,
1180.503,1570.2618,
1177.592,1563.8862,
1174.681,1530.6747,
1171.771,1492.2706,
1168.860,1493.1637,
1165.950,1471.4802,
1163.039,1476.0276,
1160.129,1464.9138,
1157.218,1449.9234,
1154.307,1447.1051,
1151.397,1443.4723,
1148.486,1429.495,
1145.576,1457.7466,
1142.665,1423.118,
1139.754,1441.4043,
1136.844,1415.4367,
1133.933,1423.9507,
1131.023,1442.5547,
1128.112,1441.6078,
1125.202,1442.4287,
1122.291,1474.2581,
1119.380,1495.1547,
1116.470,1485.4469,
1113.559,1478.064,
1110.649,1505.7181,
1107.738,1503.568,
1104.828,1501.5652,
1101.917,1493.6217,
1099.006,1435.1571,
1096.096,1458.3038,
1093.185,1459.1818,
1090.275,1473.8169,
1087.364,1471.761,
1084.453,1463.6254,
1081.543,1481.5993,
1078.632,1503.9821,
1075.722,1493.6351,
1072.811,1507.9397,
1069.901,1503.5734,
1066.990,1529.1166,
1064.079,1523.0008,
1061.169,1522.2207,
1058.258,1531.7553,
1055.348,1543.9533,
1052.437,1553.1182,
1049.527,1542.0822,
1046.616,1537.738,
1043.705,1540.3331,
1040.795,1549.5506,
1037.884,1548.1811,
1034.974,1549.6985,
1032.063,1570.5959,
1029.153,1593.8225,
1026.242,1565.279,
1023.331,1612.5802,
1020.421,1624.3413,
1017.510,1615.7253,
1014.600,1636.5863,
1011.689,1660.1413,
1008.778,1622.6898,
1005.868,1625.7906,
1002.957,1686.0154,
1000.047,1738.202,
997.136,1827.0784,
994.226,1863.9733,
991.315,1841.3787,
988.404,1815.334,
985.494,1738.8829,
982.583,1767.1493,
979.673,1768.3234,
976.762,1748.4627,
973.852,1746.7423,
970.941,1759.7681,
968.030,1754.7471,
965.120,1746.4684,
962.209,1798.4734,
959.299,1798.0428,
956.388,1802.6495,
953.477,1796.5081,
950.567,1788.9684,
947.656,1814.0137,
944.746,1774.0846,
941.835,1837.8449,
938.925,1825.6119,
936.014,1801.1335,
933.103,1797.2526,
930.193,1800.6592,
927.282,1769.3334,
924.372,1752.4213,
921.461,1720.0576,
918.551,1704.6025,
915.640,1678.728,
912.729,1637.7841,
909.819,1615.6999,
906.908,1664.5605,
903.998,1634.6401,
901.087,1644.0722,
898.176,1666.6571,
895.266,1691.9938,
892.355,1716.9359,
889.445,1715.2573,
886.534,1723.5987,
883.624,1719.8673,
880.713,1735.6228,
877.802,1717.1213,
874.892,1623.5115,
871.981,1506.784,
869.071,1402.3574,
866.160,1433.9271,
863.250,1552.7033,
860.339,1672.8257,
857.428,1732.2065,
854.518,1733.4577,
851.607,1636.9376,
848.697,1564.5368,
845.786,1529.9086,
842.875,1574.0318,
839.965,1683.7455,
837.054,1736.3709,
834.144,1747.1447,
831.233,1737.9175,
828.323,1754.5057,
825.412,1768.557,
822.501,1750.9947,
819.591,1755.1267,
816.680,1734.4166,
813.770,1699.8044,
810.859,1683.1525,
807.949,1692.5183,
805.038,1711.0641,
802.127,1684.7241,
799.217,1642.7443,
796.306,1607.1147,
793.396,1613.609,
790.485,1646.249,
787.574,1630.4093,
784.664,1608.2663,
781.753,1619.6826,
778.843,1643.4227,
775.932,1671.3609,
773.022,1688.135,
770.111,1635.8099,
767.200,1661.1799,
764.290,1652.3358,
761.379,1642.4009,
758.469,1649.9705,
755.558,1660.1041,
752.648,1655.2165,
749.737,1647.7221,
746.826,1646.1149,
743.916,1649.3669,
741.005,1647.9399,
738.095,1609.7817,
735.184,1556.6259,
732.274,1492.5487,
729.363,1471.4151,
726.452,1530.0072,
723.542,1644.9411,
720.631,1617.6103,
717.721,1606.6772,
714.810,1615.0056,
711.899,1622.6658,
708.989,1594.4234,
706.078,1625.5008,
703.168,1626.5706,
700.257,1627.6134,
697.347,1623.2947,
694.436,1580.4464,
691.525,1587.6806,
688.615,1584.8476,
685.704,1593.0423,
682.794,1615.9095,
679.883,1644.214,
676.973,1643.4126,
674.062,1621.5552,
671.151,1622.3999,
668.241,1639.4882,
665.330,1640.1744,
662.420,1638.5769,
659.509,1635.0753,
656.598,1651.8582,
653.688,1659.4569,
650.777,1604.3031,
647.867,1635.3599,
644.956,1566.0945,
642.046,1508.885,
639.135,1500.5383,
636.224,1524.6399,
633.314,1602.4459,
630.403,1631.1182,
627.493,1643.0111,
624.582,1651.3671,
621.672,1647.4072,
618.761,1666.2485,
615.850,1662.8832,
612.940,1660.7146,
610.029,1669.8033,
607.119,1661.1173,
604.208,1697.1707,
601.297,1688.3211,
598.387,1666.2564,
595.476,1671.1757,
592.566,1670.3887,
589.655,1668.9542,
586.745,1652.6271,
583.834,1645.8642,
580.923,1694.1457,
578.013,1676.8816,
575.102,1665.3669,
572.192,1678.8288,
569.281,1714.4996,
566.371,1727.0216,
563.460,1725.4281,
560.549,1718.8899,
557.639,1712.7129,
554.728,1711.6442,
551.818,1717.8867,
548.907,1690.6076,
545.996,1690.5231,
543.086,1717.5724,
540.175,1709.7859,
537.265,1699.8344,
534.354,1698.7585,
531.444,1711.839,
528.533,1740.0777,
525.622,1751.7169,
522.712,1762.7445,
519.801,1767.8681,
516.891,1772.2582,
513.980,1797.0356,
511.070,1773.8935,
508.159,1811.4842,
505.248,1853.7348,
502.338,1823.3796,
499.427,1861.9712,
496.517,1894.3106,
493.606,1919.6623,
490.695,1928.9751,
487.785,1876.6293,
484.874,1917.363,
481.964,1940.5125,
479.053,1933.5953,
476.143,1926.6836,
473.232,1938.4799,
470.321,1907.2433,
467.411,1879.3804,
464.500,1909.5021,
461.590,1919.4567,
458.679,1943.7115,
455.769,1974.1676,
452.858,2000.1026,
449.947,1979.4764,
447.037,1984.9582,
444.126,1997.1651,
441.216,2006.0594,
438.305,1999.202,
435.395,2007.4289,
432.484,2005.1652,
429.573,1990.99,
426.663,1972.7466,
423.752,1803.8694,
420.842,1558.6227,
417.931,1347.0014,
415.020,1325.009,
412.110,1670.303,
409.199,1876.4675,
406.289,1960.2339,
403.378,1963.2321,
400.468,1957.9401,
397.557,1953.6793,
394.646,1995.1533,
391.736,2113.6222,
388.825,2094.0122,
385.915,2078.1383,
383.004,2088.0959,
380.094,2136.7472,
377.183,2166.0938,
374.272,2178.0495,
371.362,2185.0763,
368.451,2194.9795,
365.541,2206.988,
362.630,2209.1575,
359.719,2205.5863,
356.809,2199.5672,
353.898,2204.8088,
350.988,2233.3743,
348.077,2240.8583,
345.167,2205.7097,
342.256,2254.2691,
339.345,2252.8385,
336.435,2235.9189,
333.524,2227.7432,
330.614,2243.3915,
327.703,2252.3572,
324.793,2241.8137,
321.882,2200.36,
318.971,2245.71,
316.061,2277.3644,
313.150,2287.0905,
310.240,2264.0849,
307.329,2320.421,
304.418,2338.2345,
301.508,2327.13,
298.597,2307.8791,
295.687,2308.959,
292.776,2332.3335,
289.866,2378.5077,
286.955,2450.9028,
284.044,2487.1825,
281.134,2512.6181,
278.223,2534.1301,
275.313,2560.6569,
272.402,2540.6903,
269.492,2511.1602,
266.581,2486.3041,
263.670,2473.0708,
260.760,2516.7869,
257.849,2577.9573,
254.939,2628.5952,
252.028,2650.9653,
249.117,2653.7681,
246.207,2657.2888,
243.296,2696.0867,
240.386,2732.2466,
237.475,2723.1253,
234.565,2682.4003,
231.654,2689.7042,
228.743,2703.3327,
225.833,2698.8346,
222.922,2668.25,
220.012,2668.25,
217.101,2660.8893,
214.191,2675.7617,
211.280,2750.6904,
208.369,2750.8675,
205.459,2725.892,
202.548,2691.874,
199.638,2689.697,
196.727,2755.5148,
193.816,2802.7449,
190.906,2801.18,
187.995,2856.2059,
185.085,2870.9943,
182.174,2868.4047,
179.264,2876.3551,
176.353,2931.0754,
173.442,2959.7998,
170.532,2956.746,
167.621,2952.4201,
164.711,2881.8751,
161.800,2764.4445,
158.890,2603.9452,
155.979,2492.1738,
153.068,2325.9932,
150.158,2109.1091,
147.247,1861.4156,
144.337,1545.8324,
141.426,1215.839,
138.516,893.95486,
135.605,629.72719,
132.694,426.04395,
129.784,275.87761,
126.873,176.47456,
123.963,121.53672,
121.052,84.48501,
118.141,57.356734,
115.231,48.723156,
112.320,42.284549,
109.410,37.431868,
106.499,33.158937,
103.589,26.647455,
100.678,21.435135,
97.767,19.302322,
94.857,19.942989,
91.946,16.622002,
89.036,11.137102,
86.125,10.427897,
83.215,11.311841,
80.304,12.25,
77.393,12.25,
74.483,15.525675,
71.572,14.713535,
68.662,10.457802,
65.751,12.577156,
62.840,12.286596,
59.930,10.688141,
57.019,8.5728954,
54.109,11.832965,
51.198,13.043563,
48.288,10.244338,
45.377,9.5409595,
42.466,10.486658,
39.556,12.134881,
36.645,11.432691,
33.735,12.807745,
30.824,11.820243,
27.914,4.1073156,
25.003,3.25,
22.092,4.8645228,
19.182,9.0966659,
16.271,34.977801,
13.361,136.28492,
10.450,303.79717,
7.539,551.00081,
4.629,705.60687,
1.718,700.87447,
-1.192,409.46805,
-4.103,191.16449,
-7.013,51.448322,
-9.924,-0.75,
