,PLFC95~1,
Raman shift [1/cm],Intensity,
3014.167,6,
3011.256,2.4000859,
3008.346,73.518755,
3005.435,85.883391,
3002.525,86.340045,
2999.614,103.72205,
2996.704,85.229899,
2993.793,79.362328,
2990.882,95.213707,
2987.972,103.99496,
2985.061,109.2069,
2982.151,118.76135,
2979.240,107.89923,
2976.329,105.23771,
2973.419,96.66136,
2970.508,110.7833,
2967.598,113.90803,
2964.687,130.08967,
2961.777,124.37603,
2958.866,128.01039,
2955.955,123.86503,
2953.045,142.26622,
2950.134,135.36151,
2947.224,130.88253,
2944.313,150.6631,
2941.403,149.2979,
2938.492,146.8401,
2935.581,149.5644,
2932.671,168.99567,
2929.760,145.93077,
2926.850,146.89549,
2923.939,154.20094,
2921.028,161.01775,
2918.118,153.47859,
2915.207,146.1203,
2912.297,150.99154,
2909.386,161,
2906.476,158.58146,
2903.565,170.80741,
2900.654,153.77654,
2897.744,151.02514,
2894.833,151.76291,
2891.923,154.0545,
2889.012,152.83237,
2886.102,162.64459,
2883.191,153.01322,
2880.280,137.17703,
2877.370,131.93607,
2874.459,128.76726,
2871.549,136.01332,
2868.638,158.4103,
2865.727,162.4769,
2862.817,171.54278,
2859.906,162.45584,
2856.996,161.52038,
2854.085,164.92228,
2851.175,168.68977,
2848.264,171.42166,
2845.353,166.84903,
2842.443,161.59721,
2839.532,167.10446,
2836.622,164.30339,
2833.711,169.15542,
2830.801,162.10809,
2827.890,166.2902,
2824.979,160.92599,
2822.069,168.18195,
2819.158,180.19946,
2816.248,171.75868,
2813.337,161.22683,
2810.427,173.9931,
2807.516,159.90672,
2804.605,178.13942,
2801.695,168.69737,
2798.784,167.22177,
2795.874,172.5752,
2792.963,179.92883,
2790.052,160.00558,
2787.142,181.77635,
2784.231,169.38822,
2781.321,170.12572,
2778.410,173.6599,
2775.500,183.65862,
2772.589,182.34633,
2769.678,186.39248,
2766.768,183.94174,
2763.857,184,
2760.947,182.49054,
2758.036,177.61144,
2755.126,193.24572,
2752.215,178.31825,
2749.304,190.85071,
2746.394,203.21169,
2743.483,193.55004,
2740.573,182.33848,
2737.662,197.32988,
2734.751,196.11649,
2731.841,189.86447,
2728.930,193.572,
2726.020,197.88773,
2723.109,195.22683,
2720.199,196.43124,
2717.288,187.12408,
2714.377,191.0623,
2711.467,186.34396,
2708.556,195.8299,
2705.646,198.76058,
2702.735,197.34021,
2699.825,201.06544,
2696.914,202.85728,
2694.003,191.11056,
2691.093,216.3213,
2688.182,204.59926,
2685.272,204.23898,
2682.361,209.36463,
2679.450,208.04529,
2676.540,206.24389,
2673.629,213.68612,
2670.719,208.85398,
2667.808,203.38908,
2664.898,200.89591,
2661.987,215.96674,
2659.076,215.50862,
2656.166,228.53246,
2653.255,224.2619,
2650.345,206.80762,
2647.434,222.91426,
2644.524,219.68344,
2641.613,225.60025,
2638.702,217.20515,
2635.792,219.40578,
2632.881,225.88686,
2629.971,218.40263,
2627.060,226.83157,
2624.149,235.94688,
2621.239,236.76334,
2618.328,218.80536,
2615.418,235.00909,
2612.507,221.07118,
2609.597,234.07186,
2606.686,225.50604,
2603.775,237.5992,
2600.865,235,
2597.954,236.6646,
2595.044,228.01771,
2592.133,232.5606,
2589.223,243.34948,
2586.312,232.9296,
2583.401,258.7336,
2580.491,248.12505,
2577.580,232.99835,
2574.670,235.04411,
2571.759,238.59589,
2568.848,222.65187,
2565.938,237.90477,
2563.027,234.43865,
2560.117,236.35515,
2557.206,249.04059,
2554.296,235.88787,
2551.385,257.70213,
2548.474,250.0736,
2545.564,250.65179,
2542.653,246.16778,
2539.743,256.04929,
2536.832,254.26542,
2533.922,250.26808,
2531.011,262.05042,
2528.100,256.99654,
2525.190,264.79057,
2522.279,262.39033,
2519.369,250.90561,
2516.458,263.00708,
2513.548,260.48197,
2510.637,250.30741,
2507.726,259.05949,
2504.816,266.87486,
2501.905,252.20305,
2498.995,250.35831,
2496.084,256.61324,
2493.173,253.02616,
2490.263,274.52772,
2487.352,275.2488,
2484.442,258.56959,
2481.531,279.48385,
2478.621,275.50229,
2475.710,277.03067,
2472.799,279.27356,
2469.889,276.42383,
2466.978,273.22686,
2464.068,285.36513,
2461.157,276.77486,
2458.247,295.02934,
2455.336,289.63797,
2452.425,272.27828,
2449.515,286.98129,
2446.604,284.48163,
2443.694,279.20974,
2440.783,296.09685,
2437.872,290.51051,
2434.962,302.16129,
2432.051,292.61103,
2429.141,294.4058,
2426.230,285.78229,
2423.320,293.0426,
2420.409,306.26919,
2417.498,304.01685,
2414.588,307.35738,
2411.677,287.8606,
2408.767,306.95276,
2405.856,302.50472,
2402.946,313.73816,
2400.035,331.18311,
2397.124,298.34759,
2394.214,302.18761,
2391.303,310.50813,
2388.393,314.32322,
2385.482,330.03064,
2382.571,305.17734,
2379.661,300.25583,
2376.750,313.47035,
2373.840,332.62809,
2370.929,324.11913,
2368.019,337.02528,
2365.108,318.32461,
2362.197,328,
2359.287,320.81504,
2356.376,319.99824,
2353.466,318.81851,
2350.555,319.13518,
2347.645,329.36821,
2344.734,321.54376,
2341.823,329.81758,
2338.913,327.79555,
2336.002,342.21299,
2333.092,336.88492,
2330.181,347.52684,
2327.270,349,
2324.360,347.19341,
2321.449,341.03061,
2318.539,335.42507,
2315.628,345.94884,
2312.718,360.8326,
2309.807,330.0247,
2306.896,344.25196,
2303.986,343.69479,
2301.075,352.48932,
2298.165,360.59618,
2295.254,359.04309,
2292.344,342.99579,
2289.433,358.66409,
2286.522,361.08033,
2283.612,363.30995,
2280.701,360.40359,
2277.791,384.07641,
2274.880,350.19777,
2271.969,385.71605,
2269.059,369.88283,
2266.148,367.5409,
2263.238,376.89575,
2260.327,366.44847,
2257.417,386.47444,
2254.506,384.76352,
2251.595,386.85087,
2248.685,383.89811,
2245.774,386.4065,
2242.864,383.90772,
2239.953,398.59307,
2237.043,400.49322,
2234.132,390.59483,
2231.221,402.63315,
2228.311,402.04125,
2225.400,396.91556,
2222.490,398.27045,
2219.579,419.39333,
2216.669,432.95707,
2213.758,434.17254,
2210.847,435.64231,
2207.937,437,
2205.026,447.55569,
2202.116,454.4883,
2199.205,488.12471,
2196.294,487.25602,
2193.384,500.47303,
2190.473,508,
2187.563,537.029,
2184.652,541.64449,
2181.742,542.56924,
2178.831,561.24124,
2175.920,586.97816,
2173.010,576.54762,
2170.099,567.5997,
2167.189,577.25114,
2164.278,609.65226,
2161.368,607.99855,
2158.457,649.86156,
2155.546,662.63653,
2152.636,663.48403,
2149.725,686.63757,
2146.815,675.5339,
2143.904,726.10408,
2140.993,733.67199,
2138.083,723.44682,
2135.172,731.89084,
2132.262,723.72007,
2129.351,706.46894,
2126.441,683.79605,
2123.530,650.85409,
2120.619,634.14695,
2117.709,599.97987,
2114.798,574.71926,
2111.888,570.80036,
2108.977,538.84104,
2106.067,534.85891,
2103.156,498.40742,
2100.245,481.99184,
2097.335,469.72251,
2094.424,478.11154,
2091.514,478.70422,
2088.603,468.17048,
2085.692,464.95173,
2082.782,453.05224,
2079.871,460.85764,
2076.961,456.45205,
2074.050,462.70909,
2071.140,453.46005,
2068.229,437.72135,
2065.318,456.09976,
2062.408,463.65886,
2059.497,458.41072,
2056.587,452.77922,
2053.676,442.46707,
2050.766,466.84454,
2047.855,462.65825,
2044.944,451.66506,
2042.034,453.15603,
2039.123,450.80135,
2036.213,453.38662,
2033.302,428.04366,
2030.391,440.54176,
2027.481,467.87791,
2024.570,445.18645,
2021.660,477.63483,
2018.749,474.68383,
2015.839,484.33267,
2012.928,438.67785,
2010.017,452.62324,
2007.107,449.71961,
2004.196,446.11907,
2001.286,440.72793,
1998.375,424.25787,
1995.465,429.43928,
1992.554,444.27048,
1989.643,449.86175,
1986.733,467.27105,
1983.822,423.93722,
1980.912,448.76195,
1978.001,432.88126,
1975.090,434.21068,
1972.180,436.27526,
1969.269,429.97984,
1966.359,420.64866,
1963.448,404.19814,
1960.538,409.36114,
1957.627,429.83283,
1954.716,431.02873,
1951.806,410.64582,
1948.895,422.48989,
1945.985,424.31046,
1943.074,441.07386,
1940.164,415.70158,
1937.253,392.73468,
1934.342,409.08556,
1931.432,424.77287,
1928.521,425.10363,
1925.611,410.02611,
1922.700,414.49724,
1919.790,392.0234,
1916.879,400.09326,
1913.968,393.00984,
1911.058,392.25526,
1908.147,407.34304,
1905.237,391.58825,
1902.326,405.91109,
1899.415,419.47072,
1896.505,389.8613,
1893.594,402.34463,
1890.684,408.50348,
1887.773,394.01686,
1884.863,388.41686,
1881.952,388.7649,
1879.041,383.16563,
1876.131,396.28758,
1873.220,390.41147,
1870.310,386.21525,
1867.399,406.66413,
1864.489,399.49373,
1861.578,387.7472,
1858.667,396.46706,
1855.757,400.0179,
1852.846,388.041,
1849.936,419.25525,
1847.025,425.41607,
1844.114,424.5083,
1841.204,438.91958,
1838.293,418.00832,
1835.383,411.3605,
1832.472,425.41913,
1829.562,445.58203,
1826.651,440.05956,
1823.740,444.46362,
1820.830,427.93683,
1817.919,442.35941,
1815.009,428.16285,
1812.098,409.74017,
1809.188,427.69763,
1806.277,441.71229,
1803.366,456.83364,
1800.456,447.60453,
1797.545,458.18439,
1794.635,456.25894,
1791.724,430.83495,
1788.813,435.20669,
1785.903,460.4554,
1782.992,470.43963,
1780.082,459.20505,
1777.171,453.32869,
1774.261,431.98492,
1771.350,422.6255,
1768.439,439.85398,
1765.529,463.90832,
1762.618,453.20249,
1759.708,461.30449,
1756.797,472.84848,
1753.887,493.5656,
1750.976,498.61715,
1748.065,473.41014,
1745.155,485.35468,
1742.244,484.09513,
1739.334,472.89177,
1736.423,495.72894,
1733.512,506,
1730.602,502.25992,
1727.691,500.23234,
1724.781,488.20135,
1721.870,535.7003,
1718.960,530.73313,
1716.049,505.18666,
1713.138,507.83997,
1710.228,508.1297,
1707.317,514.192,
1704.407,523.08557,
1701.496,530.38083,
1698.586,547.63172,
1695.675,498.47173,
1692.764,519.61477,
1689.854,521,
1686.943,580.90901,
1684.033,588.85098,
1681.122,575.23789,
1678.211,577.97145,
1675.301,566.037,
1672.390,582.02393,
1669.480,590.60967,
1666.569,665.45408,
1663.659,623.73496,
1660.748,668.73271,
1657.837,706.15309,
1654.927,712.90628,
1652.016,708.53832,
1649.106,690.26929,
1646.195,702.84618,
1643.285,777.74935,
1640.374,767.50174,
1637.463,791.54044,
1634.553,821.665,
1631.642,866.62976,
1628.732,924.3733,
1625.821,987.01374,
1622.911,1007.8817,
1620.000,1054.4079,
1617.089,1190.2537,
1614.179,1263.9413,
1611.268,1329.5463,
1608.358,1332.9532,
1605.447,1357.5145,
1602.536,1427.9596,
1599.626,1442.1993,
1596.715,1445.7228,
1593.805,1408.4381,
1590.894,1396.074,
1587.984,1406.2592,
1585.073,1329.7249,
1582.162,1322.6791,
1579.252,1328.9098,
1576.341,1294.7532,
1573.431,1265.6375,
1570.520,1210.3155,
1567.610,1221.8239,
1564.699,1226.6498,
1561.788,1178.5216,
1558.878,1155.5862,
1555.967,1112.3781,
1553.057,1087.1725,
1550.146,1077.6255,
1547.235,1035.8094,
1544.325,1041.1043,
1541.414,1036.377,
1538.504,1017.6518,
1535.593,1028.3561,
1532.683,1019.2994,
1529.772,1003.725,
1526.861,1003.9884,
1523.951,987.20934,
1521.040,974.96227,
1518.130,987.89874,
1515.219,982.59906,
1512.309,1001.6216,
1509.398,968.51889,
1506.487,992.37815,
1503.577,963.65593,
1500.666,899.61089,
1497.756,963.58519,
1494.845,1006.0795,
1491.934,983.84252,
1489.024,935.71787,
1486.113,888.56644,
1483.203,936.51372,
1480.292,936.21191,
1477.382,860.64117,
1474.471,852.20855,
1471.560,853.54867,
1468.650,858.46619,
1465.739,849.47118,
1462.829,879.40586,
1459.918,891.8452,
1457.008,898.75406,
1454.097,895.1272,
1451.186,848.7118,
1448.276,814.89309,
1445.365,818.46524,
1442.455,812.50754,
1439.544,769.81382,
1436.633,779.15492,
1433.723,756.26434,
1430.812,722.48282,
1427.902,716.42844,
1424.991,734.43593,
1422.081,696.46596,
1419.170,658.43759,
1416.259,661.91069,
1413.349,677.59434,
1410.438,643.51212,
1407.528,643.73728,
1404.617,662.98118,
1401.707,688.54792,
1398.796,680.45461,
1395.885,671.18913,
1392.975,681.06184,
1390.064,631.69266,
1387.154,567.11107,
1384.243,504.65325,
1381.332,465.51321,
1378.422,551.98051,
1375.511,590.38853,
1372.601,667.49034,
1369.690,746.86391,
1366.780,783.55309,
1363.869,779.10284,
1360.958,808.67103,
1358.048,811.76052,
1355.137,861.4023,
1352.227,904.01954,
1349.316,888.66703,
1346.406,915.01533,
1343.495,971.02785,
1340.584,942.89315,
1337.674,930.43205,
1334.763,983.68243,
1331.853,975.33735,
1328.942,994.56821,
1326.032,1058.1715,
1323.121,1054.2169,
1320.210,1067.3117,
1317.300,1099.4288,
1314.389,1115.5139,
1311.479,1133.4756,
1308.568,1170.0085,
1305.657,1211.5765,
1302.747,1255.2131,
1299.836,1267.2482,
1296.926,1319.94,
1294.015,1340.1652,
1291.105,1367.4163,
1288.194,1461.258,
1285.283,1478.988,
1282.373,1499.1484,
1279.462,1540.5485,
1276.552,1544.9527,
1273.641,1549.1928,
1270.731,1590.5298,
1267.820,1582.8452,
1264.909,1568.8134,
1261.999,1579.5034,
1259.088,1511.0943,
1256.178,1512.1387,
1253.267,1491.5185,
1250.356,1445.042,
1247.446,1445.9487,
1244.535,1426.7992,
1241.625,1378.4667,
1238.714,1342.6774,
1235.804,1307.5049,
1232.893,1293.6271,
1229.982,1283.2947,
1227.072,1262.4726,
1224.161,1212.2508,
1221.251,1177.6867,
1218.340,1100.3319,
1215.430,1087.7741,
1212.519,1106.189,
1209.608,1100.4562,
1206.698,1102.9364,
1203.787,1124.9497,
1200.877,1105.4517,
1197.966,1145.0147,
1195.055,1163.2117,
1192.145,1230.6155,
1189.234,1305.8498,
1186.324,1336.6365,
1183.413,1338.4416,
1180.503,1350.1294,
1177.592,1355.04,
1174.681,1298.8733,
1171.771,1297.6497,
1168.860,1282.4672,
1165.950,1260.0365,
1163.039,1240.3335,
1160.129,1248.7464,
1157.218,1248.9045,
1154.307,1251.7279,
1151.397,1290.6407,
1148.486,1332.0029,
1145.576,1314.229,
1142.665,1296.4708,
1139.754,1278.7274,
1136.844,1314.217,
1133.933,1319.2699,
1131.023,1279.8417,
1128.112,1248.2138,
1125.202,1263.6618,
1122.291,1289.3625,
1119.380,1256.8181,
1116.470,1238.285,
1113.559,1257.651,
1110.649,1247.6289,
1107.738,1237.9284,
1104.828,1231.5907,
1101.917,1217.7867,
1099.006,1206.6803,
1096.096,1222.7099,
1093.185,1201.6379,
1090.275,1211.3298,
1087.364,1200.9637,
1084.453,1223.6857,
1081.543,1244.2471,
1078.632,1252.0286,
1075.722,1274.9403,
1072.811,1276.7041,
1069.901,1244.3934,
1066.990,1258.1666,
1064.079,1278.3323,
1061.169,1305.3305,
1058.258,1308.7189,
1055.348,1289.9423,
1052.437,1286.1479,
1049.527,1291.0937,
1046.616,1267.6353,
1043.705,1244.1893,
1040.795,1260.9862,
1037.884,1281.0803,
1034.974,1280.1791,
1032.063,1267.7154,
1029.153,1270.727,
1026.242,1276.7817,
1023.331,1281.9997,
1020.421,1299.0333,
1017.510,1327.8508,
1014.600,1366.9924,
1011.689,1390.1583,
1008.778,1371.8271,
1005.868,1365.6487,
1002.957,1437.9184,
1000.047,1468.656,
997.136,1472.476,
994.226,1458.4002,
991.315,1438.5198,
988.404,1470.4237,
985.494,1694.9365,
982.583,1468.8056,
979.673,1397.9544,
976.762,1382.8258,
973.852,1392.6082,
970.941,1395.9231,
968.030,1375.7573,
965.120,1396.9248,
962.209,1379.0214,
959.299,1414.2455,
956.388,1416.0009,
953.477,1405.411,
950.567,1410.967,
947.656,1424.3315,
944.746,1419.2342,
941.835,1402.8037,
938.925,1424.664,
936.014,1421.3077,
933.103,1408.884,
930.193,1409.0085,
927.282,1379.5793,
924.372,1353.3655,
921.461,1339.6904,
918.551,1345.2949,
915.640,1339.6766,
912.729,1321.9266,
909.819,1315.5527,
906.908,1289.4375,
903.998,1318.2238,
901.087,1337.4571,
898.176,1332.0701,
895.266,1331.696,
892.355,1367.6383,
889.445,1413.798,
886.534,1398.1374,
883.624,1413.8393,
880.713,1391.3579,
877.802,1379.4118,
874.892,1413.2646,
871.981,1409.5265,
869.071,1389.4766,
866.160,1400.4892,
863.250,1394.9433,
860.339,1385.7899,
857.428,1384.9825,
854.518,1368.0963,
851.607,1371.4246,
848.697,1375.4391,
845.786,1380.1138,
842.875,1387.1946,
839.965,1398.4127,
837.054,1414.2698,
834.144,1438.3036,
831.233,1422.3348,
828.323,1406.5597,
825.412,1398.7463,
822.501,1401.0002,
819.591,1439.8409,
816.680,1416.9615,
813.770,1404.1085,
810.859,1382.4016,
807.949,1371.4732,
805.038,1396.8097,
802.127,1378.7009,
799.217,1374.0184,
796.306,1384.3514,
793.396,1376.2594,
790.485,1352.1058,
787.574,1360.3114,
784.664,1368.5125,
781.753,1359.9352,
778.843,1367.2521,
775.932,1388.0246,
773.022,1402.4497,
770.111,1379.5575,
767.200,1400.8394,
764.290,1388.3522,
761.379,1372.4245,
758.469,1362.0479,
755.558,1332.5349,
752.648,1350.4562,
749.737,1313.5271,
746.826,1248.6414,
743.916,1169.1229,
741.005,1065.589,
738.095,831.76844,
735.184,668.13866,
732.274,619.78487,
729.363,743.68935,
726.452,1009.282,
723.542,1182.4922,
720.631,1248.5759,
717.721,1298.0794,
714.810,1318.9546,
711.899,1318.703,
708.989,1338.8761,
706.078,1325.3779,
703.168,1318.9639,
700.257,1328.9646,
697.347,1340.3484,
694.436,1320.0218,
691.525,1320.8256,
688.615,1313.4531,
685.704,1331.0164,
682.794,1348.532,
679.883,1311.5407,
676.973,1323.5612,
674.062,1323.4477,
671.151,1331.6433,
668.241,1352.5769,
665.330,1379.8109,
662.420,1375.8173,
659.509,1361.0315,
656.598,1350.4035,
653.688,1338.7185,
650.777,1312.1611,
647.867,1346.4032,
644.956,1345.951,
642.046,1332.708,
639.135,1326.0306,
636.224,1344.9005,
633.314,1325.0521,
630.403,1348.3781,
627.493,1371.4567,
624.582,1369.7606,
621.672,1337.2888,
618.761,1368.6774,
615.850,1359.7154,
612.940,1355.9537,
610.029,1382.5511,
607.119,1403.8711,
604.208,1386.8296,
601.297,1380.9941,
598.387,1388.7326,
595.476,1400.5488,
592.566,1374.5755,
589.655,1366.7605,
586.745,1364.566,
583.834,1353.0208,
580.923,1313.9479,
578.013,1305.3158,
575.102,1344.8719,
572.192,1372.0699,
569.281,1369.7804,
566.371,1396.3896,
563.460,1411.6984,
560.549,1413.1018,
557.639,1416.7883,
554.728,1438.6405,
551.818,1448.7846,
548.907,1484.5177,
545.996,1498.613,
543.086,1481.7994,
540.175,1457.6613,
537.265,1472.6584,
534.354,1479.5017,
531.444,1483.6226,
528.533,1493.9381,
525.622,1507.1292,
522.712,1505.7527,
519.801,1490.7798,
516.891,1479.1383,
513.980,1519.4016,
511.070,1514.5478,
508.159,1521.984,
505.248,1543.013,
502.338,1569.5708,
499.427,1554.9059,
496.517,1574.7576,
493.606,1593,
490.695,1595.0327,
487.785,1609.6587,
484.874,1588.0897,
481.964,1571.2625,
479.053,1567.8386,
476.143,1575.5182,
473.232,1563.0507,
470.321,1567.7315,
467.411,1560.2718,
464.500,1508.9891,
461.590,1548.0418,
458.679,1569.4556,
455.769,1569.1782,
452.858,1552.6247,
449.947,1577.8344,
447.037,1569.0445,
444.126,1571.4606,
441.216,1589.9417,
438.305,1583.8462,
435.395,1578.4105,
432.484,1586.0021,
429.573,1599.645,
426.663,1598.1247,
423.752,1619.62,
420.842,1640.4171,
417.931,1648.3978,
415.020,1628.6805,
412.110,1639.7058,
409.199,1668.9388,
406.289,1677.0435,
403.378,1621.8847,
400.468,1587.865,
397.557,1588.3113,
394.646,1582.5699,
391.736,1536.2374,
388.825,1481.1785,
385.915,1431.4718,
383.004,1414.2784,
380.094,1447.3033,
377.183,1492.4519,
374.272,1586.9598,
371.362,1675.7199,
368.451,1722.3617,
365.541,1711.8542,
362.630,1738.497,
359.719,1747.3137,
356.809,1709.1844,
353.898,1695.7061,
350.988,1701.2223,
348.077,1702.611,
345.167,1689.157,
342.256,1731.7399,
339.345,1740.28,
336.435,1719.7893,
333.524,1676.2918,
330.614,1717.2754,
327.703,1731.0268,
324.793,1730.1955,
321.882,1725.0973,
318.971,1765.2433,
316.061,1768.2571,
313.150,1767.1619,
310.240,1799.815,
307.329,1814.5781,
304.418,1795.3785,
301.508,1756.3507,
298.597,1720.0703,
295.687,1622.1863,
292.776,1608.6668,
289.866,1680.8686,
286.955,1813.1005,
284.044,2010.3648,
281.134,2128.4412,
278.223,2163.7781,
275.313,2237.4636,
272.402,2312.2521,
269.492,2372.1101,
266.581,2415.1484,
263.670,2501.1645,
260.760,2550.0296,
257.849,2577.3892,
254.939,2592.8007,
252.028,2611.82,
249.117,2618.5432,
246.207,2601.7107,
243.296,2538.7555,
240.386,2536.5709,
237.475,2519.4065,
234.565,2482.2483,
231.654,2445.7291,
228.743,2433.3971,
225.833,2412.316,
222.922,2368.7046,
220.012,2298.0347,
217.101,2286.7772,
214.191,2288.7277,
211.280,2254.5369,
208.369,2232.4884,
205.459,2197.0487,
202.548,2166.3984,
199.638,2215.0169,
196.727,2227.3049,
193.816,2242.847,
190.906,2274.8476,
187.995,2270.5035,
185.085,2247.7215,
182.174,2226.7424,
179.264,2236.8611,
176.353,2276.4467,
173.442,2280.5972,
170.532,2247.3118,
167.621,2224.2406,
164.711,2174.9034,
161.800,2106.5082,
158.890,2020.1409,
155.979,1886.5895,
153.068,1748.2967,
150.158,1587.1719,
147.247,1323.6834,
144.337,1088.2283,
141.426,860.8702,
138.516,633.61568,
135.605,468.17325,
132.694,323.86563,
129.784,206.17798,
126.873,140.38604,
123.963,98.546493,
121.052,68.784613,
118.141,48.081455,
115.231,35.920304,
112.320,31.847272,
109.410,32.727289,
106.499,31.302979,
103.589,25.95771,
100.678,20.37027,
97.767,16.104644,
94.857,26.394836,
91.946,27.372002,
89.036,20.645225,
86.125,12.134762,
83.215,13.185522,
80.304,16.478865,
77.393,17.895205,
74.483,16.034595,
71.572,12.101183,
68.662,7.2078025,
65.751,9.3271557,
62.840,10.481702,
59.930,11.187286,
57.019,11.892368,
54.109,7.2227132,
51.198,5.5080464,
48.288,8.9886751,
45.377,7.581919,
42.466,9.473316,
39.556,13.115119,
36.645,13.817309,
33.735,18.153988,
30.824,21.558226,
27.914,20.155876,
25.003,20.622637,
22.092,29.395519,
19.182,48.029729,
16.271,79.506785,
13.361,281.23463,
10.450,730.77963,
7.539,1833.4196,
4.629,2877.9651,
1.718,3438.5419,
-1.192,2951.2378,
-4.103,1835.3011,
-7.013,802.33405,
-9.924,-5,
