,PLC9DE~1,
Raman shift [1/cm],Intensity,
3014.167,-2.625,
3011.256,4.0250322,
3008.346,386.262,
3005.435,449.79549,
3002.525,484.92534,
2999.614,470.45556,
2996.704,500.46366,
2993.793,507.58583,
2990.882,541.32918,
2987.972,522.52635,
2985.061,564.34546,
2982.151,571.44894,
2979.240,590.64116,
2976.329,609.90503,
2973.419,633.23688,
2970.508,632.32493,
2967.598,652.08825,
2964.687,655.44905,
2961.777,678.96488,
2958.866,679.0288,
2955.955,703.96349,
2953.045,723.78885,
2950.134,739.1535,
2947.224,762.80203,
2944.313,786.3636,
2941.403,797.375,
2938.492,796.41838,
2935.581,809.33207,
2932.671,800.82141,
2929.760,826.95961,
2926.850,823.27049,
2923.939,858.65538,
2921.028,847.35725,
2918.118,875.7352,
2915.207,872.66608,
2912.297,879.33269,
2909.386,886.62316,
2906.476,892.66996,
2903.565,885.58463,
2900.654,885.15154,
2897.744,885.01041,
2894.833,865.03463,
2891.923,894.40391,
2889.012,884.50217,
2886.102,876.77095,
2883.191,895.35706,
2880.280,882.92045,
2877.370,856.46226,
2874.459,838.77764,
2871.549,880.87527,
2868.638,903.10283,
2865.727,912.1942,
2862.817,915.3603,
2859.906,932.28668,
2856.996,936.38859,
2854.085,929.85399,
2851.175,918.18227,
2848.264,937.19899,
2845.353,936.70642,
2842.443,915.55898,
2839.532,913.85271,
2836.622,893.10547,
2833.711,916.26355,
2830.801,906.28897,
2827.890,906.42049,
2824.979,919.59704,
2822.069,955.01109,
2819.158,919.1944,
2816.248,921.34026,
2813.337,947.5506,
2810.427,966.63947,
2807.516,962.90016,
2804.605,966.71874,
2801.695,956.94079,
2798.784,951.81854,
2795.874,965.67581,
2792.963,962.9467,
2790.052,964.37607,
2787.142,946.11177,
2784.231,931.27874,
2781.321,947.3179,
2778.410,952.66055,
2775.500,961.05327,
2772.589,958.56842,
2769.678,980.48078,
2766.768,965.27206,
2763.857,975.63704,
2760.947,978.9538,
2758.036,1011.7063,
2755.126,990.13568,
2752.215,1000.8205,
2749.304,1017.8426,
2746.394,1028.1633,
2743.483,1021.325,
2740.573,1019.9237,
2737.662,1018.3854,
2734.751,1020.3508,
2731.841,994.9684,
2728.930,1035.8241,
2726.020,1035.7066,
2723.109,1035.2616,
2720.199,1040.7689,
2717.288,1047.5648,
2714.377,1078.2124,
2711.467,1053.9816,
2708.556,1065.4066,
2705.646,1058.7834,
2702.735,1065.2333,
2699.825,1099.646,
2696.914,1109.5655,
2694.003,1082.3847,
2691.093,1106.1067,
2688.182,1107.8854,
2685.272,1101.4988,
2682.361,1092.5573,
2679.450,1088.0047,
2676.540,1090.1311,
2673.629,1082.6889,
2670.719,1097.7983,
2667.808,1108.9859,
2664.898,1090.8808,
2661.987,1126.5416,
2659.076,1153.1789,
2656.166,1142.5697,
2653.255,1155.9311,
2650.345,1160.6472,
2647.434,1158.9472,
2644.524,1174.7922,
2641.613,1170.0896,
2638.702,1184.2488,
2635.792,1176.033,
2632.881,1163.5297,
2629.971,1190.5497,
2627.060,1184.0419,
2624.149,1185.5906,
2621.239,1178.1028,
2618.328,1201.689,
2615.418,1224.7386,
2612.507,1221.9244,
2609.597,1212.9359,
2606.686,1240.4654,
2603.775,1259.2956,
2600.865,1247.6139,
2597.954,1258.0937,
2595.044,1260.8117,
2592.133,1237.375,
2589.223,1248.074,
2586.312,1275.3046,
2583.401,1287.6414,
2580.491,1277.9231,
2577.580,1297.38,
2574.670,1290.1357,
2571.759,1267.2286,
2568.848,1272.8446,
2565.938,1298.2798,
2563.027,1294.4477,
2560.117,1310.347,
2557.206,1319.6628,
2554.296,1290.6954,
2551.385,1318.565,
2548.474,1316.449,
2545.564,1328.9002,
2542.653,1311.5528,
2539.743,1336.3627,
2536.832,1335.1096,
2533.922,1353.3435,
2531.011,1348.9002,
2528.100,1367.4308,
2525.190,1348.2652,
2522.279,1380.4688,
2519.369,1378.7526,
2516.458,1372.0428,
2513.548,1349.9117,
2510.637,1379.9283,
2507.726,1375.8843,
2504.816,1365.2521,
2501.905,1356.4622,
2498.995,1396.4195,
2496.084,1384.1346,
2493.173,1398.6647,
2490.263,1398.9931,
2487.352,1443.3734,
2484.442,1426.0709,
2481.531,1433.5293,
2478.621,1451.9438,
2475.710,1458.4593,
2472.799,1465.9221,
2469.889,1455.375,
2466.978,1464.7564,
2464.068,1464.5443,
2461.157,1463.5675,
2458.247,1467.3603,
2455.336,1477.3104,
2452.425,1491.0731,
2449.515,1500.9509,
2446.604,1514.087,
2443.694,1509.0263,
2440.783,1517.2331,
2437.872,1524.6667,
2434.962,1529.2229,
2432.051,1534.0296,
2429.141,1538.4104,
2426.230,1542.7883,
2423.320,1553.4323,
2420.409,1559.7209,
2417.498,1556.8356,
2414.588,1574.257,
2411.677,1551.6659,
2408.767,1583.8455,
2405.856,1573.5607,
2402.946,1582.6967,
2400.035,1580.2834,
2397.124,1606.4071,
2394.214,1624.2114,
2391.303,1618.8777,
2388.393,1633.5866,
2385.482,1604.829,
2382.571,1616.1464,
2379.661,1643.7238,
2376.750,1651.6903,
2373.840,1672.1999,
2370.929,1685.2884,
2368.019,1678.6989,
2365.108,1703.841,
2362.197,1697.1668,
2359.287,1711.1483,
2356.376,1731.3451,
2353.466,1665.5565,
2350.555,1686.5706,
2347.645,1703.0863,
2344.734,1704.4672,
2341.823,1709.3253,
2338.913,1755.4601,
2336.002,1775.8582,
2333.092,1766.5476,
2330.181,1755.8661,
2327.270,1780.8899,
2324.360,1780.4669,
2321.449,1803.9294,
2318.539,1796.0539,
2315.628,1792.5341,
2312.718,1817.69,
2309.807,1813.7849,
2306.896,1816.8554,
2303.986,1804.5892,
2301.075,1813.1835,
2298.165,1803.2208,
2295.254,1828.7072,
2292.344,1837.7941,
2289.433,1843.3595,
2286.522,1848.616,
2283.612,1871.8661,
2280.701,1880.9714,
2277.791,1913.0162,
2274.880,1931.1569,
2271.969,1934.412,
2269.059,1907.7347,
2266.148,1934.0411,
2263.238,1960.9696,
2260.327,1960.9614,
2257.417,1976.9189,
2254.506,1957.7568,
2251.595,1960.5132,
2248.685,2003.4114,
2245.774,2009.2652,
2242.864,2002.6244,
2239.953,1980.3336,
2237.043,2009.4675,
2234.132,2010.1907,
2231.221,2026.8791,
2228.311,2048.5941,
2225.400,2061.4727,
2222.490,2103.6455,
2219.579,2121.0074,
2216.669,2122.3559,
2213.758,2149.2051,
2210.847,2201.6772,
2207.937,2228.6421,
2205.026,2223.8176,
2202.116,2290.8452,
2199.205,2340.5621,
2196.294,2380.2849,
2193.384,2447.7156,
2190.473,2464.517,
2187.563,2535.7133,
2184.652,2611.7007,
2181.742,2676.3331,
2178.831,2770.4374,
2175.920,2851.3368,
2173.010,2958.1556,
2170.099,3026.9703,
2167.189,3137.5877,
2164.278,3324.0102,
2161.368,3474.3699,
2158.457,3643.7663,
2155.546,3779.5847,
2152.636,3905.1726,
2149.725,4040.744,
2146.815,4179.2706,
2143.904,4206.334,
2140.993,4357.0574,
2138.083,4346.9952,
2135.172,4304.2155,
2132.262,4312.735,
2129.351,4230.1021,
2126.441,4124.9767,
2123.530,4011.9618,
2120.619,3778.4585,
2117.709,3606.2397,
2114.798,3403.1932,
2111.888,3208.515,
2108.977,3091.163,
2106.067,2927.7259,
2103.156,2803.7907,
2100.245,2698.3543,
2097.335,2658.1499,
2094.424,2586.7057,
2091.514,2538.4584,
2088.603,2519.4535,
2085.692,2471.0553,
2082.782,2439.8089,
2079.871,2439.8756,
2076.961,2423.6666,
2074.050,2435.4538,
2071.140,2408.686,
2068.229,2367.457,
2065.318,2371.8682,
2062.408,2380.0875,
2059.497,2366.9107,
2056.587,2363.8166,
2053.676,2379.5412,
2050.766,2360.1456,
2047.855,2299.6248,
2044.944,2369.5914,
2042.034,2329.641,
2039.123,2342.0147,
2036.213,2340.2594,
2033.302,2345.1793,
2030.391,2381.8656,
2027.481,2384.0093,
2024.570,2424.7309,
2021.660,2381.6271,
2018.749,2410.223,
2015.839,2409.1998,
2012.928,2425.0763,
2010.017,2417.375,
2007.107,2405.6516,
2004.196,2396.5417,
2001.286,2404.5835,
1998.375,2391.4577,
1995.465,2393.2411,
1992.554,2414.6572,
1989.643,2370.0686,
1986.733,2391.1075,
1983.822,2386.9393,
1980.912,2392.6524,
1978.001,2387.2062,
1975.090,2361.1643,
1972.180,2381.3045,
1969.269,2392.148,
1966.359,2399.6995,
1963.448,2396.1478,
1960.538,2425.6469,
1957.627,2405.7341,
1954.716,2415.9728,
1951.806,2414.3814,
1948.895,2399.2009,
1945.985,2420.6773,
1943.074,2407.7033,
1940.164,2412.1248,
1937.253,2401.401,
1934.342,2394.2467,
1931.432,2364.9428,
1928.521,2355.0244,
1925.611,2358.2581,
1922.700,2363.3322,
1919.790,2397.9642,
1916.879,2370.8162,
1913.968,2370.3725,
1911.058,2421.6393,
1908.147,2420.3268,
1905.237,2386.1838,
1902.326,2386.3854,
1899.415,2390.2055,
1896.505,2387.7788,
1893.594,2401.8384,
1890.684,2403.9958,
1887.773,2381.3674,
1884.863,2385.1791,
1881.952,2394.6101,
1879.041,2371.4627,
1876.131,2385.7345,
1873.220,2345.9191,
1870.310,2399.7112,
1867.399,2372.8868,
1864.489,2397.9605,
1861.578,2345.7536,
1858.667,2416.3481,
1855.757,2418.5456,
1852.846,2453.3853,
1849.936,2450.0036,
1847.025,2425.1998,
1844.114,2441.5045,
1841.204,2475.7281,
1838.293,2488.3567,
1835.383,2506.4795,
1832.472,2490.4324,
1829.562,2475.375,
1826.651,2518.453,
1823.740,2536.1911,
1820.830,2520.7135,
1817.919,2524.5188,
1815.009,2563.1931,
1812.098,2528.9813,
1809.188,2597.5376,
1806.277,2557.3931,
1803.366,2601.5913,
1800.456,2612.5065,
1797.545,2582.6798,
1794.635,2604.085,
1791.724,2591.4139,
1788.813,2589.1979,
1785.903,2658.968,
1782.992,2656.5211,
1780.082,2661.4712,
1777.171,2659.0415,
1774.261,2652.5349,
1771.350,2670.0775,
1768.439,2718.3333,
1765.529,2719.1009,
1762.618,2694.915,
1759.708,2735.593,
1756.797,2790.9129,
1753.887,2769.9377,
1750.976,2748.6577,
1748.065,2778.5547,
1745.155,2817.8975,
1742.244,2811.8216,
1739.334,2808.8526,
1736.423,2807.1358,
1733.512,2859.9483,
1730.602,2889.3512,
1727.691,2883.1631,
1724.781,2900.0394,
1721.870,2941.5895,
1718.960,3000.5312,
1716.049,2976.977,
1713.138,3012.2698,
1710.228,3055.9275,
1707.317,3058.7213,
1704.407,3071.851,
1701.496,3056.9671,
1698.586,3102.4982,
1695.675,3139.1248,
1692.764,3203.8586,
1689.854,3167.1939,
1686.943,3262.0024,
1684.033,3290.7293,
1681.122,3309.0691,
1678.211,3357.9086,
1675.301,3410.2147,
1672.390,3566.3062,
1669.480,3544.4259,
1666.569,3675.0352,
1663.659,3728.9392,
1660.748,3884.879,
1657.837,3964.1306,
1654.927,4087.7264,
1652.016,4105.0236,
1649.106,4213.358,
1646.195,4295.1323,
1643.285,4409.6764,
1640.374,4511.6781,
1637.463,4670.2481,
1634.553,4884.5227,
1631.642,5096.5792,
1628.732,5299.4133,
1625.821,5641.5719,
1622.911,5940.6788,
1620.000,6164.5403,
1617.089,6486.8874,
1614.179,6870.433,
1611.268,7190.4409,
1608.358,7520.7361,
1605.447,7755.1196,
1602.536,7982.709,
1599.626,8031.4926,
1596.715,8065.2334,
1593.805,8230.2491,
1590.894,8185.9668,
1587.984,8132.3382,
1585.073,8019.8737,
1582.162,7957.126,
1579.252,7808.4455,
1576.341,7683.6506,
1573.431,7623.5658,
1570.520,7547.6386,
1567.610,7462.5505,
1564.699,7300.4442,
1561.788,7210.7556,
1558.878,7088.8639,
1555.967,6948.2033,
1553.057,6771.8763,
1550.146,6668.2623,
1547.235,6554.9228,
1544.325,6432.2563,
1541.414,6346.2505,
1538.504,6256.4257,
1535.593,6228.26,
1532.683,6217.461,
1529.772,6155.2441,
1526.861,6120.1331,
1523.951,6130.2474,
1521.040,6168.1156,
1518.130,6149.0712,
1515.219,6109.374,
1512.309,6150.0822,
1509.398,6168.2419,
1506.487,6179.2964,
1503.577,6175.2209,
1500.666,6229.9127,
1497.756,6206.8661,
1494.845,6162.0938,
1491.934,6107.627,
1489.024,6184.6264,
1486.113,6158.6313,
1483.203,6138.6116,
1480.292,6104.1316,
1477.382,5982.7955,
1474.471,5903.1932,
1471.560,5804.6491,
1468.650,5788.407,
1465.739,5869.0314,
1462.829,6017.2053,
1459.918,6219.2104,
1457.008,6305.5901,
1454.097,6285.9885,
1451.186,6181.6574,
1448.276,5961.7363,
1445.365,5769.6854,
1442.455,5602.9367,
1439.544,5481.3131,
1436.633,5367.4127,
1433.723,5300.8092,
1430.812,5166.9214,
1427.902,5208.6916,
1424.991,5095.9079,
1422.081,5084.1177,
1419.170,5018.5705,
1416.259,4924.1284,
1413.349,4884.7387,
1410.438,4873.4765,
1407.528,4843.6941,
1404.617,4897.069,
1401.707,4951.7343,
1398.796,4987.5847,
1395.885,5037.9106,
1392.975,5040.8325,
1390.064,4953.6367,
1387.154,4811.0089,
1384.243,4699.0236,
1381.332,4536.4576,
1378.422,4605.7411,
1375.511,4845.557,
1372.601,5137.8265,
1369.690,5228.3811,
1366.780,5351.844,
1363.869,5442.3991,
1360.958,5583.5537,
1358.048,5666.3275,
1355.137,5714.4931,
1352.227,5809.8002,
1349.316,5923.5361,
1346.406,5989.9544,
1343.495,6033.7932,
1340.584,6121.1595,
1337.674,6205.6647,
1334.763,6267.1866,
1331.853,6288.5129,
1328.942,6421.9051,
1326.032,6457.9499,
1323.121,6513.5015,
1320.210,6605.2922,
1317.300,6665.9843,
1314.389,6840.142,
1311.479,7083.7432,
1308.568,7291.2217,
1305.657,7490.733,
1302.747,7671.4474,
1299.836,7926.5717,
1296.926,8006.2544,
1294.015,8154.2655,
1291.105,8237.8627,
1288.194,8311.4757,
1285.283,8393.9633,
1282.373,8500.7419,
1279.462,8595.1388,
1276.552,8611.1466,
1273.641,8648.5285,
1270.731,8731.6168,
1267.820,8672.5196,
1264.909,8645.7705,
1261.999,8636.282,
1259.088,8496.7274,
1256.178,8371.8969,
1253.267,8218.883,
1250.356,8093.041,
1247.446,7947.9376,
1244.535,7750.4914,
1241.625,7533.5419,
1238.714,7353.2934,
1235.804,7215.7684,
1232.893,7068.6555,
1229.982,6923.6903,
1227.072,6726.3322,
1224.161,6614.8766,
1221.251,6542.7703,
1218.340,6357.2395,
1215.430,6219.5795,
1212.519,6126.5911,
1209.608,6035.9231,
1206.698,5988.3111,
1203.787,5979.375,
1200.877,5989.0704,
1197.966,6145.5241,
1195.055,6310.3727,
1192.145,6465.1034,
1189.234,6689.6857,
1186.324,6886.5662,
1183.413,7041.2431,
1180.503,7116.8495,
1177.592,7053.0107,
1174.681,6928.4675,
1171.771,6780.0479,
1168.860,6592.4991,
1165.950,6622.7524,
1163.039,6536.5986,
1160.129,6501.4533,
1157.218,6546.2761,
1154.307,6649.1101,
1151.397,6788.4341,
1148.486,6917.0552,
1145.576,7035.223,
1142.665,7054.7571,
1139.754,6920.499,
1136.844,6803.2377,
1133.933,6685.4371,
1131.023,6604.7702,
1128.112,6575.8754,
1125.202,6547.7036,
1122.291,6466.9828,
1119.380,6422.5222,
1116.470,6437.5252,
1113.559,6491.9559,
1110.649,6390.1576,
1107.738,6317.6586,
1104.828,6254.2821,
1101.917,6129.8522,
1099.006,5993.6951,
1096.096,5893.4186,
1093.185,5845.1284,
1090.275,5921.4928,
1087.364,5915.6746,
1084.453,5951.622,
1081.543,6040.9615,
1078.632,6113.3893,
1075.722,6133.9661,
1072.811,6177.795,
1069.901,6211.8522,
1066.990,6192.5501,
1064.079,6256.1069,
1061.169,6275.1198,
1058.258,6243.2007,
1055.348,6169.3994,
1052.437,6049.0759,
1049.527,5984.0589,
1046.616,5924.1097,
1043.705,5938.1857,
1040.795,5903.5107,
1037.884,5883.9152,
1034.974,5885.1405,
1032.063,5878.5136,
1029.153,5876.5415,
1026.242,5936.2235,
1023.331,5925.0425,
1020.421,6038.0938,
1017.510,6184.7424,
1014.600,6323.8145,
1011.689,6452.8505,
1008.778,6568.7581,
1005.868,6624.8113,
1002.957,6784.8372,
1000.047,6888.727,
997.136,6985.9175,
994.226,6995.8987,
991.315,6914.3627,
988.404,6808.5963,
985.494,6672.3062,
982.583,6535.2572,
979.673,6512.4484,
976.762,6463.2326,
973.852,6403.2964,
970.941,6377.4881,
968.030,6400.3867,
965.120,6434.511,
962.209,6466.9076,
959.299,6484.4152,
956.388,6486.5752,
953.477,6506.1595,
950.567,6544.172,
947.656,6569.3912,
944.746,6615.2672,
941.835,6567.9764,
938.925,6565.5877,
936.014,6571.3867,
933.103,6551.8955,
930.193,6511.9779,
927.282,6495.6382,
924.372,6371.334,
921.461,6300.145,
918.551,6176.9689,
915.640,6086.2271,
912.729,6025.4633,
909.819,5919.375,
906.908,5919.375,
903.998,5938.4637,
901.087,5993.659,
898.176,6037.6452,
895.266,6071.5145,
892.355,6125.0233,
889.445,6213.9857,
886.534,6251.1094,
883.624,6356.6085,
880.713,6413.5614,
877.802,6438.0076,
874.892,6466.2719,
871.981,6460.5859,
869.071,6427.1694,
866.160,6419.9951,
863.250,6404.6973,
860.339,6391.375,
857.428,6395.2012,
854.518,6410.6769,
851.607,6386.5469,
848.697,6411.9511,
845.786,6422.2612,
842.875,6428.8128,
839.965,6461.2832,
837.054,6529.8309,
834.144,6570.4397,
831.233,6552.3769,
828.323,6575.9733,
825.412,6613.053,
822.501,6613.8644,
819.591,6622.1284,
816.680,6610.3557,
813.770,6577.3029,
810.859,6500.7137,
807.949,6427.7213,
805.038,6417.8993,
802.127,6372.6273,
799.217,6312.4707,
796.306,6260.4558,
793.396,6216.2985,
790.485,6189.9549,
787.574,6202.9391,
784.664,6191.4575,
781.753,6124.9605,
778.843,6137.4824,
775.932,6195.7205,
773.022,6230.7293,
770.111,6278.1488,
767.200,6356.7449,
764.290,6371.129,
761.379,6353.3467,
758.469,6338.6769,
755.558,6344.19,
752.648,6237.4769,
749.737,6135.4291,
746.826,6049.4827,
743.916,5934.7571,
741.005,5717.5967,
738.095,5294.6089,
735.184,4816.7693,
732.274,4700.5424,
729.363,5011.971,
726.452,5583.2913,
723.542,5876.2917,
720.631,5910.7239,
717.721,6006.3118,
714.810,6066.5228,
711.899,6045.2166,
708.989,6001.6426,
706.078,6054.261,
703.168,6015.7612,
700.257,5962.9841,
697.347,5930.8103,
694.436,5913.6331,
691.525,5886.3037,
688.615,5913.0784,
685.704,5916.4023,
682.794,5904.2685,
679.883,5937.3398,
676.973,6025.4905,
674.062,5991.0523,
671.151,6012.2213,
668.241,6073.0865,
665.330,6062.7028,
662.420,6132.9912,
659.509,6135.9462,
656.598,6171.7845,
653.688,6214.4926,
650.777,6171.78,
647.867,6183.725,
644.956,6180.8026,
642.046,6208.0553,
639.135,6236.912,
636.224,6182.745,
633.314,6256.5813,
630.403,6254.6826,
627.493,6241.1431,
624.582,6234.2527,
621.672,6197.821,
618.761,6213.0937,
615.850,6202.3964,
612.940,6237.1899,
610.029,6330.9533,
607.119,6340.4288,
604.208,6315.8145,
601.297,6331.2979,
598.387,6380.8788,
595.476,6434.844,
592.566,6386.8328,
589.655,6330.4311,
586.745,6295.2617,
583.834,6286.4492,
580.923,6297.3276,
578.013,6289.4803,
575.102,6445.6854,
572.192,6598.0316,
569.281,6664.3118,
566.371,6686.2253,
563.460,6720.8265,
560.549,6747.0442,
557.639,6771.1175,
554.728,6803.4298,
551.818,6851.8094,
548.907,6894.6739,
545.996,6930.9266,
543.086,6954.5362,
540.175,6950.643,
537.265,6925.7495,
534.354,6926.9105,
531.444,6945.1774,
528.533,6962.7263,
525.622,6925.4808,
522.712,6985.9381,
519.801,7044.1227,
516.891,7068.2531,
513.980,7077.5446,
511.070,7135.4271,
508.159,7160.3301,
505.248,7173.142,
502.338,7209.3239,
499.427,7241.7408,
496.517,7270.173,
493.606,7312.9673,
490.695,7369.0868,
487.785,7381.4034,
484.874,7303.8895,
481.964,7286.9528,
479.053,7306.7246,
476.143,7233.0002,
473.232,7303.193,
470.321,7305.6133,
467.411,7296.3695,
464.500,7350.9787,
461.590,7295.8454,
458.679,7346.4104,
455.769,7411.4022,
452.858,7439.1927,
449.947,7475.8614,
447.037,7504.6116,
444.126,7517.6356,
441.216,7511.2158,
438.305,7481.5004,
435.395,7486.5539,
432.484,7526.7989,
429.573,7579.215,
426.663,7591.3773,
423.752,7630.733,
420.842,7668.8392,
417.931,7732.082,
415.020,7864.7947,
412.110,7891.3234,
409.199,7986.9055,
406.289,8065.5841,
403.378,8026.3545,
400.468,8020.3066,
397.557,7954.6205,
394.646,7866.0937,
391.736,7782.6627,
388.825,7572.9864,
385.915,7453.8981,
383.004,7435.6414,
380.094,7523.8609,
377.183,7670.5938,
374.272,7850.3268,
371.362,8012.7014,
368.451,8121.4662,
365.541,8122.9673,
362.630,8119.0051,
359.719,8100.5766,
356.809,8071.6277,
353.898,8174.9618,
350.988,8129.5968,
348.077,8069.4079,
345.167,8074.602,
342.256,8079.0845,
339.345,8108.0095,
336.435,8147.365,
333.524,8190.6263,
330.614,8325.4995,
327.703,8412.0413,
324.793,8466.2334,
321.882,8500.64,
318.971,8609.9261,
316.061,8725.9936,
313.150,8855.4892,
310.240,9006.8808,
307.329,9041.6751,
304.418,9102.162,
301.508,9130.6395,
298.597,9018.8366,
295.687,9001.2481,
292.776,9154.0425,
289.866,9469.2804,
286.955,9924.3353,
284.044,10319.54,
281.134,10733.918,
278.223,11154.302,
275.313,11440.938,
272.402,11704.691,
269.492,11987.622,
266.581,12297.456,
263.670,12522.421,
260.760,12757.15,
257.849,12995.009,
254.939,13231.319,
252.028,13328.475,
249.117,13367.116,
246.207,13364.314,
243.296,13340.889,
240.386,13280.259,
237.475,13222.098,
234.565,13142.484,
231.654,12914.605,
228.743,12780.07,
225.833,12676.129,
222.922,12579.517,
220.012,12475.333,
217.101,12370.221,
214.191,12267.088,
211.280,12169.608,
208.369,12147.573,
205.459,12064.917,
202.548,11945.108,
199.638,11908.825,
196.727,11927.881,
193.816,11940.15,
190.906,11924.721,
187.995,11963.094,
185.085,12048.722,
182.174,12142.695,
179.264,12191.843,
176.353,12212.754,
173.442,12224.275,
170.532,12231.811,
167.621,12252.719,
164.711,12031.33,
161.800,11682.848,
158.890,11262.528,
155.979,10579.574,
153.068,9750.8971,
150.158,8773.2666,
147.247,7573.5684,
144.337,6263.0319,
141.426,4938.4328,
138.516,3642.2934,
135.605,2633.4239,
132.694,1811.4266,
129.784,1177.6484,
126.873,799.34472,
123.963,552.7921,
121.052,379.6153,
118.141,266.81879,
115.231,213.08222,
112.320,172.73502,
109.410,142.46621,
106.499,116.82862,
103.589,109.69424,
100.678,104.30067,
97.767,93.636611,
94.857,82.287175,
91.946,76.568778,
89.036,73.907327,
86.125,64.687659,
83.215,60.782239,
80.304,57.459539,
77.393,51.794179,
74.483,52.68527,
71.572,51.925592,
68.662,48.682325,
65.751,41.617814,
62.840,42.265212,
59.930,44.625855,
57.019,41.805527,
54.109,38.986357,
51.198,35.866954,
48.288,32.358013,
45.377,30.247878,
42.466,29.787219,
39.556,30.144763,
36.645,28.740382,
33.735,32.009739,
30.824,34.712339,
27.914,32.608813,
25.003,28.016538,
22.092,26.666618,
19.182,29.626711,
16.271,37.321103,
13.361,86.313919,
10.450,184.10984,
7.539,385.92298,
4.629,576.23377,
1.718,660.68723,
-1.192,514.98403,
-4.103,325.61987,
-7.013,150.01019,
-9.924,0.375,
