,PLB8BC~1,
Wavenumbers [1/cm],Intensity,
3014.167,-4.75,
3011.256,1.9499356,
3008.346,51.999705,
3005.435,64.709361,
3002.525,56.627517,
2999.614,74.447382,
2996.704,68.382988,
2993.793,58.878456,
2990.882,63.593472,
2987.972,89.139011,
2985.061,61.929796,
2982.151,65.818076,
2979.240,75.998086,
2976.329,83.24454,
2973.419,81.726764,
2970.508,89.483327,
2967.598,85.775703,
2964.687,87.653533,
2961.777,86.403929,
2958.866,92.918646,
2955.955,82.661514,
2953.045,91.534123,
2950.134,102.10132,
2947.224,83.44569,
2944.313,116.60969,
2941.403,99.428377,
2938.492,95.857063,
2935.581,95.346967,
2932.671,102.09121,
2929.760,98.092292,
2926.850,96.831954,
2923.939,106.76868,
2921.028,111.25,
2918.118,113.51071,
2915.207,115.71831,
2912.297,105.28385,
2909.386,100.06022,
2906.476,113.92414,
2903.565,111.26704,
2900.654,104.81419,
2897.744,119.30029,
2894.833,105.51837,
2891.923,63.221093,
2889.012,96.579481,
2886.102,91.128397,
2883.191,77.251888,
2880.280,16.484417,
2877.370,-116.46491,
2874.459,-122.51726,
2871.549,-58.472964,
2868.638,50.210771,
2865.727,88.565388,
2862.817,85.064173,
2859.906,99.378189,
2856.996,125.81114,
2854.085,121.93279,
2851.175,109.37342,
2848.264,121.33317,
2845.353,124.16373,
2842.443,118.25348,
2839.532,115.25,
2836.622,114.67123,
2833.711,111.81987,
2830.801,119.55221,
2827.890,136.01745,
2824.979,121.17599,
2822.069,124.50019,
2819.158,136.74864,
2816.248,120.50289,
2813.337,143.50733,
2810.427,121.41942,
2807.516,130.09172,
2804.605,138.86298,
2801.695,133.89472,
2798.784,128.25,
2795.874,131.81463,
2792.963,136.96426,
2790.052,125.25236,
2787.142,132.13173,
2784.231,131.92859,
2781.321,134.43858,
2778.410,138.49492,
2775.500,134.88897,
2772.589,116.4824,
2769.678,147.2841,
2766.768,136.39366,
2763.857,131.98796,
2760.947,135.21217,
2758.036,144.4985,
2755.126,132.53205,
2752.215,139.05905,
2749.304,144.97301,
2746.394,139.9214,
2743.483,132.89999,
2740.573,130.70131,
2737.662,142.56953,
2734.751,141.62366,
2731.841,140.22252,
2728.930,146.27114,
2726.020,153.80613,
2723.109,143.611,
2720.199,147.11248,
2717.288,155.68796,
2714.377,139.35032,
2711.467,164.92252,
2708.556,156.63274,
2705.646,146.6584,
2702.735,163.89947,
2699.825,155.56458,
2696.914,150.48771,
2694.003,174.837,
2691.093,156.76746,
2688.182,156.17815,
2685.272,146.9399,
2682.361,134.04367,
2679.450,160.20471,
2676.540,158.10773,
2673.629,147.5998,
2670.719,151.1696,
2667.808,161.05546,
2664.898,161.83463,
2661.987,154.91678,
2659.076,167.97844,
2656.166,155.36257,
2653.255,164.2449,
2650.345,153.16107,
2647.434,182.96392,
2644.524,164.61689,
2641.613,167.53598,
2638.702,155.51828,
2635.792,163.84422,
2632.881,164.2916,
2629.971,166.37751,
2627.060,178.74969,
2624.149,179.4125,
2621.239,169.73518,
2618.328,160.26729,
2615.418,183.25,
2612.507,178.90614,
2609.597,171.70908,
2606.686,164.41868,
2603.775,170.21032,
2600.865,171.25,
2597.954,163.29791,
2595.044,173.17029,
2592.133,182.6894,
2589.223,179.03316,
2586.312,193.95852,
2583.401,190.12952,
2580.491,180.33172,
2577.580,179.27641,
2574.670,194.41979,
2571.759,189.49743,
2568.848,187.25,
2565.938,195.86922,
2563.027,179.83632,
2560.117,189.34345,
2557.206,199.09871,
2554.296,196.53375,
2551.385,179.92792,
2548.474,183.32435,
2545.564,188.28166,
2542.653,197.01846,
2539.743,184.89171,
2536.832,181.55655,
2533.922,185.32885,
2531.011,196.02451,
2528.100,199.52174,
2525.190,208.22377,
2522.279,193.37555,
2519.369,209.91076,
2516.458,196.91785,
2513.548,193.39552,
2510.637,202.63517,
2507.726,194.81134,
2504.816,196.56229,
2501.905,192.81524,
2498.995,195.96663,
2496.084,204.4904,
2493.173,209.30298,
2490.263,207.87936,
2487.352,199.79253,
2484.442,216.80673,
2481.531,219.82455,
2478.621,216.85665,
2475.710,205.21933,
2472.799,205.68941,
2469.889,225.06719,
2466.978,217.53879,
2464.068,225.65745,
2461.157,223.86501,
2458.247,220.5441,
2455.336,223.52594,
2452.425,220.00943,
2449.515,232.77806,
2446.604,221.89747,
2443.694,224.7385,
2440.783,232.10811,
2437.872,232.57818,
2434.962,241.25,
2432.051,233.93505,
2429.141,225.53824,
2426.230,228.98924,
2423.320,236.19274,
2420.409,235.57703,
2417.498,238.21631,
2414.588,230.71775,
2411.677,240.8197,
2408.767,230.51476,
2405.856,231.90477,
2402.946,240.20264,
2400.035,220.97533,
2397.124,243.26069,
2394.214,246.05961,
2391.303,226.67548,
2388.393,233.43375,
2385.482,215.30748,
2382.571,216.78202,
2379.661,219.87763,
2376.750,248.56526,
2373.840,244.7594,
2370.929,263.03341,
2368.019,246.12994,
2365.108,245.94634,
2362.197,250.88832,
2359.287,254.82995,
2356.376,256.25176,
2353.466,257.05309,
2350.555,248.34972,
2347.645,263.4844,
2344.734,275.94584,
2341.823,272.28317,
2338.913,278.40819,
2336.002,271.18296,
2333.092,269.42262,
2330.181,273.83053,
2327.270,270.69004,
2324.360,266.19103,
2321.449,271.60374,
2318.539,273.82493,
2315.628,277.25,
2312.718,257.81827,
2309.807,253.88952,
2306.896,277.00587,
2303.986,277.07466,
2301.075,278.56913,
2298.165,282.84618,
2295.254,279.33617,
2292.344,280.24579,
2289.433,298.93727,
2286.522,309.38389,
2283.612,294.23849,
2280.701,282.65359,
2277.791,288.01142,
2274.880,306.464,
2271.969,296.41872,
2269.059,289.30451,
2266.148,306.00459,
2263.238,295.7558,
2260.327,309.35333,
2257.417,296.53833,
2254.506,297.89104,
2251.595,314.66811,
2248.685,323.25,
2245.774,330.45867,
2242.864,330.24006,
2239.953,307.84988,
2237.043,318.95037,
2234.132,307.30711,
2231.221,337.12092,
2228.311,320.28483,
2225.400,328.5596,
2222.490,333.86552,
2219.579,323.24235,
2216.669,332.82393,
2213.758,321.81602,
2210.847,329.89231,
2207.937,324.53503,
2205.026,332.24883,
2202.116,363.46338,
2199.205,355.47541,
2196.294,347.25,
2193.384,346.5395,
2190.473,341.96009,
2187.563,359.27417,
2184.652,366.20796,
2181.742,382.56884,
2178.831,386.45619,
2175.920,378.74727,
2173.010,365.29875,
2170.099,412.9772,
2167.189,409.47962,
2164.278,440.22286,
2161.368,442.53471,
2158.457,462.82637,
2155.546,477.94618,
2152.636,493.03723,
2149.725,502.57214,
2146.815,540.01535,
2143.904,535.94889,
2140.993,538.60443,
2138.083,562.81532,
2135.172,560.36756,
2132.262,556.26408,
2129.351,560.73965,
2126.441,554.06552,
2123.530,547.03674,
2120.619,525.36021,
2117.709,497.75725,
2114.798,476.30006,
2111.888,475.02541,
2108.977,456.07781,
2106.067,441.14947,
2103.156,413.61462,
2100.245,437.21738,
2097.335,384.28665,
2094.424,382.27634,
2091.514,388.95422,
2088.603,367.02882,
2085.692,373.66257,
2082.782,395.67964,
2079.871,396.32118,
2076.961,407.41049,
2074.050,404.86212,
2071.140,397.89363,
2068.229,399.34506,
2065.318,394.63275,
2062.408,398.69705,
2059.497,383.01188,
2056.587,375.21504,
2053.676,393.58234,
2050.766,388.01981,
2047.855,379.96198,
2044.944,401.45674,
2042.034,386.56796,
2039.123,394.52946,
2036.213,386.15443,
2033.302,381.16306,
2030.391,389.91075,
2027.481,381.85988,
2024.570,390.73536,
2021.660,410.18567,
2018.749,400.07229,
2015.839,376.84121,
2012.928,416.26174,
2010.017,403.32817,
2007.107,398.50608,
2004.196,399.22619,
2001.286,408.52207,
1998.375,408.9872,
1995.465,397.59732,
1992.554,383.85598,
1989.643,432.45269,
1986.733,422.76842,
1983.822,416.08383,
1980.912,418.14035,
1978.001,398.85113,
1975.090,417.47595,
1972.180,400.00932,
1969.269,402.43969,
1966.359,384.30372,
1963.448,393.6265,
1960.538,424.97227,
1957.627,413.30881,
1954.716,416.10637,
1951.806,441.70354,
1948.895,425.76628,
1945.985,390.70098,
1943.074,399.12825,
1940.164,404.43288,
1937.253,417.5283,
1934.342,410.20722,
1931.432,410.44558,
1928.521,411.65242,
1925.611,397.27611,
1922.700,395.41575,
1919.790,441.03562,
1916.879,424.99374,
1913.968,418.25615,
1911.058,407.76953,
1908.147,428.9843,
1905.237,428.63972,
1902.326,425.02039,
1899.415,391.04877,
1896.505,398.13583,
1893.594,448.8781,
1890.684,447.17822,
1887.773,417.54342,
1884.863,422.28189,
1881.952,414.20766,
1879.041,411.03245,
1876.131,420.39379,
1873.220,389.12597,
1870.310,432.51897,
1867.399,424.44192,
1864.489,441.23747,
1861.578,415.22261,
1858.667,406.71706,
1855.757,413.05788,
1852.846,412.79356,
1849.936,431.90166,
1847.025,426.42274,
1844.114,446.87119,
1841.204,439.16958,
1838.293,433.73254,
1835.383,449.71499,
1832.472,455.43609,
1829.562,446.02916,
1826.651,462.81465,
1823.740,465.97029,
1820.830,443.95849,
1817.919,464.31005,
1815.009,479.66857,
1812.098,453.42325,
1809.188,454.93991,
1806.277,435.69264,
1803.366,464.26664,
1800.456,465.90949,
1797.545,476.23587,
1794.635,468.05603,
1791.724,476.61898,
1788.813,458.45026,
1785.903,461.59495,
1782.992,455.30063,
1780.082,412.4298,
1777.171,377.57065,
1774.261,349.59539,
1771.350,412.53551,
1768.439,471.72011,
1765.529,473.06476,
1762.618,466.71003,
1759.708,495.00012,
1756.797,517.00758,
1753.887,505.94096,
1750.976,487.3017,
1748.065,529.48962,
1745.155,515.73416,
1742.244,511.45196,
1739.334,520.56529,
1736.423,510.35842,
1733.512,506.97764,
1730.602,530.43853,
1727.691,527.50275,
1724.781,495.14667,
1721.870,509.78346,
1718.960,513.60554,
1716.049,510.73308,
1713.138,523.07494,
1710.228,514.80644,
1707.317,577.82371,
1704.407,524.26059,
1701.496,553.71191,
1698.586,557.25,
1695.675,576.89988,
1692.764,559.31556,
1689.854,551.55315,
1686.943,569.60921,
1684.033,558.54803,
1681.122,576.92714,
1678.211,592.10724,
1675.301,592.25,
1672.390,636.16327,
1669.480,607.40242,
1666.569,626.22461,
1663.659,624.69097,
1660.748,651.42354,
1657.837,660.33748,
1654.927,663.26598,
1652.016,623.78084,
1649.106,685.81306,
1646.195,708.51374,
1643.285,718.79427,
1640.374,699.66812,
1637.463,719.35809,
1634.553,725.25,
1631.642,725.49973,
1628.732,748.36258,
1625.821,767.2958,
1622.911,836.85554,
1620.000,838.2374,
1617.089,909.79726,
1614.179,981.21953,
1611.268,963.03074,
1608.358,972.73495,
1605.447,1072.2508,
1602.536,1107.1385,
1599.626,1061.4135,
1596.715,1079.0324,
1593.805,1073.201,
1590.894,1041.4265,
1587.984,1064.0989,
1585.073,1086.968,
1582.162,1046.001,
1579.252,1034.7951,
1576.341,1011.0192,
1573.431,998.20143,
1570.520,1009.2444,
1567.610,987.17117,
1564.699,958.6742,
1561.788,968.15125,
1558.878,960.22921,
1555.967,960.51731,
1553.057,941.92264,
1550.146,923.10456,
1547.235,928.1049,
1544.325,913.89085,
1541.414,916.07189,
1538.504,897.85284,
1535.593,847.26034,
1532.683,850.21971,
1529.772,860.43151,
1526.861,849.11287,
1523.951,847.35941,
1521.040,820.33314,
1518.130,833.10491,
1515.219,848.52998,
1512.309,832.15535,
1509.398,778.96105,
1506.487,786.02103,
1503.577,833.81273,
1500.666,798.55648,
1497.756,773.14031,
1494.845,819.00932,
1491.934,789.34134,
1489.024,817.25363,
1486.113,812.68671,
1483.203,822.90801,
1480.292,758.0661,
1477.382,761.60672,
1474.471,766.78476,
1471.560,789.74565,
1468.650,788.00089,
1465.739,771.08069,
1462.829,785.13861,
1459.918,784.88524,
1457.008,765.12682,
1454.097,755.40137,
1451.186,731.20938,
1448.276,710.58114,
1445.365,732.10782,
1442.455,750.36283,
1439.544,774.78223,
1436.633,761.70581,
1433.723,750.96756,
1430.812,822.99917,
1427.902,782.31765,
1424.991,785.16094,
1422.081,754.97326,
1419.170,766.93903,
1416.259,772.49025,
1413.349,747.5718,
1410.438,793.83281,
1407.528,783.77543,
1404.617,766.42426,
1401.707,758.24101,
1398.796,775.73944,
1395.885,787.71443,
1392.975,784.79252,
1390.064,812.24349,
1387.154,777.96893,
1384.243,752.5274,
1381.332,794.02065,
1378.422,808.97458,
1375.511,823.02629,
1372.601,840.75984,
1369.690,834.535,
1366.780,791.27214,
1363.869,842.72702,
1360.958,887.37692,
1358.048,898.25,
1355.137,907.71231,
1352.227,934.55076,
1349.316,944.58513,
1346.406,925.29206,
1343.495,927.4852,
1340.584,945.07109,
1337.674,970.25162,
1334.763,995.497,
1331.853,1001.9876,
1328.942,972.89769,
1326.032,970.06562,
1323.121,1046.5693,
1320.210,1048.6109,
1317.300,1048.0546,
1314.389,1043.9164,
1311.479,1072.007,
1308.568,1125.4051,
1305.657,1128.4071,
1302.747,1141.4143,
1299.836,1201.9871,
1296.926,1208.6601,
1294.015,1238.9977,
1291.105,1234.0862,
1288.194,1262.0047,
1285.283,1247.0539,
1282.373,1287.6092,
1279.462,1323.3871,
1276.552,1349.691,
1273.641,1372.4908,
1270.731,1371.544,
1267.820,1368.5107,
1264.909,1354.6127,
1261.999,1358.0489,
1259.088,1379.9398,
1256.178,1353.8434,
1253.267,1316.2606,
1250.356,1264.9375,
1247.446,1262.8518,
1244.535,1264.8438,
1241.625,1239.7167,
1238.714,1198.9456,
1235.804,1158.8713,
1232.893,1169.6229,
1229.982,1177.1955,
1227.072,1116.5396,
1224.161,1112.25,
1221.251,1090.6592,
1218.340,1079.3631,
1215.430,1059.6329,
1212.519,1044.3445,
1209.608,1032.6187,
1206.698,1018.1012,
1203.787,1029.6018,
1200.877,1019.039,
1197.966,1080.1819,
1195.055,1113.1137,
1192.145,1129.5202,
1189.234,1142.3331,
1186.324,1154.8871,
1183.413,1158.1586,
1180.503,1159.9833,
1177.592,1171.7147,
1174.681,1166.9144,
1171.771,1123.2088,
1168.860,1121.4226,
1165.950,1130.1192,
1163.039,1130.8532,
1160.129,1114.3239,
1157.218,1108.5381,
1154.307,1100.151,
1151.397,1079.8995,
1148.486,1093.6967,
1145.576,1111.4768,
1142.665,1070.6328,
1139.754,1101.4224,
1136.844,1110.6506,
1133.933,1103.0389,
1131.023,1107.164,
1128.112,1110.7511,
1125.202,1106.6703,
1122.291,1135.7487,
1119.380,1131.8429,
1116.470,1090.3641,
1113.559,1130.8717,
1110.649,1145.5597,
1107.738,1144.6425,
1104.828,1149.9076,
1101.917,1134.3969,
1099.006,1078.9303,
1096.096,1096.7875,
1093.185,1105.5676,
1090.275,1096.5388,
1087.364,1101.1112,
1084.453,1104.8125,
1081.543,1111.3851,
1078.632,1117.3696,
1075.722,1114.1903,
1072.811,1119.1187,
1069.901,1131.3444,
1066.990,1128.2083,
1064.079,1151.068,
1061.169,1153.9655,
1058.258,1149.3674,
1055.348,1158.7171,
1052.437,1179.1697,
1049.527,1202.7059,
1046.616,1162.7398,
1043.705,1188.3098,
1040.795,1185.7569,
1037.884,1180.2615,
1034.974,1176.4085,
1032.063,1174.2113,
1029.153,1191.7959,
1026.242,1179.6865,
1023.331,1202.5818,
1020.421,1218.4036,
1017.510,1227.1719,
1014.600,1245.0526,
1011.689,1252.1368,
1008.778,1222.7687,
1005.868,1243.4044,
1002.957,1260.6115,
1000.047,1302.562,
997.136,1342.505,
994.226,1353.5578,
991.315,1351.0346,
988.404,1354.0358,
985.494,1301.7103,
982.583,1322.2677,
979.673,1344.2728,
976.762,1323.0691,
973.852,1315.1843,
970.941,1323.1369,
968.030,1303.2442,
965.120,1286.429,
962.209,1329.0561,
959.299,1331.2923,
956.388,1335.9696,
953.477,1337.9618,
950.567,1345.5369,
947.656,1377.0191,
944.746,1352.382,
941.835,1374.7346,
938.925,1351.9538,
936.014,1347.8723,
933.103,1357.8969,
930.193,1347.0624,
927.282,1307.854,
924.372,1337.4502,
921.461,1308.112,
918.551,1280.5648,
915.640,1265.0006,
912.729,1256.8348,
909.819,1253.9198,
906.908,1281.7198,
903.998,1234.7328,
901.087,1241.3452,
898.176,1274.201,
895.266,1297.9326,
892.355,1298.8206,
889.445,1307.2133,
886.534,1342.3146,
883.624,1322.3367,
880.713,1320.9882,
877.802,1317.6596,
874.892,1277.5646,
871.981,1219.5928,
869.071,1149.4182,
866.160,1193.8267,
863.250,1248.0812,
860.339,1279.2616,
857.428,1295.5197,
854.518,1323.7947,
851.607,1238.9236,
848.697,1200.8642,
845.786,1193.8828,
842.875,1240.594,
839.965,1318.915,
837.054,1308.5291,
834.144,1333.3917,
831.233,1326.2509,
828.323,1332.6143,
825.412,1346.8598,
822.501,1350.1011,
819.591,1349.2747,
816.680,1378.0962,
813.770,1332.6238,
810.859,1311.1773,
807.949,1318.0134,
805.038,1306.2412,
802.127,1322.7037,
799.217,1319.0323,
796.306,1287.1687,
793.396,1282.1586,
790.485,1299.5104,
787.574,1259.6237,
784.664,1269.465,
781.753,1281.9857,
778.843,1295.5814,
775.932,1309.1882,
773.022,1319.2356,
770.111,1312.695,
767.200,1313.0113,
764.290,1300.5367,
761.379,1292.8255,
758.469,1305.7133,
755.558,1344.5692,
752.648,1321.7603,
749.737,1325.0835,
746.826,1338.5744,
743.916,1337.8018,
741.005,1311.8265,
738.095,1343.4897,
735.184,1321.5079,
732.274,1276.0149,
729.363,1236.8529,
726.452,1233.798,
723.542,1297.7401,
720.631,1269.1394,
717.721,1278.7267,
714.810,1299.7215,
711.899,1310.8144,
708.989,1313.2351,
706.078,1340.4943,
703.168,1355.1439,
700.257,1339.2088,
697.347,1305.7721,
694.436,1293.2936,
691.525,1294.9013,
688.615,1284.5585,
685.704,1289.9057,
682.794,1304.7819,
679.883,1302.457,
676.973,1284.8269,
674.062,1271.0407,
671.151,1282.7832,
668.241,1302.391,
665.330,1293.3634,
662.420,1295.7596,
659.509,1319.1075,
656.598,1329.6535,
653.688,1323.9496,
650.777,1316.628,
647.867,1327.7766,
644.956,1305.484,
642.046,1274.0807,
639.135,1249.9923,
636.224,1245.5962,
633.314,1314.6688,
630.403,1332.8412,
627.493,1327.873,
624.582,1323.3111,
621.672,1341.527,
618.761,1330.8509,
615.850,1343.2286,
612.940,1357.6161,
610.029,1354.2,
607.119,1317.877,
604.208,1343.3605,
601.297,1353.2559,
598.387,1350.9634,
595.476,1351.0671,
592.566,1359.7248,
589.655,1356.7148,
586.745,1339.4951,
583.834,1331.4488,
580.923,1371.2642,
578.013,1373.6184,
575.102,1347.2913,
572.192,1330.1083,
569.281,1348.1852,
566.371,1420.1866,
563.460,1384.2164,
560.549,1360.8899,
557.639,1353.9072,
554.728,1350.6934,
551.818,1357.7163,
548.907,1350.7182,
545.996,1362.3567,
543.086,1385.727,
540.175,1369.3754,
537.265,1376.9414,
534.354,1388.2771,
531.444,1389.8409,
528.533,1374.2985,
525.622,1389.0415,
522.712,1373.4406,
519.801,1376.1433,
516.891,1404.3191,
513.980,1424.4508,
511.070,1429.7717,
508.159,1456.0835,
505.248,1470.2312,
502.338,1432.3118,
499.427,1468.5879,
496.517,1478.25,
493.606,1479.596,
490.695,1484.7106,
487.785,1502.4158,
484.874,1498.1415,
481.964,1501.725,
479.053,1506.3665,
476.143,1481.7917,
473.232,1506.8679,
470.321,1503.6259,
467.411,1492.7956,
464.500,1502.61,
461.590,1477.3406,
458.679,1522.528,
455.769,1560.524,
452.858,1548.4207,
449.947,1530.8503,
447.037,1546.0596,
444.126,1559.3591,
441.216,1561.25,
438.305,1561.25,
435.395,1565.1838,
432.484,1556.8312,
429.573,1535.8599,
426.663,1508.4949,
423.752,1368.161,
420.842,1252.5343,
417.931,1189.2666,
415.020,1199.8836,
412.110,1344.3778,
409.199,1475.9785,
406.289,1544.9671,
403.378,1504.3192,
400.468,1524.731,
397.557,1520.4529,
394.646,1540.1474,
391.736,1621.0086,
388.825,1613.4662,
385.915,1609.6534,
383.004,1628.5236,
380.094,1676.2173,
377.183,1616.7716,
374.272,1608.9345,
371.362,1625.6685,
368.451,1646.1984,
365.541,1612.4243,
362.630,1650.7729,
359.719,1669.8282,
356.809,1622.6999,
353.898,1646.6614,
350.988,1680.3743,
348.077,1693.0857,
345.167,1667.6445,
342.256,1655.6914,
339.345,1659.1586,
336.435,1676.0761,
333.524,1704.5553,
330.614,1714.2424,
327.703,1704.4149,
324.793,1678.5871,
321.882,1639.3023,
318.971,1660.8621,
316.061,1675.5747,
313.150,1686.0214,
310.240,1694.9268,
307.329,1723.8355,
304.418,1742.0893,
301.508,1744.7361,
298.597,1724.0045,
295.687,1768.9796,
292.776,1767.9165,
289.866,1744.1244,
286.955,1786.2317,
284.044,1822.61,
281.134,1838.3986,
278.223,1837.729,
275.313,1854.6766,
272.402,1837.9184,
269.492,1808.6748,
266.581,1778.4061,
263.670,1794.5801,
260.760,1834.2497,
257.849,1875.232,
254.939,1900.9178,
252.028,1862.1624,
249.117,1838.5703,
246.207,1843.4029,
243.296,1901.9658,
240.386,1897.8021,
237.475,1896.8602,
234.565,1904.135,
231.654,1903.4046,
228.743,1899.7978,
225.833,1887.4933,
222.922,1866.7448,
220.012,1898.8013,
217.101,1886.6771,
214.191,1878.1121,
211.280,1927.5796,
208.369,1907.7015,
205.459,1886.668,
202.548,1865.2305,
199.638,1824.5941,
196.727,1879.6338,
193.816,1922.0357,
190.906,1912.8087,
187.995,1928.7372,
185.085,1924.7929,
182.174,1924.2401,
179.264,1961.1011,
176.353,1959.483,
173.442,1952.6244,
170.532,1944.5699,
167.621,1930.1503,
164.711,1884.2046,
161.800,1819.7074,
158.890,1741.9768,
155.979,1656.0846,
153.068,1499.9932,
150.158,1301.7977,
147.247,1163.9509,
144.337,962.61237,
141.426,751.38936,
138.516,553.52737,
135.605,408.24563,
132.694,281.43957,
129.784,176.28861,
126.873,109.78154,
123.963,74.056265,
121.052,49.601191,
118.141,30.325837,
115.231,33.802852,
112.320,31.437277,
109.410,24.750092,
106.499,16.916385,
103.589,14.689746,
100.678,13.435135,
97.767,11.302322,
94.857,18.17989,
91.946,14.800226,
89.036,5.3628979,
86.125,6.0721032,
83.215,6.25,
80.304,9.1231922,
77.393,17.621231,
74.483,13.00892,
71.572,7.7135352,
68.662,3.52707,
65.751,6.3528743,
62.840,8.695106,
59.930,10.25,
57.019,10.25,
54.109,11.444322,
51.198,11.646781,
48.288,10.2047,
45.377,4.5776759,
42.466,6.3721934,
39.556,12.019763,
36.645,10.615382,
33.735,7.1345092,
30.824,4.470887,
27.914,5.1720622,
25.003,7.1179124,
22.092,10.833236,
19.182,16.822072,
16.271,34.309325,
13.361,104.4687,
10.450,218.65326,
7.539,377.86917,
4.629,518.90072,
1.718,508.12109,
-1.192,168.6117,
-4.103,43.822289,
-7.013,-6.9258658,
-9.924,-2.75,
