,PL3242~1,
Raman shift [1/cm],Intensity,
3014.167,3.625,
3011.256,-3.7750859,
3008.346,290.11356,
3005.435,344.20097,
3002.525,356.26762,
2999.614,365.72369,
2996.704,371.89098,
2993.793,390.99654,
2990.882,398.14406,
2987.972,414.6704,
2985.061,421.8516,
2982.151,441.64183,
2979.240,450.53848,
2976.329,453.34906,
2973.419,476.31691,
2970.508,499.4083,
2967.598,506.67641,
2964.687,527.14742,
2961.777,534.77893,
2958.866,542.625,
2955.955,544.1427,
2953.045,587.34088,
2950.134,587.68915,
2947.224,608.82428,
2944.313,619.22044,
2941.403,633.18476,
2938.492,638.82828,
2935.581,667.32929,
2932.671,653.4276,
2929.760,661.81345,
2926.850,681.31861,
2923.939,684.18575,
2921.028,674.68964,
2918.118,709.42601,
2915.207,697.61209,
2912.297,693.58269,
2909.386,714.04105,
2906.476,721.43118,
2903.565,704.1576,
2900.654,695.56636,
2897.744,716.23526,
2894.833,688.92391,
2891.923,713.08661,
2889.012,690.28974,
2886.102,698.43716,
2883.191,697.62689,
2880.280,674.03169,
2877.370,648.20642,
2874.459,641.02144,
2871.549,695.42788,
2868.638,734.49096,
2865.727,722.60571,
2862.817,720.85229,
2859.906,734.82728,
2856.996,726.13632,
2854.085,737.70906,
2851.175,730.14909,
2848.264,716.21301,
2845.353,745.30149,
2842.443,723.03823,
2839.532,726.37118,
2836.622,700.71484,
2833.711,696.67681,
2830.801,706.61765,
2827.890,700.625,
2824.979,697.41502,
2822.069,728.4203,
2819.158,717.46598,
2816.248,727.87789,
2813.337,738.64573,
2810.427,736.58782,
2807.516,722.25813,
2804.605,729.80769,
2801.695,729.45395,
2798.784,729.77285,
2795.874,728.46931,
2792.963,726.48181,
2790.052,730.62243,
2787.142,718.46715,
2784.231,722.91537,
2781.321,731.68786,
2778.410,726.81537,
2775.500,723.98603,
2772.589,749.89335,
2769.678,747.76488,
2766.768,728.97059,
2763.857,760.09513,
2760.947,743.2038,
2758.036,760.70783,
2755.126,777.05449,
2752.215,766.64763,
2749.304,771.83722,
2746.394,761.10684,
2743.483,767.175,
2740.573,777.38389,
2737.662,779.1472,
2734.751,764.44042,
2731.841,792.0316,
2728.930,778.54442,
2726.020,793.63021,
2723.109,755.06901,
2720.199,805.4688,
2717.288,796.53741,
2714.377,784.30434,
2711.467,803.57555,
2708.556,822.40142,
2705.646,794.82209,
2702.735,822.63016,
2699.825,832.51593,
2696.914,831.95817,
2694.003,813.78109,
2691.093,817.60695,
2688.182,820.26204,
2685.272,824.27081,
2682.361,826.75382,
2679.450,844.71557,
2676.540,815.82824,
2673.629,830.93439,
2670.719,842.90966,
2667.808,816.9868,
2664.898,835.55982,
2661.987,860.95855,
2659.076,841.69398,
2656.166,860.70306,
2653.255,861.8342,
2650.345,867.04786,
2647.434,911.9671,
2644.524,878.99189,
2641.613,888.76831,
2638.702,891.70391,
2635.792,890.46847,
2632.881,889.73814,
2629.971,873.66518,
2627.060,890.29312,
2624.149,878.16563,
2621.239,882.13389,
2618.328,897.81964,
2615.418,877.96591,
2612.507,890.13878,
2609.597,903.25773,
2606.686,908.56072,
2603.775,902.99009,
2600.865,930.32811,
2597.954,928.19997,
2595.044,933.67814,
2592.133,932.63148,
2589.223,965.48081,
2586.312,939.91648,
2583.401,942.39876,
2580.491,944.73561,
2577.580,978.58044,
2574.670,961.03407,
2571.759,979.01884,
2568.848,956.33762,
2565.938,962.19639,
2563.027,969.08863,
2560.117,970.98948,
2557.206,986.89806,
2554.296,990.42363,
2551.385,981.12096,
2548.474,986.47705,
2545.564,992.56169,
2542.653,1012.8565,
2539.743,1023.5018,
2536.832,1018.5222,
2533.922,1028.6881,
2531.011,1034.5498,
2528.100,1029.496,
2525.190,1030.1119,
2522.279,1058.0471,
2519.369,1056.6633,
2516.458,1036.9607,
2513.548,1054.9975,
2510.637,1058.8709,
2507.726,1058.8778,
2504.816,1046.687,
2501.905,1042.0018,
2498.995,1030.6554,
2496.084,1057.4124,
2493.173,1042.8618,
2490.263,1037.434,
2487.352,1065.2494,
2484.442,1058.6186,
2481.531,1068.3643,
2478.621,1077.2317,
2475.710,1107.2033,
2472.799,1054.8447,
2469.889,1080.5309,
2466.978,1095.5735,
2464.068,1133.8474,
2461.157,1111.4276,
2458.247,1100.2869,
2455.336,1121.2199,
2452.425,1113.0354,
2449.515,1126.3797,
2446.604,1123.5674,
2443.694,1125.1135,
2440.783,1145.4381,
2437.872,1158.2604,
2434.962,1147.3116,
2432.051,1156.3042,
2429.141,1166.778,
2426.230,1141.32,
2423.320,1171.1257,
2420.409,1159.4003,
2417.498,1175.4621,
2414.588,1171.5299,
2411.677,1184.7285,
2408.767,1165.6841,
2405.856,1188.5988,
2402.946,1205.8395,
2400.035,1188.0475,
2397.124,1212.5341,
2394.214,1227.3006,
2391.303,1219.1223,
2388.393,1233.5274,
2385.482,1224.3741,
2382.571,1242.3728,
2379.661,1224.7643,
2376.750,1260.2013,
2373.840,1266.2719,
2370.929,1241.8849,
2368.019,1277.734,
2365.108,1274.7166,
2362.197,1272.4989,
2359.287,1267.2133,
2356.376,1275.6127,
2353.466,1268.899,
2350.555,1267.4006,
2347.645,1283.9681,
2344.734,1299.4776,
2341.823,1309.5587,
2338.913,1315.0922,
2336.002,1316.7039,
2333.092,1311.7976,
2330.181,1325.2592,
2327.270,1338.295,
2324.360,1335.2382,
2321.449,1339.1624,
2318.539,1338.9033,
2315.628,1343.2557,
2312.718,1333.4422,
2309.807,1353.1032,
2306.896,1358.3652,
2303.986,1348.9691,
2301.075,1362.6036,
2298.165,1362.0574,
2295.254,1368.4096,
2292.344,1370.1478,
2289.433,1382.6173,
2286.522,1389.3526,
2283.612,1389.3444,
2280.701,1409.8581,
2277.791,1411.4647,
2274.880,1412.3329,
2271.969,1431.5592,
2269.059,1436.3008,
2266.148,1436.1659,
2263.238,1453.6173,
2260.327,1462.3837,
2257.417,1473.8111,
2254.506,1486.9299,
2251.595,1490.3487,
2248.685,1476.7327,
2245.774,1480.0315,
2242.864,1503.1986,
2239.953,1495.8248,
2237.043,1527.7668,
2234.132,1516.986,
2231.221,1530.3098,
2228.311,1556.9806,
2225.400,1540.019,
2222.490,1556.7814,
2219.579,1582.9335,
2216.669,1600.6536,
2213.758,1610.2799,
2210.847,1600.086,
2207.937,1619.6071,
2205.026,1639.5116,
2202.116,1700.5273,
2199.205,1712.3612,
2196.294,1734.815,
2193.384,1783.0706,
2190.473,1808.7729,
2187.563,1868.6443,
2184.652,1887.2344,
2181.742,1981.1492,
2178.831,2035.4461,
2175.920,2139.5704,
2173.010,2250.5298,
2170.099,2358.5486,
2167.189,2510.3497,
2164.278,2632.4883,
2161.368,2787.6216,
2158.457,2937.2669,
2155.546,3108.9703,
2152.636,3258.9651,
2149.725,3356.7189,
2146.815,3481.6875,
2143.904,3567.7476,
2140.993,3625.1858,
2138.083,3622.6828,
2135.172,3626.9277,
2132.262,3611.8204,
2129.351,3542.5592,
2126.441,3423.3723,
2123.530,3328.7057,
2120.619,3135.5434,
2117.709,2933.4696,
2114.798,2733.132,
2111.888,2580.1027,
2108.977,2432.2541,
2106.067,2278.4856,
2103.156,2167.3197,
2100.245,2071.5817,
2097.335,1994.1957,
2094.424,1937.8907,
2091.514,1937.8211,
2088.603,1887.6896,
2085.692,1834.8891,
2082.782,1832.7092,
2079.871,1845.5538,
2076.961,1809.2081,
2074.050,1817.7826,
2071.140,1777.2805,
2068.229,1757.0742,
2065.318,1763.625,
2062.408,1748.3595,
2059.497,1759.0774,
2056.587,1754.637,
2053.676,1757.8743,
2050.766,1777.2393,
2047.855,1728.2231,
2044.944,1745.1667,
2042.034,1726.18,
2039.123,1740.0055,
2036.213,1746.3939,
2033.302,1757.864,
2030.391,1750.8118,
2027.481,1762.7102,
2024.570,1783.9532,
2021.660,1738.6406,
2018.749,1755.777,
2015.839,1756.9347,
2012.928,1735.0277,
2010.017,1741.3764,
2007.107,1773.2268,
2004.196,1761.2798,
2001.286,1762.1868,
1998.375,1755.8415,
1995.465,1764.8509,
1992.554,1710.6549,
1989.643,1753.7931,
1986.733,1740.625,
1983.822,1740.3429,
1980.912,1745.0018,
1978.001,1755.9645,
1975.090,1732.625,
1972.180,1719.1091,
1969.269,1715.9469,
1966.359,1725.2737,
1963.448,1716.8588,
1960.538,1742.8393,
1957.627,1750.5166,
1954.716,1710.8028,
1951.806,1698.1218,
1948.895,1713.4913,
1945.985,1751.3783,
1943.074,1735.3336,
1940.164,1720.8943,
1937.253,1724.3207,
1934.342,1720.1378,
1931.432,1721.0477,
1928.521,1708.9359,
1925.611,1702.625,
1922.700,1666.2189,
1919.790,1727.2485,
1916.879,1723.741,
1913.968,1717.6311,
1911.058,1709.2286,
1908.147,1704.0235,
1905.237,1703.647,
1902.326,1691.625,
1899.415,1688.3445,
1896.505,1678.884,
1893.594,1679.1677,
1890.684,1694.9517,
1887.773,1713.8661,
1884.863,1722.5384,
1881.952,1733.3899,
1879.041,1730.0601,
1876.131,1699.1217,
1873.220,1689.1383,
1870.310,1752.6742,
1867.399,1741.8809,
1864.489,1746.223,
1861.578,1713.1194,
1858.667,1728.9454,
1855.757,1740.6107,
1852.846,1744.3122,
1849.936,1721.8332,
1847.025,1757.0946,
1844.114,1772.8909,
1841.204,1795.4886,
1838.293,1781.6599,
1835.383,1770.462,
1832.472,1787.5207,
1829.562,1827.4815,
1826.651,1830.2143,
1823.740,1837.1844,
1820.830,1796.3254,
1817.919,1802.17,
1815.009,1789.5003,
1812.098,1860.2313,
1809.188,1810.4701,
1806.277,1813.4701,
1803.366,1853.7747,
1800.456,1862.625,
1797.545,1859.306,
1794.635,1828.56,
1791.724,1843.9356,
1788.813,1856.0255,
1785.903,1862.3149,
1782.992,1881.9171,
1780.082,1896.9389,
1777.171,1904.9585,
1774.261,1901.2449,
1771.350,1913.0168,
1768.439,1941.3482,
1765.529,1949.6269,
1762.618,1955.3444,
1759.708,1943.5163,
1756.797,1938.0871,
1753.887,1954.5492,
1750.976,1998.877,
1748.065,2004.0351,
1745.155,1990.4315,
1742.244,2014.4483,
1739.334,1989.2815,
1736.423,2029.5614,
1733.512,2047.0762,
1730.602,2048.3651,
1727.691,2101.8259,
1724.781,2086.1619,
1721.870,2089.6965,
1718.960,2097.5584,
1716.049,2122.1163,
1713.138,2148.8549,
1710.228,2135.2191,
1707.317,2142.3553,
1704.407,2171.4753,
1701.496,2210.1754,
1698.586,2206.2331,
1695.675,2221.532,
1692.764,2295.5226,
1689.854,2243.1801,
1686.943,2287.0062,
1684.033,2307.1531,
1681.122,2340.0643,
1678.211,2397.0825,
1675.301,2432.5171,
1672.390,2492.5831,
1669.480,2479.4272,
1666.569,2579.8438,
1663.659,2674.9843,
1660.748,2697.2613,
1657.837,2731.0903,
1654.927,2796.7421,
1652.016,2801.9409,
1649.106,2816.7793,
1646.195,2903.5841,
1643.285,2944.6074,
1640.374,3031.7992,
1637.463,3133.7511,
1634.553,3143.1816,
1631.642,3314.6999,
1628.732,3413.9286,
1625.821,3632.7591,
1622.911,3836.4698,
1620.000,3987.71,
1617.089,4235.63,
1614.179,4419.436,
1611.268,4689.4011,
1608.358,4878.8223,
1605.447,5007.3688,
1602.536,5124.5877,
1599.626,5225.5382,
1596.715,5287.1735,
1593.805,5138.7999,
1590.894,5080.1142,
1587.984,5054.7049,
1585.073,5061.8348,
1582.162,5021.0458,
1579.252,4976.6198,
1576.341,4979.0388,
1573.431,4980.0587,
1570.520,4932.2336,
1567.610,4907.9386,
1564.699,4874.8988,
1561.788,4817.1466,
1558.878,4747.7833,
1555.967,4625.5253,
1553.057,4533.1599,
1550.146,4450.0142,
1547.235,4321.7147,
1544.325,4277.8531,
1541.414,4224.0377,
1538.504,4131.2002,
1535.593,4090.3475,
1532.683,4019.1474,
1529.772,3940.4501,
1526.861,3891.3805,
1523.951,3817.0707,
1521.040,3785.9776,
1518.130,3761.1323,
1515.219,3755.065,
1512.309,3728.1069,
1509.398,3652.1288,
1506.487,3658.3494,
1503.577,3655.1591,
1500.666,3614.9388,
1497.756,3592.2519,
1494.845,3574.0641,
1491.934,3536.1777,
1489.024,3399.5038,
1486.113,3467.875,
1483.203,3423.8876,
1480.292,3386.2301,
1477.382,3404.8724,
1474.471,3364.5823,
1471.560,3305.6337,
1468.650,3222.3475,
1465.739,3221.728,
1462.829,3190.8796,
1459.918,3179.0672,
1457.008,3179.3786,
1454.097,3166.3979,
1451.186,3207.0525,
1448.276,3221.9901,
1445.365,3191.7024,
1442.455,3255.4254,
1439.544,3215.6776,
1436.633,3163.5873,
1433.723,3206.6371,
1430.812,3173.8965,
1427.902,3115.5495,
1424.991,3154.4078,
1422.081,3110.6686,
1419.170,3078.111,
1416.259,3039.6024,
1413.349,3035.4012,
1410.438,3023.3292,
1407.528,3020.2,
1404.617,2999.9013,
1401.707,2986.7448,
1398.796,3014.1144,
1395.885,3071.9756,
1392.975,3123.1879,
1390.064,3157.4006,
1387.154,3164.9125,
1384.243,3059.8668,
1381.332,3073.8343,
1378.422,3106.5809,
1375.511,3241.4774,
1372.601,3366.1939,
1369.690,3419.4861,
1366.780,3422.6648,
1363.869,3521.1524,
1360.958,3603.5197,
1358.048,3667.5635,
1355.137,3711.3955,
1352.227,3793.7953,
1349.316,3885.1234,
1346.406,3941.2197,
1343.495,4022.8846,
1340.584,4042.1231,
1337.674,4164.0154,
1334.763,4127.7774,
1331.853,4184.3385,
1328.942,4255.1137,
1326.032,4330.5059,
1323.121,4425.6492,
1320.210,4495.578,
1317.300,4516.625,
1314.389,4543.8616,
1311.479,4638.2167,
1308.568,4728.421,
1305.657,4755.7873,
1302.747,4840.4725,
1299.836,4947.5785,
1296.926,5074.4361,
1294.015,5199.4642,
1291.105,5312.9316,
1288.194,5527.3108,
1285.283,5601.2531,
1282.373,5723.898,
1279.462,5845.0749,
1276.552,5926.8614,
1273.641,5970.1434,
1270.731,5987.0325,
1267.820,6018.5089,
1264.909,6000.8222,
1261.999,5960.3893,
1259.088,6008.7317,
1256.178,5880.5872,
1253.267,5733.5721,
1250.356,5617.0636,
1247.446,5468.1468,
1244.535,5302.9065,
1241.625,5138.7289,
1238.714,4978.6753,
1235.804,4849.4698,
1232.893,4752.5218,
1229.982,4650.8653,
1227.072,4569.3872,
1224.161,4436.7089,
1221.251,4359.0203,
1218.340,4292.6869,
1215.430,4217.6274,
1212.519,4161.3257,
1209.608,4159.3438,
1206.698,4172.7309,
1203.787,4122.7657,
1200.877,4152.4081,
1197.966,4181.1812,
1195.055,4302.9331,
1192.145,4363.4462,
1189.234,4468.7535,
1186.324,4549.7189,
1183.413,4603.889,
1180.503,4654.127,
1177.592,4654.9779,
1174.681,4563.1182,
1171.771,4557.8323,
1168.860,4480.1335,
1165.950,4425.8602,
1163.039,4365.0384,
1160.129,4325.3395,
1157.218,4279.935,
1154.307,4235.3494,
1151.397,4188.0829,
1148.486,4096.527,
1145.576,4082.5434,
1142.665,4034.5961,
1139.754,4085.1381,
1136.844,4002.3838,
1133.933,3942.8568,
1131.023,3915.9342,
1128.112,3897.7683,
1125.202,3891.4173,
1122.291,3884.8676,
1119.380,3866.24,
1116.470,3928.8995,
1113.559,3943.5842,
1110.649,3902.4052,
1107.738,3900.5219,
1104.828,3926.947,
1101.917,3943.9507,
1099.006,3948.7386,
1096.096,3913.8826,
1093.185,3950.7587,
1090.275,3926.9191,
1087.364,3978.2593,
1084.453,3940.5041,
1081.543,3888.4339,
1078.632,3890.3259,
1075.722,3903.0698,
1072.811,3913.2527,
1069.901,3908.0131,
1066.990,3946.4249,
1064.079,3948.8199,
1061.169,4006.3781,
1058.258,4048.4257,
1055.348,4058.6142,
1052.437,4110.7247,
1049.527,4133.5383,
1046.616,4183.0616,
1043.705,4164.7313,
1040.795,4162.0945,
1037.884,4184.3488,
1034.974,4227.8325,
1032.063,4264.3328,
1029.153,4250.7289,
1026.242,4251.5938,
1023.331,4266.624,
1020.421,4300.2975,
1017.510,4334.9155,
1014.600,4399.4161,
1011.689,4471.4667,
1008.778,4508.7107,
1005.868,4627.0382,
1002.957,4784.483,
1000.047,4954.9531,
997.136,5087.152,
994.226,5165.2708,
991.315,5186.7092,
988.404,5147.8723,
985.494,5039.9729,
982.583,5010.85,
979.673,4981.0174,
976.762,4983.9541,
973.852,4988.6469,
970.941,4983.0322,
968.030,4976.966,
965.120,4950.7539,
962.209,4981.4454,
959.299,4949.796,
956.388,4954.2237,
953.477,4974.1463,
950.567,4970.1681,
947.656,4938.5082,
944.746,4922.3666,
941.835,5021.232,
938.925,5016.9869,
936.014,5004.1425,
933.103,4989.7358,
930.193,4949.6384,
927.282,4900.9505,
924.372,4814.6986,
921.461,4723.3574,
918.551,4681.8445,
915.640,4646.7034,
912.729,4586.1312,
909.819,4525.1878,
906.908,4590.0545,
903.998,4553.8568,
901.087,4632.0994,
898.176,4644.4494,
895.266,4648.0131,
892.355,4756.9333,
889.445,4817.3605,
886.534,4851.8547,
883.624,4898.3221,
880.713,4949.2671,
877.802,4984.8359,
874.892,4991.3158,
871.981,4975.1257,
869.071,4911.6343,
866.160,4880.6162,
863.250,4902.553,
860.339,4903.061,
857.428,4854.1989,
854.518,4854.8918,
851.607,4794.9828,
848.697,4758.4879,
845.786,4751.2957,
842.875,4760.1691,
839.965,4759.1053,
837.054,4716.2111,
834.144,4768.4225,
831.233,4763.2928,
828.323,4739.3041,
825.412,4688.4969,
822.501,4613.9441,
819.591,4599.0689,
816.680,4521.7018,
813.770,4470.0469,
810.859,4418.5869,
807.949,4393.1299,
805.038,4428.3263,
802.127,4425.8569,
799.217,4379.4108,
796.306,4350.5708,
793.396,4342.5716,
790.485,4334.6748,
787.574,4293.9364,
784.664,4302.1375,
781.753,4317.0447,
778.843,4358.4208,
775.932,4380.7363,
773.022,4358.374,
770.111,4414.7869,
767.200,4384.3659,
764.290,4366.1126,
761.379,4359.4434,
758.469,4346.7431,
755.558,4305.5034,
752.648,4301.4304,
749.737,4277.7774,
746.826,4245.5775,
743.916,4189.118,
741.005,4088.319,
738.095,3961.6662,
735.184,3779.301,
732.274,3709.9955,
729.363,3796.7261,
726.452,4003.1761,
723.542,4172.3393,
720.631,4235.9073,
717.721,4290.4328,
714.810,4321.2898,
711.899,4315.8428,
708.989,4273.8827,
706.078,4266.4133,
703.168,4243.9795,
700.257,4210.8215,
697.347,4175.6692,
694.436,4150.4941,
691.525,4145.6712,
688.615,4143.9961,
685.704,4139.7398,
682.794,4140.71,
679.883,4160.9133,
676.973,4167.3243,
674.062,4174.3677,
671.151,4167.1051,
668.241,4155.531,
665.330,4161.0578,
662.420,4149.0768,
659.509,4161.2284,
656.598,4162.701,
653.688,4148.104,
650.777,4131.3802,
647.867,4183.1415,
644.956,4164.9058,
642.046,4168.1841,
639.135,4196.1097,
636.224,4186.7046,
633.314,4202.5833,
630.403,4218.4492,
627.493,4237.7632,
624.582,4251.3873,
621.672,4232.3794,
618.761,4338.7764,
615.850,4336.2598,
612.940,4342.4861,
610.029,4412.1511,
607.119,4415.3096,
604.208,4419.1751,
601.297,4425.1117,
598.387,4423.8924,
595.476,4408.5108,
592.566,4396.7048,
589.655,4377.7799,
586.745,4361.6815,
583.834,4340.3283,
580.923,4296.4497,
578.013,4267.4145,
575.102,4298.0554,
572.192,4341.6309,
569.281,4367.3596,
566.371,4360.316,
563.460,4356.8031,
560.549,4410.6875,
557.639,4462.7166,
554.728,4449.0393,
551.818,4487.2748,
548.907,4519.3921,
545.996,4524.5165,
543.086,4517.1809,
540.175,4556.8918,
537.265,4587.1476,
534.354,4638.7636,
531.444,4685.4768,
528.533,4704.6533,
525.622,4761.2975,
522.712,4797.2884,
519.801,4830.9552,
516.891,4876.5885,
513.980,4955.5667,
511.070,5010.5206,
508.159,5119.4524,
505.248,5233.3993,
502.338,5285.6809,
499.427,5355.9176,
496.517,5402.9078,
493.606,5449.8619,
490.695,5498.2342,
487.785,5488.2269,
484.874,5511.1815,
481.964,5545.8042,
479.053,5572.8671,
476.143,5561.3477,
473.232,5541.2011,
470.321,5501.9975,
467.411,5457.7348,
464.500,5426.3426,
461.590,5454.6749,
458.679,5499.4947,
455.769,5536.8715,
452.858,5550.8752,
449.947,5534.0687,
447.037,5536.6926,
444.126,5546.1705,
441.216,5549.8043,
438.305,5516.2793,
435.395,5570.6323,
432.484,5586.6219,
429.573,5583.5527,
426.663,5660.3269,
423.752,5626.8721,
420.842,5625.1523,
417.931,5658.2769,
415.020,5709.8452,
412.110,5759.9115,
409.199,5827.0137,
406.289,5883.0526,
403.378,5896.6557,
400.468,5905.7277,
397.557,5880.3468,
394.646,5863.5908,
391.736,5889.1763,
388.825,5843.9224,
385.915,5813.5948,
383.004,5821.1829,
380.094,5882.462,
377.183,5977.274,
374.272,6066.0447,
371.362,6116.2704,
368.451,6119.5153,
365.541,6265.8698,
362.630,6315.4573,
359.719,6328.0645,
356.809,6342.2044,
353.898,6401.3595,
350.988,6346.5592,
348.077,6298.5318,
345.167,6327.625,
342.256,6327.625,
339.345,6357.9167,
336.435,6386.8457,
333.524,6393.7524,
330.614,6429.5199,
327.703,6461.6746,
324.793,6491.6789,
321.882,6520.7097,
318.971,6555.6515,
316.061,6622.8045,
313.150,6699.794,
310.240,6761.3896,
307.329,6801.5008,
304.418,6828.0238,
301.508,6845.7604,
298.597,6861.3091,
295.687,6875.4926,
292.776,6982.4589,
289.866,7174.3801,
286.955,7415.2046,
284.044,7609.6473,
281.134,7814.8222,
278.223,8046.3662,
275.313,8324.8975,
272.402,8442.2962,
269.492,8555.9169,
266.581,8726.7565,
263.670,8966.4253,
260.760,9088.3857,
257.849,9169.9865,
254.939,9265.3913,
252.028,9409.9463,
249.117,9455.0316,
246.207,9457.452,
243.296,9510.8907,
240.386,9444.7959,
237.475,9368.5905,
234.565,9290.6,
231.654,9182.5032,
228.743,9108.9926,
225.833,9006.3772,
222.922,8854.3975,
220.012,8785.1847,
217.101,8716.9884,
214.191,8631.3769,
211.280,8504.071,
208.369,8523.556,
205.459,8480.9315,
202.548,8408.7866,
199.638,8484.9798,
196.727,8502.3536,
193.816,8508.4414,
190.906,8517.6696,
187.995,8461.9197,
185.085,8501.732,
182.174,8573.1097,
179.264,8593.3472,
176.353,8578.9647,
173.442,8614.2196,
170.532,8679.0999,
167.621,8563.0228,
164.711,8442.8041,
161.800,8254.4886,
158.890,7937.8084,
155.979,7527.5463,
153.068,6940.0002,
150.158,6205.8964,
147.247,5413.995,
144.337,4491.5036,
141.426,3545.6087,
138.516,2622.2527,
135.605,1892.3555,
132.694,1298.5305,
129.784,837.62278,
126.873,545.13467,
123.963,367.82748,
121.052,257.09502,
118.141,202.83847,
115.231,157.1485,
112.320,122.52683,
109.410,97.488829,
106.499,81.109259,
103.589,82.107036,
100.678,79.920944,
97.767,64.991255,
94.857,63.932011,
91.946,52.337896,
89.036,36.528183,
86.125,42.201825,
83.215,42.032239,
80.304,40.146135,
77.393,38.729795,
74.483,45.17635,
71.572,41.377958,
68.662,28.34793,
65.751,25.522126,
62.840,27.515212,
59.930,31.561431,
57.019,35.086841,
54.109,34.430678,
51.198,30.307298,
48.288,22.641987,
45.377,24.752122,
42.466,25.212781,
39.556,24.509881,
36.645,23.807691,
33.735,19.471012,
30.824,15.404113,
27.914,14.702938,
25.003,21.474012,
22.092,25.625,
19.182,25.876711,
16.271,33.571103,
13.361,98.157865,
10.450,213.27339,
7.539,391.34381,
4.629,298.73358,
1.718,68.558615,
-1.192,-257.70503,
-4.103,-231.31602,
-7.013,-130.21879,
-9.924,0.625,
