,PL9D3A~1,
Raman shift [1/cm],Intensity,
3014.167,4,
3011.256,0.65003221,
3008.346,72.720689,
3005.435,81.848059,
3002.525,91.792506,
2999.614,94.287009,
2996.704,93.362886,
2993.793,90.866936,
2990.882,98.129765,
2987.972,113.96973,
2985.061,110.21675,
2982.151,108.59663,
2979.240,120.53231,
2976.329,116.98362,
2973.419,105.1846,
2970.508,115.86661,
2967.598,122.85663,
2964.687,125.2534,
2961.777,123.75206,
2958.866,137.00148,
2955.955,135,
2953.045,143.36689,
2950.134,140.75509,
2947.224,128.19928,
2944.313,132.30342,
2941.403,155.07208,
2938.492,149.23304,
2935.581,136.26869,
2932.671,158.12017,
2929.760,153.11922,
2926.850,152.73872,
2923.939,154.15887,
2921.028,151.83523,
2918.118,156.34131,
2915.207,165.23416,
2912.297,162.00846,
2909.386,161.20438,
2906.476,155.74439,
2903.565,173.4363,
2900.654,160.61173,
2897.744,165.88685,
2894.833,153.28873,
2891.923,165.02891,
2889.012,177.95954,
2886.102,160.10677,
2883.191,161.98962,
2880.280,148.13876,
2877.370,162.41858,
2874.459,156.8301,
2871.549,145.96058,
2868.638,168.09277,
2865.727,176.63078,
2862.817,179.10026,
2859.906,174.77208,
2856.996,173,
2854.085,173.88025,
2851.175,169.85545,
2848.264,173.20116,
2845.353,171.38821,
2842.443,182.61114,
2839.532,172.22389,
2836.622,170.33138,
2833.711,165.20723,
2830.801,174.39559,
2827.890,157.54196,
2824.979,155.14803,
2822.069,173.05686,
2819.158,179.52022,
2816.248,181.25289,
2813.337,175.56707,
2810.427,183.34573,
2807.516,166.79875,
2804.605,177.13942,
2801.695,167.69737,
2798.784,184.74331,
2795.874,178.4248,
2792.963,182,
2790.052,165.00365,
2787.142,188.19742,
2784.231,172.71121,
2781.321,172.81142,
2778.410,176.22461,
2775.500,187.29759,
2772.589,181.76911,
2769.678,185.56994,
2766.768,177.39027,
2763.857,193.52601,
2760.947,179.93065,
2758.036,187.63706,
2755.126,196.85897,
2752.215,187.21358,
2749.304,182.1277,
2746.394,199.94154,
2743.483,197.64999,
2740.573,197.22566,
2737.662,195.90384,
2734.751,204.32527,
2731.841,190.51282,
2728.930,201.428,
2726.020,193.77546,
2723.109,196.43292,
2720.199,201.21562,
2717.288,201.4562,
2714.377,194.90426,
2711.467,205.60659,
2708.556,206.08505,
2705.646,202.08449,
2702.735,212.17784,
2699.825,216.64179,
2696.914,206.76181,
2694.003,205.05528,
2691.093,212.74971,
2688.182,208.05482,
2685.272,212.03556,
2682.361,216.1179,
2679.450,223.11104,
2676.540,206.46745,
2673.629,221.03592,
2670.719,220.41591,
2667.808,221.38908,
2664.898,212.59727,
2661.987,222.83339,
2659.076,228.49138,
2656.166,229.66229,
2653.255,229.48639,
2650.345,219.13612,
2647.434,216,
2644.524,217.15828,
2641.613,234.08611,
2638.702,232.14203,
2635.792,225.09273,
2632.881,226.64892,
2629.971,236.8323,
2627.060,246.83406,
2624.149,235.94688,
2621.239,241.27223,
2618.328,224.10207,
2615.418,247.34091,
2612.507,229.72733,
2609.597,249.15369,
2606.686,242.41566,
2603.775,242.4008,
2600.865,228.94534,
2597.954,232.62288,
2595.044,246.32152,
2592.133,244.10823,
2589.223,251.69896,
2586.312,264.82915,
2583.401,261.75547,
2580.491,255.3702,
2577.580,248.0066,
2574.670,248.40242,
2571.759,240.10103,
2568.848,244.29283,
2565.938,253.80954,
2563.027,250.53637,
2560.117,248.63552,
2557.206,259.84871,
2554.296,246.60412,
2551.385,256.55393,
2548.474,237.85167,
2545.564,258.20861,
2542.653,260.85235,
2539.743,263.04929,
2536.832,261.26542,
2533.922,259.29962,
2531.011,276.62512,
2528.100,276.73172,
2525.190,278.41885,
2522.279,273.29653,
2519.369,258.39626,
2516.458,266.45113,
2513.548,258.62749,
2510.637,249.73779,
2507.726,267.86991,
2504.816,283.56257,
2501.905,280.75366,
2498.995,277.58197,
2496.084,274.06622,
2493.173,280.44735,
2490.263,273.61807,
2487.352,276.95827,
2484.442,281.12632,
2481.531,286.10114,
2478.621,274.39335,
2475.710,279.13035,
2472.799,293.53366,
2469.889,291.33242,
2466.978,300.60821,
2464.068,291.46557,
2461.157,292.15497,
2458.247,298.27943,
2455.336,303.95695,
2452.425,301.54245,
2449.515,303.52806,
2446.604,288.76962,
2443.694,285.06991,
2440.783,308.24212,
2437.872,300.03646,
2434.962,300.21198,
2432.051,299.95065,
2429.141,304.84702,
2426.230,313.47847,
2423.320,310.62849,
2420.409,306.81424,
2417.498,309.35957,
2414.588,323.08743,
2411.677,309.17929,
2408.767,312.73524,
2405.856,309,
2402.946,324.05987,
2400.035,327.40375,
2397.124,317.7754,
2394.214,324.75879,
2391.303,332.28184,
2388.393,320.76046,
2385.482,342.94252,
2382.571,329.86109,
2379.661,321.97669,
2376.750,334.52458,
2373.840,344.70623,
2370.929,342.04332,
2368.019,334.77093,
2365.108,341.55759,
2362.197,344.61095,
2359.287,333.42005,
2356.376,322.01585,
2353.466,339.83394,
2350.555,334.55513,
2347.645,340.59205,
2344.734,337.84792,
2341.823,345.85075,
2338.913,343.88807,
2336.002,347.62919,
2333.092,361.08021,
2330.181,361.43737,
2327.270,346.66006,
2324.360,346.07546,
2321.449,354.61565,
2318.539,355.95718,
2315.628,372.83094,
2312.718,378.35022,
2309.807,346.25434,
2306.896,375.74022,
2303.986,365.90904,
2301.075,372.80846,
2298.165,370.02862,
2295.254,374.82766,
2292.344,366.57673,
2289.433,375,
2286.522,382.70083,
2283.612,378.26912,
2280.701,369.53812,
2277.791,390.8779,
2274.880,369.56389,
2271.969,384.58436,
2269.059,381.02725,
2266.148,382.81135,
2263.238,388.29729,
2260.327,393.2759,
2257.417,399.37222,
2254.506,402.9544,
2251.595,401.56725,
2248.685,398.37118,
2245.774,415.82383,
2242.864,392.20446,
2239.953,421.26902,
2237.043,414.7275,
2234.132,417.34806,
2231.221,416.7106,
2228.311,419.60953,
2225.400,404.14073,
2222.490,410.2997,
2219.579,420.78666,
2216.669,433.48331,
2213.758,444.17517,
2210.847,465.73297,
2207.937,449.85508,
2205.026,474.77784,
2202.116,478.50636,
2199.205,489.46282,
2196.294,486.93399,
2193.384,517.70954,
2190.473,519.5622,
2187.563,552.15951,
2184.652,583.49388,
2181.742,578.84139,
2178.831,579.20619,
2175.920,582.57196,
2173.010,611.12642,
2170.099,598.93551,
2167.189,610.15786,
2164.278,633.3206,
2161.368,646.42792,
2158.457,667.20166,
2155.546,694.37792,
2152.636,698.94151,
2149.725,705.81878,
2146.815,705.10011,
2143.904,724.60594,
2140.993,741.32801,
2138.083,743.5289,
2135.172,739.45382,
2132.262,739.36708,
2129.351,728.44823,
2126.441,727.767,
2123.530,668.94388,
2120.619,662.62391,
2117.709,640.55193,
2114.798,597.17301,
2111.888,586.97505,
2108.977,568.19866,
2106.067,526.14813,
2103.156,528.31769,
2100.245,505.98369,
2097.335,482.89005,
2094.424,497.29822,
2091.514,483.86566,
2088.603,486.13369,
2085.692,482.45719,
2082.782,469.20896,
2079.871,467.57176,
2076.961,471.80627,
2074.050,481.33939,
2071.140,485.26458,
2068.229,470.45573,
2065.318,474.35851,
2062.408,476.10591,
2059.497,468.39881,
2056.587,465.16284,
2053.676,472.16617,
2050.766,478.6151,
2047.855,460.77217,
2044.944,458.3205,
2042.034,484.23109,
2039.123,453.9596,
2036.213,466.36229,
2033.302,469.06549,
2030.391,467.52506,
2027.481,483.92675,
2024.570,468.45763,
2021.660,485.69916,
2018.749,485.55761,
2015.839,519.75393,
2012.928,485.77013,
2010.017,485,
2007.107,481.65046,
2004.196,473.41665,
2001.286,454.89402,
1998.375,450.56693,
1995.465,475.81161,
1992.554,480.24707,
1989.643,492.55067,
1986.733,472.55526,
1983.822,452.36041,
1980.912,481.81162,
1978.001,470.05937,
1975.090,465.21068,
1972.180,463.89627,
1969.269,473.79313,
1966.359,466.02686,
1963.448,436.35402,
1960.538,428.81151,
1957.627,468.23223,
1954.716,475.91382,
1951.806,452.24195,
1948.895,474.72472,
1945.985,464.16176,
1943.074,453.3543,
1940.164,439.01912,
1937.253,439.89979,
1934.342,441.90589,
1931.432,444.2776,
1928.521,456.59758,
1925.611,454.39614,
1922.700,458.54005,
1919.790,437.60719,
1916.879,427.48825,
1913.968,472.94344,
1911.058,441.38739,
1908.147,460.20291,
1905.237,453.61028,
1902.326,450.10963,
1899.415,443.20608,
1896.505,424.43985,
1893.594,446.44821,
1890.684,451.77129,
1887.773,438.06914,
1884.863,437.46469,
1881.952,447.67242,
1879.041,439.65265,
1876.131,461.24574,
1873.220,435.61934,
1870.310,437.49775,
1867.399,432.09596,
1864.489,440.57162,
1861.578,434.76337,
1858.667,481.73353,
1855.757,474.8401,
1852.846,434.77434,
1849.936,461.69668,
1847.025,475.82971,
1844.114,456.04709,
1841.204,449.05595,
1838.293,445.96674,
1835.383,472.01149,
1832.472,484.11652,
1829.562,483.88958,
1826.651,489.20533,
1823.740,492.27203,
1820.830,488.1417,
1817.919,487.81438,
1815.009,473.44402,
1812.098,481.77165,
1809.188,477.37211,
1806.277,480.91147,
1803.366,473.91682,
1800.456,470.75863,
1797.545,502.4751,
1794.635,513.64595,
1791.724,496.94167,
1788.813,521.99357,
1785.903,501.06202,
1782.992,510.33983,
1780.082,526.82804,
1777.171,497.33887,
1774.261,504.12972,
1771.350,478.417,
1768.439,499.40753,
1765.529,515.99718,
1762.618,497.51687,
1759.708,494.9565,
1756.797,498.37879,
1753.887,548.13119,
1750.976,554.10668,
1748.065,513.72351,
1745.155,538.0449,
1742.244,557.01359,
1739.334,523.81883,
1736.423,533.0224,
1733.512,536.4512,
1730.602,544.47224,
1727.691,544.92936,
1724.781,546.35973,
1721.870,580.8002,
1718.960,565.15527,
1716.049,556.6441,
1713.138,603.02477,
1710.228,603.16733,
1707.317,579.00114,
1704.407,567.01603,
1701.496,582.40786,
1698.586,592.31586,
1695.675,540.60032,
1692.764,596.64347,
1689.854,581.82282,
1686.943,629.31372,
1684.033,621.24836,
1681.122,642.62617,
1678.211,671.724,
1675.301,657.04625,
1672.390,648.17047,
1669.480,705.1444,
1666.569,722.87304,
1663.659,712.90201,
1660.748,708.33044,
1657.837,775.36578,
1654.927,747.74973,
1652.016,778.36822,
1649.106,752.87759,
1646.195,750.30173,
1643.285,843.1569,
1640.374,807.85714,
1637.463,848.68455,
1634.553,886.29556,
1631.642,906.64062,
1628.732,965.24294,
1625.821,1006.0301,
1622.911,1051.7408,
1620.000,1138.8913,
1617.089,1199.7861,
1614.179,1283.6029,
1611.268,1344.7321,
1608.358,1412.7692,
1605.447,1436.743,
1602.536,1492.0495,
1599.626,1519.9183,
1596.715,1486.6036,
1593.805,1479.4227,
1590.894,1429.6825,
1587.984,1480.1621,
1585.073,1426.0396,
1582.162,1409.1558,
1579.252,1369.5398,
1576.341,1361.8011,
1573.431,1355.7346,
1570.520,1307.373,
1567.610,1278.8429,
1564.699,1266.0247,
1561.788,1292.5772,
1558.878,1261.9859,
1555.967,1209.6274,
1553.057,1200.0172,
1550.146,1190.48,
1547.235,1132.4126,
1544.325,1115.5315,
1541.414,1112.7983,
1538.504,1074.3375,
1535.593,1086.5448,
1532.683,1101.0303,
1529.772,1077.0187,
1526.861,1083.414,
1523.951,1085.5091,
1521.040,1090.5366,
1518.130,1094.0945,
1515.219,1080.9192,
1512.309,1103.3018,
1509.398,1090.7262,
1506.487,1094.237,
1503.577,1031.1183,
1500.666,1032.6036,
1497.756,1084.5423,
1494.845,1078.0795,
1491.934,1055.8929,
1489.024,1023.1682,
1486.113,1010.8734,
1483.203,1073.0599,
1480.292,1037.7259,
1477.382,1000.9031,
1474.471,974.04815,
1471.560,966.54867,
1468.650,991.28113,
1465.739,966.49206,
1462.829,975.84087,
1459.918,1013.1272,
1457.008,1036.1386,
1454.097,1008.9517,
1451.186,933.73114,
1448.276,917.25548,
1445.365,958.391,
1442.455,926.70713,
1439.544,907.8329,
1436.633,920.65939,
1433.723,879.39499,
1430.812,832.40894,
1427.902,825.4059,
1424.991,842.46562,
1422.081,791.62128,
1419.170,767.12661,
1416.259,790.73208,
1413.349,777.36373,
1410.438,778.69758,
1407.528,771.70013,
1404.617,773.04554,
1401.707,783.82935,
1398.796,772.00704,
1395.885,793.09876,
1392.975,821.3113,
1390.064,753.1073,
1387.154,706.82187,
1384.243,656.20248,
1381.332,549.52524,
1378.422,614.54067,
1375.511,702.59808,
1372.601,788.78447,
1369.690,878.29336,
1366.780,922.09734,
1363.869,930,
1360.958,947.16562,
1358.048,931.67422,
1355.137,975.45366,
1352.227,1037.3203,
1349.316,1043.2782,
1346.406,1046.9828,
1343.495,1056.5261,
1340.584,1033.4643,
1337.674,1036.36,
1334.763,1081.2823,
1331.853,1088.7001,
1328.942,1130.8048,
1326.032,1159.653,
1323.121,1139.8072,
1320.210,1183.6077,
1317.300,1220.6242,
1314.389,1212.0691,
1311.479,1223.6503,
1308.568,1277.0371,
1305.657,1327.0146,
1302.747,1360.7212,
1299.836,1344.0394,
1296.926,1431.4528,
1294.015,1462.7098,
1291.105,1493.0579,
1288.194,1528.9497,
1285.283,1545.592,
1282.373,1597.7264,
1279.462,1626.549,
1276.552,1620.496,
1273.641,1614.898,
1270.731,1613.5895,
1267.820,1611.5173,
1264.909,1643.1538,
1261.999,1637.1997,
1259.088,1642.6725,
1256.178,1630.1532,
1253.267,1548.9789,
1250.356,1524.3227,
1247.446,1522.2398,
1244.535,1479.8707,
1241.625,1405.7038,
1238.714,1373.8795,
1235.804,1399.8253,
1232.893,1361.2589,
1229.982,1320.2947,
1227.072,1299.4726,
1224.161,1264.3798,
1221.251,1245.3433,
1218.340,1202.7791,
1215.430,1164.9334,
1212.519,1147.8307,
1209.608,1145.4175,
1206.698,1155.9151,
1203.787,1181.1809,
1200.877,1193.2786,
1197.966,1197.7744,
1195.055,1232.9832,
1192.145,1296.8534,
1189.234,1340.0053,
1186.324,1375.3658,
1183.413,1390.9086,
1180.503,1388.0118,
1177.592,1387.909,
1174.681,1373.9041,
1171.771,1324.6497,
1168.860,1309.4672,
1165.950,1295.9057,
1163.039,1296.492,
1160.129,1305.6681,
1157.218,1313.8844,
1154.307,1320.3392,
1151.397,1336.4272,
1148.486,1369.147,
1145.576,1387.0385,
1142.665,1387.9265,
1139.754,1346.5049,
1136.844,1309.6882,
1133.933,1317.9412,
1131.023,1342.8582,
1128.112,1347.5011,
1125.202,1324.8213,
1122.291,1297.0027,
1119.380,1303.7315,
1116.470,1276.3731,
1113.559,1306.2497,
1110.649,1314.0355,
1107.738,1278.1718,
1104.828,1258.8186,
1101.917,1262.1652,
1099.006,1238.0308,
1096.096,1255.2261,
1093.185,1226.2521,
1090.275,1233.7112,
1087.364,1242.8612,
1084.453,1254.437,
1081.543,1270.6409,
1078.632,1292.0884,
1075.722,1313.1284,
1072.811,1315.4559,
1069.901,1279.6522,
1066.990,1326.3082,
1064.079,1342.0831,
1061.169,1319.1464,
1058.258,1314.2455,
1055.348,1327.945,
1052.437,1309.8521,
1049.527,1303.1944,
1046.616,1282.3425,
1043.705,1271.5216,
1040.795,1284.3241,
1037.884,1306.1492,
1034.974,1315.6482,
1032.063,1306.1847,
1029.153,1292.8575,
1026.242,1283.343,
1023.331,1316.3312,
1020.421,1341.1246,
1017.510,1356.2836,
1014.600,1374.265,
1011.689,1407.249,
1008.778,1441.6957,
1005.868,1405.1467,
1002.957,1421.4935,
1000.047,1475.688,
997.136,1507.9212,
994.226,1513.4308,
991.315,1500.4753,
988.404,1469.3266,
985.494,1409.4028,
982.583,1427.3905,
979.673,1405.8557,
976.762,1401.6968,
973.852,1401.4639,
970.941,1402.3349,
968.030,1418.4567,
965.120,1437.8496,
962.209,1402.0429,
959.299,1421.497,
956.388,1430.3201,
953.477,1439.2757,
950.567,1452.4315,
947.656,1443.7664,
944.746,1411.4833,
941.835,1444.0122,
938.925,1446.0775,
936.014,1435.9184,
933.103,1436.0619,
930.193,1440.0109,
927.282,1404.1375,
924.372,1406.6743,
921.461,1376.8076,
918.551,1333.4677,
915.640,1324.4481,
912.729,1344.5367,
909.819,1342.6639,
906.908,1317.3911,
903.998,1324.749,
901.087,1319.3619,
898.176,1329.793,
895.266,1355.2046,
892.355,1384.7377,
889.445,1436.7723,
886.534,1427.8164,
883.624,1430.7098,
880.713,1425.855,
877.802,1421.4317,
874.892,1430.78,
871.981,1451.1517,
869.071,1415.2289,
866.160,1420.7293,
863.250,1428.621,
860.339,1422.0506,
857.428,1407.1479,
854.518,1412.0963,
851.607,1415.4246,
848.697,1433.8832,
845.786,1419.1655,
842.875,1402.5441,
839.965,1420.8789,
837.054,1466.0558,
834.144,1471.0283,
831.233,1458.6676,
828.323,1443.0977,
825.412,1433.0341,
822.501,1440.6811,
819.591,1494.397,
816.680,1426.2883,
813.770,1409,
810.859,1408.0975,
807.949,1408.6537,
805.038,1412.8009,
802.127,1411.1546,
799.217,1409.5092,
796.306,1399.9189,
793.396,1388.3282,
790.485,1383.3164,
787.574,1392.4048,
784.664,1403.0662,
781.753,1390.2384,
778.843,1398.1926,
775.932,1417.0864,
773.022,1423.8732,
770.111,1423.0556,
767.200,1423.7613,
764.290,1415.9097,
761.379,1411.9693,
758.469,1408.5127,
755.558,1383.2463,
752.648,1357.9936,
749.737,1343.861,
746.826,1292.3779,
743.916,1214.9867,
741.005,1126.4973,
738.095,891.86486,
735.184,679.5146,
732.274,670.15948,
729.363,822.48076,
726.452,1044.5211,
723.542,1241.2037,
720.631,1304.7532,
717.721,1340.4767,
714.810,1345.483,
711.899,1333.0099,
708.989,1345.9207,
706.078,1322.7622,
703.168,1325.5011,
700.257,1334.7131,
697.347,1352.8247,
694.436,1397.5379,
691.525,1343.683,
688.615,1330.7422,
685.704,1336.9071,
682.794,1342.7234,
679.883,1332.3244,
676.973,1339.5367,
674.062,1332.0669,
671.151,1355.4915,
668.241,1396.5267,
665.330,1410.3193,
662.420,1395.9421,
659.509,1358.7137,
656.598,1371.889,
653.688,1401.4275,
650.777,1356.5671,
647.867,1373.2899,
644.956,1388.1447,
642.046,1393.3416,
639.135,1392.6769,
636.224,1398.8806,
633.314,1375.0625,
630.403,1413.3408,
627.493,1436.3185,
624.582,1415.348,
621.672,1376.5403,
618.761,1418.3165,
615.850,1403.8996,
612.940,1395.0029,
610.029,1422.3946,
607.119,1424.7635,
604.208,1396.5995,
601.297,1382.5074,
598.387,1393.1851,
595.476,1421.0233,
592.566,1368.2897,
589.655,1384.2677,
586.745,1379.3394,
583.834,1352.365,
580.923,1342.8104,
578.013,1311.4211,
575.102,1345.4455,
572.192,1380.5728,
569.281,1393.6082,
566.371,1430.3915,
563.460,1462.2187,
560.549,1451.5852,
557.639,1434.177,
554.728,1454.3505,
551.818,1507.4119,
548.907,1519.6094,
545.996,1515.3345,
543.086,1507.4967,
540.175,1505.1608,
537.265,1536.8683,
534.354,1531.9425,
531.444,1515.836,
528.533,1515.7375,
525.622,1483.9237,
522.712,1510.9782,
519.801,1522.3074,
516.891,1510.0082,
513.980,1534.7856,
511.070,1537,
508.159,1547.984,
505.248,1567.5109,
502.338,1589.6837,
499.427,1578.8781,
496.517,1590.1414,
493.606,1600.6635,
490.695,1600.7489,
487.785,1606.1374,
484.874,1601.184,
481.964,1579.7278,
479.053,1558.0449,
476.143,1574.9401,
473.232,1572.403,
470.321,1577.3255,
467.411,1580.7076,
464.500,1570.7867,
461.590,1562.3635,
458.679,1557.2485,
455.769,1563.8218,
452.858,1585.227,
449.947,1606.6171,
447.037,1598.258,
444.126,1591.4788,
441.216,1596.2489,
438.305,1609.2017,
435.395,1611.6556,
432.484,1610.7497,
429.573,1611.3075,
426.663,1621.1894,
423.752,1631.0664,
420.842,1666.968,
417.931,1691.4255,
415.020,1643.6489,
412.110,1682.9703,
409.199,1699.467,
406.289,1695.3425,
403.378,1677.9616,
400.468,1666.6217,
397.557,1666.599,
394.646,1646.0282,
391.736,1578.0302,
388.825,1485.2597,
385.915,1451.0815,
383.004,1447.2843,
380.094,1456.4934,
377.183,1524.9688,
374.272,1603.7058,
371.362,1673.7199,
368.451,1720.8176,
365.541,1717.8155,
362.630,1721.3699,
359.719,1733.5831,
356.809,1751.508,
353.898,1710.3241,
350.988,1700.085,
348.077,1702.1616,
345.167,1704.9622,
342.256,1704.2151,
339.345,1714.6287,
336.435,1722.0569,
333.524,1717.1644,
330.614,1722.3805,
327.703,1747.1032,
324.793,1782.4051,
321.882,1820.9585,
318.971,1803.8594,
316.061,1804.3481,
313.150,1801.7619,
310.240,1772.0773,
307.329,1831.0295,
304.418,1820.3476,
301.508,1776.8338,
298.597,1768.6893,
295.687,1661.6733,
292.776,1651.8336,
289.866,1739.3596,
286.955,1883.4111,
284.044,2017.8499,
281.134,2127.694,
278.223,2213.1014,
275.313,2288.9975,
272.402,2354.9577,
269.492,2414.764,
266.581,2471.728,
263.670,2551.8627,
260.760,2575,
257.849,2597.0699,
254.939,2660.1838,
252.028,2666.0669,
249.117,2636.4789,
246.207,2605.2506,
243.296,2629.4078,
240.386,2583.6786,
237.475,2547.627,
234.565,2527.0888,
231.654,2502.2558,
228.743,2471.1084,
225.833,2423.3397,
222.922,2358,
220.012,2358,
217.101,2334.4456,
214.191,2305.4102,
211.280,2290.1335,
208.369,2262.7603,
205.459,2225.6457,
202.548,2196.3956,
199.638,2239.2089,
196.727,2261.253,
193.816,2259.8622,
190.906,2234.6857,
187.995,2254.2343,
185.085,2249.1786,
182.174,2236.3918,
179.264,2237.8373,
176.353,2303.3594,
173.442,2325.4977,
170.532,2288.743,
167.621,2192.1323,
164.711,2212.25,
161.800,2196.2453,
158.890,2027.1093,
155.979,1903.9684,
153.068,1782.3869,
150.158,1635.3169,
147.247,1366.8027,
144.337,1129.1131,
141.426,897.0222,
138.516,659.7312,
135.605,487.09382,
132.694,337.74656,
129.784,214.66933,
126.873,136.00505,
123.963,96.099054,
121.052,68.368166,
118.141,44.095499,
115.231,36.183726,
112.320,30.458184,
109.410,26.590934,
106.499,24.454469,
103.589,25.120509,
100.678,21.654053,
97.767,10.279052,
94.857,16.236901,
91.946,17.387557,
89.036,14.43551,
86.125,10.889484,
83.215,11.061841,
80.304,13.197163,
77.393,16.738013,
74.483,15.68973,
71.572,10.651775,
68.662,3.0692675,
65.751,3.7757186,
62.840,3.036596,
59.930,3.3110034,
57.019,8.2465773,
54.109,6.6113566,
51.198,5,
48.288,5.0169873,
45.377,7.1271215,
42.466,8.4122193,
39.556,9.1151186,
36.645,9.8173088,
33.735,11.557745,
30.824,14.325322,
27.914,18.532373,
25.003,18.377363,
22.092,23.166473,
19.182,34.869549,
16.271,61.450174,
13.361,232.57549,
10.450,600.8334,
7.539,1459.7613,
4.629,2289.1655,
1.718,2751.5882,
-1.192,2407.8959,
-4.103,1483.4869,
-7.013,634.9954,
-9.924,-6,
