,PLFC08~1,
Raman shift [1/cm],Intensity,
3014.167,2.125,
3011.256,-1.2750859,
3008.346,360.94005,
3005.435,434.5137,
3002.525,450.16247,
2999.614,460.56005,
2996.704,471.61262,
2993.793,469.07892,
2990.882,504.68988,
2987.972,502.19058,
2985.061,519.5585,
2982.151,540.97711,
2979.240,578.80846,
2976.329,587.14138,
2973.419,599.1861,
2970.508,625.14162,
2967.598,647.16918,
2964.687,645.79552,
2961.777,651.53512,
2958.866,677.45487,
2955.955,694.26658,
2953.045,723.39122,
2950.134,736.49821,
2947.224,758.69438,
2944.313,786.21474,
2941.403,796.125,
2938.492,816.58301,
2935.581,828.71641,
2932.671,834.48119,
2929.760,817.79808,
2926.850,851.40056,
2923.939,842.88669,
2921.028,862.55467,
2918.118,887.82147,
2915.207,863.2453,
2912.297,913.9219,
2909.386,899.67246,
2906.476,886.18679,
2903.565,890.77093,
2900.654,890.35956,
2897.744,877.27587,
2894.833,889.125,
2891.923,898.0449,
2889.012,880.125,
2886.102,890.99796,
2883.191,897.12594,
2880.280,854.14893,
2877.370,861.06107,
2874.459,839.00553,
2871.549,875.9412,
2868.638,912.58066,
2865.727,904.28651,
2862.817,916.125,
2859.906,905.97399,
2856.996,926.63179,
2854.085,933.92754,
2851.175,929.88408,
2848.264,915.125,
2845.353,920.26232,
2842.443,889.11107,
2839.532,908.11003,
2836.622,904.84961,
2833.711,879.50332,
2830.801,897.80074,
2827.890,889.78932,
2824.979,880.05099,
2822.069,890.38656,
2819.158,907.80424,
2816.248,919.29684,
2813.337,924.5372,
2810.427,925.02995,
2807.516,920.60719,
2804.605,926.69471,
2801.695,916.03288,
2798.784,914.90323,
2795.874,929.26484,
2792.963,922.48191,
2790.052,901.12843,
2787.142,912.15123,
2784.231,922.99454,
2781.321,917.06214,
2778.410,912.80521,
2775.500,908.125,
2772.589,926.39335,
2769.678,928.44233,
2766.768,933.95023,
2763.857,937.70496,
2760.947,958.20065,
2758.036,943.01656,
2755.126,972.16774,
2752.215,968.63843,
2749.304,952.3804,
2746.394,975.08074,
2743.483,967.12491,
2740.573,963.83287,
2737.662,956.49629,
2734.751,982.68324,
2731.841,974.20558,
2728.930,983.75644,
2726.020,971.01273,
2723.109,990.51641,
2720.199,997.63434,
2717.288,1004.2126,
2714.377,1017.3165,
2711.467,1034.2733,
2708.556,1025.2307,
2705.646,1025.6179,
2702.735,989.81058,
2699.825,1020.8414,
2696.914,1046.2682,
2694.003,1025.5933,
2691.093,1040.196,
2688.182,1037.5257,
2685.272,1041.9742,
2682.361,1031.7069,
2679.450,1045.6312,
2676.540,1055.434,
2673.629,1041.0397,
2670.719,1064.9938,
2667.808,1026.6813,
2664.898,1053.7096,
2661.987,1056.992,
2659.076,1064.7608,
2656.166,1088.6098,
2653.255,1100.125,
2650.345,1086.0125,
2647.434,1124.0104,
2644.524,1111.7389,
2641.613,1115.9251,
2638.702,1097.4564,
2635.792,1109.9685,
2632.881,1106.3513,
2629.971,1117.8298,
2627.060,1114.9572,
2624.149,1120.9094,
2621.239,1119.3794,
2618.328,1129.7184,
2615.418,1136.8204,
2612.507,1127.2278,
2609.597,1140.9314,
2606.686,1151.7093,
2603.775,1166.6091,
2600.865,1177.067,
2597.954,1171.2749,
2595.044,1189.1693,
2592.133,1184.0168,
2589.223,1191.5829,
2586.312,1196.5169,
2583.401,1215.3075,
2580.491,1232.1106,
2577.580,1240.0771,
2574.670,1206.4205,
2571.759,1206.2363,
2568.848,1223.5339,
2565.938,1229.8393,
2563.027,1226.7591,
2560.117,1253.4522,
2557.206,1243.8114,
2554.296,1252.006,
2551.385,1233.877,
2548.474,1242.4585,
2545.564,1253.8401,
2542.653,1262.7458,
2539.743,1279.4833,
2536.832,1287.3493,
2533.922,1284.5192,
2531.011,1311.5998,
2528.100,1311.1947,
2525.190,1282.1984,
2522.279,1302.8905,
2519.369,1297.8231,
2516.458,1304.9083,
2513.548,1307.8887,
2510.637,1320.4812,
2507.726,1287.3072,
2504.816,1296.9367,
2501.905,1305.1104,
2498.995,1310.3334,
2496.084,1298.9892,
2493.173,1336.0197,
2490.263,1310.395,
2487.352,1330.0415,
2484.442,1340.0864,
2481.531,1364.3325,
2478.621,1356.8217,
2475.710,1353.171,
2472.799,1355.1789,
2469.889,1347.9727,
2466.978,1366.8362,
2464.068,1380.7441,
2461.157,1392.6274,
2458.247,1395.8749,
2455.336,1399.9743,
2452.425,1413.3656,
2449.515,1407.8236,
2446.604,1422.5421,
2443.694,1419.3577,
2440.783,1451.464,
2437.872,1445.5261,
2434.962,1454.8116,
2432.051,1446.736,
2429.141,1453.5131,
2426.230,1424.4719,
2423.320,1457.3247,
2420.409,1478.2017,
2417.498,1483.552,
2414.588,1440.3381,
2411.677,1494.9775,
2408.767,1472.9783,
2405.856,1508.5059,
2402.946,1512.2796,
2400.035,1512.7212,
2397.124,1526.1143,
2394.214,1522.0178,
2391.303,1535.4841,
2388.393,1549.0832,
2385.482,1543.5216,
2382.571,1541.1378,
2379.661,1549.8922,
2376.750,1572.5462,
2373.840,1572.125,
2370.929,1578.06,
2368.019,1598.0997,
2365.108,1609.6852,
2362.197,1585.5414,
2359.287,1585.52,
2356.376,1616.0722,
2353.466,1617.9589,
2350.555,1609.52,
2347.645,1603.0204,
2344.734,1624.9177,
2341.823,1645.8928,
2338.913,1673.0205,
2336.002,1645.6872,
2333.092,1660.7571,
2330.181,1673.4242,
2327.270,1694.0799,
2324.360,1666.6792,
2321.449,1685.3869,
2318.539,1684.5073,
2315.628,1684.0071,
2312.718,1715.2726,
2309.807,1723.3489,
2306.896,1706.9357,
2303.986,1726.2094,
2301.075,1719.891,
2298.165,1704.7593,
2295.254,1719.7157,
2292.344,1734.6478,
2289.433,1751.4841,
2286.522,1752.4777,
2283.612,1750.5753,
2280.701,1768.5689,
2277.791,1774.4875,
2274.880,1803.0591,
2271.969,1787.7382,
2269.059,1788.8008,
2266.148,1815.6592,
2263.238,1832.3219,
2260.327,1838.9527,
2257.417,1852.9717,
2254.506,1866.1706,
2251.595,1852.1433,
2248.685,1837.8615,
2245.774,1863.3553,
2242.864,1894.4217,
2239.953,1907.8906,
2237.043,1890.9043,
2234.132,1907.5431,
2231.221,1930.784,
2228.311,1929.9059,
2225.400,1935.0969,
2222.490,1940.0665,
2219.579,1973.305,
2216.669,2006.0344,
2213.758,2029.691,
2210.847,2034.5431,
2207.937,2033.2064,
2205.026,2069.1238,
2202.116,2113.711,
2199.205,2147.0626,
2196.294,2144.125,
2193.384,2180.3606,
2190.473,2235.4501,
2187.563,2323.3087,
2184.652,2361.125,
2181.742,2390.9696,
2178.831,2489.8255,
2175.920,2596.2361,
2173.010,2714.5553,
2170.099,2851.9122,
2167.189,3050.187,
2164.278,3218.6949,
2161.368,3400.9753,
2158.457,3618.107,
2155.546,3797.4848,
2152.636,3987.0342,
2149.725,4150.4806,
2146.815,4265.8882,
2143.904,4381.4224,
2140.993,4393.2835,
2138.083,4445.4655,
2135.172,4429.646,
2132.262,4407.0968,
2129.351,4333.9557,
2126.441,4228.4257,
2123.530,4031.8567,
2120.619,3892.1904,
2117.709,3662.278,
2114.798,3424.8279,
2111.888,3202.9539,
2108.977,2966.8136,
2106.067,2833.1056,
2103.156,2732.781,
2100.245,2603.0754,
2097.335,2512.8056,
2094.424,2435.8694,
2091.514,2418.372,
2088.603,2345.5813,
2085.692,2340.2625,
2082.782,2327.5749,
2079.871,2280.873,
2076.961,2255.2874,
2074.050,2296.7977,
2071.140,2246.4587,
2068.229,2225.9349,
2065.318,2239.187,
2062.408,2232.3066,
2059.497,2219.5238,
2056.587,2215.5785,
2053.676,2198.6093,
2050.766,2218.2005,
2047.855,2176.2674,
2044.944,2179.6619,
2042.034,2170.599,
2039.123,2173.8253,
2036.213,2192.6028,
2033.302,2192.0166,
2030.391,2234.3776,
2027.481,2238.857,
2024.570,2245.9817,
2021.660,2259.4746,
2018.749,2265.935,
2015.839,2257.6276,
2012.928,2238.3431,
2010.017,2249.125,
2007.107,2250.3811,
2004.196,2247.5178,
2001.286,2250.3759,
1998.375,2216.1565,
1995.465,2218.7902,
1992.554,2214.4839,
1989.643,2254.6388,
1986.733,2201.4829,
1983.822,2188.7144,
1980.912,2186.7295,
1978.001,2205.9896,
1975.090,2188.3662,
1972.180,2180.8138,
1969.269,2187.8606,
1966.359,2177.0438,
1963.448,2213.0339,
1960.538,2241.9207,
1957.627,2229.0755,
1954.716,2226.1537,
1951.806,2156.0624,
1948.895,2191.5947,
1945.985,2181.3292,
1943.074,2175.6749,
1940.164,2159.8366,
1937.253,2167.5814,
1934.342,2176.125,
1931.432,2192.289,
1928.521,2187.2407,
1925.611,2161.5472,
1922.700,2165.4137,
1919.790,2192.2403,
1916.879,2172.8687,
1913.968,2169.1275,
1911.058,2188.0109,
1908.147,2156.6637,
1905.237,2154.6692,
1902.326,2185.3887,
1899.415,2175.6274,
1896.505,2152.5587,
1893.594,2155.5762,
1890.684,2163.1577,
1887.773,2158.9269,
1884.863,2188.9291,
1881.952,2199.7551,
1879.041,2188.5601,
1876.131,2201.5982,
1873.220,2135.3902,
1870.310,2191.959,
1867.399,2220.7412,
1864.489,2197.8009,
1861.578,2168.7676,
1858.667,2201.0442,
1855.757,2190.6978,
1852.846,2212.0789,
1849.936,2193.2872,
1847.025,2217.7698,
1844.114,2236.9768,
1841.204,2255.9886,
1838.293,2254.6391,
1835.383,2254.3225,
1832.472,2247.485,
1829.562,2274.5367,
1826.651,2293.0737,
1823.740,2302.3166,
1820.830,2324.6448,
1817.919,2268.2324,
1815.009,2292.6555,
1812.098,2281.1723,
1809.188,2330.714,
1806.277,2291.0988,
1803.366,2354.5095,
1800.456,2317.9052,
1797.545,2316.2455,
1794.635,2340.221,
1791.724,2369.8725,
1788.813,2405.1134,
1785.903,2375.6908,
1782.992,2397.125,
1780.082,2394.7149,
1777.171,2390.7926,
1774.261,2383.1748,
1771.350,2404.0958,
1768.439,2456.6132,
1765.529,2461.9463,
1762.618,2480.6756,
1759.708,2474.5271,
1756.797,2487.3371,
1753.887,2510.5871,
1750.976,2542.4804,
1748.065,2543.5351,
1745.155,2528.0154,
1742.244,2516.5172,
1739.334,2523.765,
1736.423,2582.8221,
1733.512,2587.6615,
1730.602,2611.0457,
1727.691,2605.0041,
1724.781,2633.9478,
1721.870,2675.3157,
1718.960,2710.2587,
1716.049,2674.1763,
1713.138,2696.0499,
1710.228,2681.9785,
1707.317,2725.1227,
1704.407,2770.6545,
1701.496,2755.9825,
1698.586,2830.8157,
1695.675,2821.218,
1692.764,2908.1701,
1689.854,2911.2116,
1686.943,2885.0356,
1684.033,2982.6165,
1681.122,2946.7877,
1678.211,3000.6015,
1675.301,3139.6964,
1672.390,3109.3164,
1669.480,3173.9914,
1666.569,3281.9248,
1663.659,3345.3009,
1660.748,3417.4362,
1657.837,3485.8964,
1654.927,3565.5936,
1652.016,3585.8783,
1649.106,3618.3773,
1646.195,3708.3408,
1643.285,3719.8366,
1640.374,3837.3166,
1637.463,3894.8184,
1634.553,3989.1348,
1631.642,4125.2857,
1628.732,4323.559,
1625.821,4564.2375,
1622.911,4735.1558,
1620.000,5050.1186,
1617.089,5315.8116,
1614.179,5651.5367,
1611.268,5902.7933,
1608.358,6157.0915,
1605.447,6356.7551,
1602.536,6419.3788,
1599.626,6583.1933,
1596.715,6543.5765,
1593.805,6523.8157,
1590.894,6505.3923,
1587.984,6445.0968,
1585.073,6405.4956,
1582.162,6404.2994,
1579.252,6365.0282,
1576.341,6296.0452,
1573.431,6326.5491,
1570.520,6292.498,
1567.610,6218.5162,
1564.699,6196.6749,
1561.788,6066.5488,
1558.878,5952.7246,
1555.967,5868.3078,
1553.057,5793.1944,
1550.146,5623.3217,
1547.235,5520.7281,
1544.325,5448.2199,
1541.414,5353.2201,
1538.504,5314.125,
1535.593,5248.3916,
1532.683,5116.6474,
1529.772,5008.1943,
1526.861,4961.7227,
1523.951,4910.0623,
1521.040,4827.5507,
1518.130,4811.3792,
1515.219,4764.4847,
1512.309,4745.3772,
1509.398,4666.4956,
1506.487,4669.6456,
1503.577,4596.1537,
1500.666,4596.7526,
1497.756,4553.2859,
1494.845,4541.6042,
1491.934,4504.6966,
1489.024,4373.7976,
1486.113,4354.2896,
1483.203,4344.2433,
1480.292,4347.3676,
1477.382,4272.1497,
1474.471,4257.1945,
1471.560,4207.3284,
1468.650,4181.9755,
1465.739,4102.9067,
1462.829,4123.3876,
1459.918,4123.5832,
1457.008,4105.8791,
1454.097,4130.906,
1451.186,4133.6395,
1448.276,4135.67,
1445.365,4157.4465,
1442.455,4149.1055,
1439.544,4123.7789,
1436.633,4123.3196,
1433.723,4133.7783,
1430.812,4064.1353,
1427.902,4013.877,
1424.991,4003.4516,
1422.081,3941.654,
1419.170,3973.2796,
1416.259,3972.6445,
1413.349,3928.8315,
1410.438,3919.3237,
1407.528,3911.4689,
1404.617,3924.9131,
1401.707,3935.4753,
1398.796,3932.1809,
1395.885,3959.2355,
1392.975,3998.0625,
1390.064,4012.9006,
1387.154,4030.6936,
1384.243,3959.5392,
1381.332,3976.2156,
1378.422,4025.7716,
1375.511,4193.4554,
1372.601,4361.0861,
1369.690,4479.7061,
1366.780,4506.6294,
1363.869,4567.9696,
1360.958,4666.0499,
1358.048,4718.1779,
1355.137,4780.7448,
1352.227,4893.6352,
1349.316,5024.5611,
1346.406,5134.712,
1343.495,5198.0867,
1340.584,5241.8385,
1337.674,5299.8083,
1334.763,5374.842,
1331.853,5446.2388,
1328.942,5482.0352,
1326.032,5571.7652,
1323.121,5636.3238,
1320.210,5708.7283,
1317.300,5752.471,
1314.389,5836.6125,
1311.479,5942.8238,
1308.568,6029.636,
1305.657,6116.9825,
1302.747,6192.8798,
1299.836,6343.9925,
1296.926,6506.2352,
1294.015,6637.6985,
1291.105,6783.1311,
1288.194,6987.4334,
1285.283,7158.7095,
1282.373,7265.0779,
1279.462,7377.7313,
1276.552,7459.8495,
1273.641,7518.2245,
1270.731,7593.5922,
1267.820,7609.4916,
1264.909,7564.5205,
1261.999,7559.2928,
1259.088,7536.4898,
1256.178,7365.5466,
1253.267,7218.9769,
1250.356,7064.6056,
1247.446,6906.6212,
1244.535,6729.0807,
1241.625,6522.6216,
1238.714,6309.5595,
1235.804,6120.5864,
1232.893,5965.7706,
1229.982,5869.4572,
1227.072,5790.6951,
1224.161,5739.7378,
1221.251,5621.6822,
1218.340,5532.9479,
1215.430,5445.6672,
1212.519,5318.3448,
1209.608,5239.0719,
1206.698,5259.4439,
1203.787,5239.1099,
1200.877,5270.6384,
1197.966,5343.4703,
1195.055,5469.9928,
1192.145,5567.762,
1189.234,5743.6448,
1186.324,5857.3099,
1183.413,5879.2671,
1180.503,5893.6976,
1177.592,5906.0133,
1174.681,5808.5634,
1171.771,5774.982,
1168.860,5682.1007,
1165.950,5573.1451,
1163.039,5542.141,
1160.129,5513.7612,
1157.218,5467.2808,
1154.307,5420.913,
1151.397,5362.5401,
1148.486,5262.9319,
1145.576,5218.1546,
1142.665,5126.6996,
1139.754,5093.0889,
1136.844,5041.6053,
1133.933,4981.0696,
1131.023,4950.2366,
1128.112,4938.4835,
1125.202,4910.9801,
1122.291,4890.7814,
1119.380,4972.1077,
1116.470,4970.3426,
1113.559,4940.7415,
1110.649,4969.4512,
1107.738,4990.7325,
1104.828,5009.1851,
1101.917,5019.8108,
1099.006,4979.3623,
1096.096,4941.0814,
1093.185,4989.3716,
1090.275,4997.1714,
1087.364,4974.1107,
1084.453,4959.7502,
1081.543,4933.4611,
1078.632,4902.8116,
1075.722,4908.1429,
1072.811,4934.3732,
1069.901,4937.8663,
1066.990,4998.7499,
1064.079,5038.304,
1061.169,5079.397,
1058.258,5132.769,
1055.348,5170.7733,
1052.437,5177.7521,
1049.527,5243.8033,
1046.616,5287.2448,
1043.705,5312.1649,
1040.795,5327.7026,
1037.884,5339.6996,
1034.974,5356.1804,
1032.063,5377.8941,
1029.153,5392.9173,
1026.242,5391.1874,
1023.331,5431.9557,
1020.421,5493.8018,
1017.510,5531.6922,
1014.600,5584.9951,
1011.689,5647.2563,
1008.778,5683.7294,
1005.868,5823.1405,
1002.957,6047.693,
1000.047,6259.7571,
997.136,6421.8591,
994.226,6529.7244,
991.315,6567.0334,
988.404,6509.8871,
985.494,6367.8783,
982.583,6312.2021,
979.673,6296.8085,
976.762,6282.383,
973.852,6244.9523,
970.941,6224.4259,
968.030,6261.1712,
965.120,6250.2217,
962.209,6273.2403,
959.299,6287.0405,
956.388,6279.9257,
953.477,6283.8669,
950.567,6297.9422,
947.656,6287.9076,
944.746,6301.5005,
941.835,6323.99,
938.925,6350.1826,
936.014,6352.0201,
933.103,6331.826,
930.193,6298.1408,
927.282,6243.5128,
924.372,6195.3132,
921.461,6076.4558,
918.551,5980.3554,
915.640,5889.5567,
912.729,5827.8339,
909.819,5835.0045,
906.908,5750.762,
903.998,5797.0283,
901.087,5818.3996,
898.176,5851.7567,
895.266,5901.2167,
892.355,5962.4275,
889.445,6081.6034,
886.534,6163.9424,
883.624,6237.9886,
880.713,6291.6428,
877.802,6309.5246,
874.892,6298.0442,
871.981,6300.2508,
869.071,6220.8866,
866.160,6214.7146,
863.250,6214.9798,
860.339,6197.0901,
857.428,6175.673,
854.518,6198.3788,
851.607,6172.5846,
848.697,6125.4803,
845.786,6046.4439,
842.875,6021.8853,
839.965,6075.7123,
837.054,6059.6877,
834.144,6020.7364,
831.233,6007.1254,
828.323,6023.4133,
825.412,5981.952,
822.501,5860.1252,
819.591,5898.9659,
816.680,5813.5864,
813.770,5730.7277,
810.859,5681.4903,
807.949,5649.8639,
805.038,5604.3374,
802.127,5581.2898,
799.217,5571.6711,
796.306,5536.7734,
793.396,5522.6366,
790.485,5541.0202,
787.574,5545.416,
784.664,5474.0663,
781.753,5492.6612,
778.843,5539.9803,
775.932,5561.3968,
773.022,5546.0296,
770.111,5616.3413,
767.200,5582.2981,
764.290,5548.7435,
761.379,5583.9339,
758.469,5643.291,
755.558,5571.1039,
752.648,5536.8905,
749.737,5447.2208,
746.826,5402.6588,
743.916,5372.5272,
741.005,5273.9324,
738.095,5077.4582,
735.184,4833.8866,
732.274,4764.0055,
729.363,4904.8665,
726.452,5187.2309,
723.542,5387.151,
720.631,5364.4853,
717.721,5390.7871,
714.810,5411.6535,
711.899,5408.6498,
708.989,5440.9268,
706.078,5423.4963,
703.168,5451.9149,
700.257,5405.8758,
697.347,5318.385,
694.436,5345.8773,
691.525,5263.0854,
688.615,5263.9923,
685.704,5275.5567,
682.794,5281.0398,
679.883,5296.7285,
676.973,5287.9134,
674.062,5296.9724,
671.151,5299.6184,
668.241,5305.1314,
665.330,5334.667,
662.420,5282.7494,
659.509,5299.427,
656.598,5300.8443,
653.688,5296.1576,
650.777,5343.152,
647.867,5343.9483,
644.956,5259.9206,
642.046,5249.9994,
639.135,5308.077,
636.224,5304.3796,
633.314,5355.1917,
630.403,5358.0744,
627.493,5397.2139,
624.582,5459.8244,
621.672,5409.1368,
618.761,5463.3605,
615.850,5527.959,
612.940,5582.1771,
610.029,5614.4402,
607.119,5622.3365,
604.208,5595.4345,
601.297,5595.5909,
598.387,5599.6726,
595.476,5579.5651,
592.566,5563.0367,
589.655,5567.2518,
586.745,5550.7285,
583.834,5521.9292,
580.923,5513.8596,
578.013,5469.9145,
575.102,5504.0121,
572.192,5523.4763,
569.281,5522.2923,
566.371,5662.382,
563.460,5664.132,
560.549,5666.4342,
557.639,5692.6559,
554.728,5740.76,
551.818,5703.3048,
548.907,5727.4239,
545.996,5769.1196,
543.086,5802.9638,
540.175,5806.857,
537.265,5875.2073,
534.354,5909.6537,
531.444,5942.9256,
528.533,6009.8841,
525.622,6048.6815,
522.712,6129.9354,
519.801,6177.125,
516.891,6195.4361,
513.980,6286.0287,
511.070,6378.6467,
508.159,6496.744,
505.248,6628.6852,
502.338,6755.452,
499.427,6834.9507,
496.517,6904.7714,
493.606,6954.5752,
490.695,6984.0463,
487.785,7019.4567,
484.874,6966.3186,
481.964,6962.7792,
479.053,6998.1608,
476.143,6977.4258,
473.232,6963.1757,
470.321,6948.3935,
467.411,6932.5533,
464.500,6916.0862,
461.590,6914.5547,
458.679,6972.4562,
455.769,7013.5087,
452.858,6999.2045,
449.947,6999.9685,
447.037,7029.2495,
444.126,7055.1492,
441.216,7062.6272,
438.305,7036.7215,
435.395,7092.7879,
432.484,7102.0371,
429.573,7075.5626,
426.663,7094.5661,
423.752,7146.3392,
420.842,7166.7549,
417.931,7175.4675,
415.020,7211.8687,
412.110,7243.8528,
409.199,7344.6115,
406.289,7441.5687,
403.378,7452.1942,
400.468,7472.606,
397.557,7415.8846,
394.646,7376.3259,
391.736,7428.6864,
388.825,7352.509,
385.915,7373.2327,
383.004,7416.2648,
380.094,7435.536,
377.183,7561.1995,
374.272,7673.1998,
371.362,7742.2456,
368.451,7762.4286,
365.541,7932.0497,
362.630,7965.5615,
359.719,7988.5693,
356.809,8066.5845,
353.898,8041.1254,
350.988,8024.3602,
348.077,8041.681,
345.167,8105.563,
342.256,8133.9516,
339.345,8125.6506,
336.435,8115.5665,
333.524,8128.088,
330.614,8158.6394,
327.703,8178.3931,
324.793,8196.3743,
321.882,8220.4333,
318.971,8347.562,
316.061,8402.3562,
313.150,8430.9845,
310.240,8485.1589,
307.329,8618.6182,
304.418,8705.3215,
301.508,8729.7803,
298.597,8668.3257,
295.687,8750.489,
292.776,8898.7922,
289.866,9092.1854,
286.955,9301.2447,
284.044,9578.4323,
281.134,9857.2801,
278.223,10132.716,
275.313,10444.406,
272.402,10707.051,
269.492,10919.783,
266.581,11083.371,
263.670,11240.699,
260.760,11470.526,
257.849,11641.691,
254.939,11649.03,
252.028,11764.216,
249.117,11872.081,
246.207,11951.345,
243.296,11963.79,
240.386,11845.628,
237.475,11763.3,
234.565,11711.959,
231.654,11577.568,
228.743,11501.369,
225.833,11395.389,
222.922,11230.626,
220.012,11155.585,
217.101,11026.603,
214.191,10896.05,
211.280,10822.577,
208.369,10775.411,
205.459,10765.106,
202.548,10785.139,
199.638,10814.165,
196.727,10822.43,
193.816,10826.834,
190.906,10832.693,
187.995,10820.385,
185.085,10826.055,
182.174,10836.733,
179.264,10835.288,
176.353,10860.756,
173.442,10914.644,
170.532,10976.144,
167.621,10907.652,
164.711,10736.185,
161.800,10476.963,
158.890,10122.137,
155.979,9510.7951,
153.068,8727.3697,
150.158,7801.8971,
147.247,6789.5844,
144.337,5598.2937,
141.426,4392.3531,
138.516,3245.3272,
135.605,2376.9306,
132.694,1649.4724,
129.784,1065.5622,
126.873,682.96773,
123.963,462.85747,
121.052,321.41358,
118.141,236.45924,
115.231,191.35907,
112.320,154.48502,
109.410,124.76163,
106.499,101.97266,
103.589,102.16729,
100.678,98.519592,
97.767,78.61334,
94.857,76.739022,
91.946,70.884559,
89.036,62.786306,
86.125,60.65869,
83.215,56.408558,
80.304,50.012375,
77.393,40.806166,
74.483,44.05581,
71.572,45.037944,
68.662,42.29379,
65.751,33.816377,
62.840,33.53351,
59.930,35.375855,
57.019,32.555527,
54.109,32.722161,
51.198,30.712126,
48.288,25.10235,
45.377,22.288838,
42.466,22.773877,
39.556,25.009881,
36.645,24.307691,
33.735,22.048006,
30.824,18.578791,
27.914,13.670564,
25.003,19.351375,
22.092,25.385332,
19.182,30.216531,
16.271,33.014492,
13.361,79.221004,
10.450,167.56675,
7.539,321.19613,
4.629,253.72941,
1.718,37.022335,
-1.192,-341.52715,
-4.103,-286.57119,
-7.013,-153.90215,
-9.924,-2.875,
