,PLA0DA~1,
Wavenumbers [1/cm],Intensity,
3014.167,-3.25,
3011.256,-0.85012884,
3008.346,44.40841,
3005.435,58.67226,
3002.525,68.222595,
2999.614,62.651309,
2996.704,66.705671,
2993.793,62.103112,
2990.882,64.627938,
2987.972,75.744955,
2985.061,67.213044,
2982.151,78.005479,
2979.240,77.397321,
2976.329,93.25273,
2973.419,86.011618,
2970.508,91.99995,
2967.598,79.514659,
2964.687,92.362093,
2961.777,90.655992,
2958.866,89.751485,
2955.955,92.303092,
2953.045,96.098985,
2950.134,102.09114,
2947.224,99.977751,
2944.313,103.70513,
2941.403,113.52418,
2938.492,106.63348,
2935.581,108.8899,
2932.671,92.956063,
2929.760,111.45383,
2926.850,100.75,
2923.939,119.62849,
2921.028,120.12642,
2918.118,116.5699,
2915.207,119.28169,
2912.297,112.78808,
2909.386,119.32665,
2906.476,137.16008,
2903.565,114.39593,
2900.654,109.70246,
2897.744,132.64942,
2894.833,121.86346,
2891.923,124.2372,
2889.012,130.07948,
2886.102,147.58243,
2883.191,161.73962,
2880.280,153.54427,
2877.370,193.59881,
2874.459,193.45442,
2871.549,162.80221,
2868.638,125.29434,
2865.727,130.61541,
2862.817,114.92113,
2859.906,142.92664,
2856.996,128.75,
2854.085,130.51051,
2851.175,134.1566,
2848.264,130.90667,
2845.353,133.40493,
2842.443,117.75,
2839.532,124.73503,
2836.622,130.90169,
2833.711,129.64639,
2830.801,128.64926,
2827.890,124.6853,
2824.979,124.02193,
2822.069,149.68177,
2819.158,136.90902,
2816.248,128.73842,
2813.337,144.38903,
2810.427,129.44835,
2807.516,133.16719,
2804.605,134.63222,
2801.695,136.17102,
2798.784,127.60215,
2795.874,143.59959,
2792.963,137.24968,
2790.052,116.75279,
2787.142,133.03946,
2784.231,133.16925,
2781.321,142.61852,
2778.410,131.55963,
2775.500,143.57931,
2772.589,129.86544,
2769.678,138.17659,
2766.768,136.19853,
2763.857,125.48989,
2760.947,138.1712,
2758.036,140.9985,
2755.126,126.4124,
2752.215,130.83628,
2749.304,142.19602,
2746.394,141.65522,
2743.483,136.65005,
2740.573,131.18586,
2737.662,139.42012,
2734.751,142.86649,
2731.841,143.75,
2728.930,146.178,
2726.020,152.98495,
2723.109,137.03909,
2720.199,146.18124,
2717.288,145.57482,
2714.377,155.94148,
2711.467,145.37307,
2708.556,154.34537,
2705.646,156.76406,
2702.735,155.73968,
2699.825,150.64093,
2696.914,141.98771,
2694.003,168.67682,
2691.093,167.01717,
2688.182,154.09593,
2685.272,156.39581,
2682.361,146.66157,
2679.450,155.04218,
2676.540,156.91259,
2673.629,165.74551,
2670.719,151.04943,
2667.808,170.29093,
2664.898,161.893,
2661.987,158.28342,
2659.076,158.25862,
2656.166,147.92749,
2653.255,156.45068,
2650.345,162.39791,
2647.434,165.83574,
2644.524,165.20563,
2641.613,173.03598,
2638.702,168.89203,
2635.792,159.21959,
2632.881,167.18428,
2629.971,170.77009,
2627.060,162.08313,
2624.149,168.80312,
2621.239,171.74407,
2618.328,156.89445,
2615.418,182.75,
2612.507,175.30339,
2609.597,174.38273,
2606.686,169.7761,
2603.775,166.71032,
2600.865,163.16295,
2597.954,173.84583,
2595.044,182.02724,
2592.133,183.74352,
2589.223,179.42474,
2586.312,187.72489,
2583.401,184.09672,
2580.491,190.83172,
2577.580,186.7434,
2574.670,182.47326,
2571.759,174.59333,
2568.848,179.45171,
2565.938,179.03569,
2563.027,183.57953,
2560.117,190.56309,
2557.206,190.94188,
2554.296,176.21224,
2551.385,199.94002,
2548.474,190.7868,
2545.564,187.68669,
2542.653,203.04531,
2539.743,189.76232,
2536.832,187.23972,
2533.922,201.48192,
2531.011,188.04972,
2528.100,198.34931,
2525.190,202.91229,
2522.279,187.07829,
2519.369,194.05187,
2516.458,203.64518,
2513.548,196.99565,
2510.637,205.25814,
2507.726,200.24815,
2504.816,194.49859,
2501.905,188.18476,
2498.995,196.7055,
2496.084,205.31094,
2493.173,197.93444,
2490.263,192.58162,
2487.352,210.9988,
2484.442,198.59153,
2481.531,204.9575,
2478.621,218.94438,
2475.710,204.90336,
2472.799,221.79039,
2469.889,211.2957,
2466.978,214.8015,
2464.068,224.4114,
2461.157,223.9425,
2458.247,228.1618,
2455.336,221.53864,
2452.425,216.64151,
2449.515,224.13669,
2446.604,213.05189,
2443.694,215.2854,
2440.783,240.32433,
2437.872,237.00525,
2434.962,239.54724,
2432.051,232.62663,
2429.141,218.5326,
2426.230,207.01076,
2423.320,228.22137,
2420.409,229.9936,
2417.498,228.15168,
2414.588,225.29754,
2411.677,239.14041,
2408.767,223.50886,
2405.856,220.5905,
2402.946,225.0181,
2400.035,208.17252,
2397.124,238.62701,
2394.214,224.55961,
2391.303,222.32452,
2388.393,226.01743,
2385.482,225.70594,
2382.571,228.09187,
2379.661,229.95921,
2376.750,243.38051,
2373.840,249.88749,
2370.929,237.89079,
2368.019,244.16074,
2365.108,229.05105,
2362.197,239.95821,
2359.287,233.96003,
2356.376,235.74472,
2353.466,249.8117,
2350.555,240.86026,
2347.645,249.97384,
2344.734,258.20624,
2341.823,243.0485,
2338.913,270.71116,
2336.002,254.98673,
2333.092,270.11792,
2330.181,253.67842,
2327.270,245.02503,
2324.360,268.12033,
2321.449,242.81122,
2318.539,246.41057,
2315.628,270.48861,
2312.718,273.3337,
2309.807,241.93603,
2306.896,270.49022,
2303.986,258.48369,
2301.075,257.62231,
2298.165,265.34618,
2295.254,268.68537,
2292.344,261.64208,
2289.433,271.41409,
2286.522,274.85711,
2283.612,258.73849,
2280.701,256.67375,
2277.791,258.03239,
2274.880,290.67596,
2271.969,284.2109,
2269.059,271.68734,
2266.148,294.80008,
2263.238,292.65348,
2260.327,264.5777,
2257.417,279.78278,
2254.506,297.20016,
2251.595,288.33555,
2248.685,285.58843,
2245.774,308.57383,
2242.864,291.10163,
2239.953,279.47418,
2237.043,277.59464,
2234.132,285.09806,
2231.221,300.09375,
2228.311,313.70875,
2225.400,324.58113,
2222.490,312.8085,
2219.579,290.16904,
2216.669,302.22377,
2213.758,300.57483,
2210.847,295.13791,
2207.937,307.22067,
2205.026,311.74971,
2202.116,319.22558,
2199.205,319.39988,
2196.294,313.32002,
2193.384,313.85501,
2190.473,304.73826,
2187.563,346.63883,
2184.652,327.5153,
2181.742,345.20411,
2178.831,342.90567,
2175.920,357.74454,
2173.010,359.12472,
2170.099,399.34525,
2167.189,384.85763,
2164.278,400.77714,
2161.368,420.46263,
2158.457,456.02088,
2155.546,456.06827,
2152.636,492.37756,
2149.725,528.72314,
2146.815,526.95021,
2143.904,548.14777,
2140.993,546.24202,
2138.083,562.12688,
2135.172,558.84236,
2132.262,562.14525,
2129.351,566.97412,
2126.441,556.91502,
2123.530,537.77245,
2120.619,533.97043,
2117.709,488.52093,
2114.798,460.80767,
2111.888,456.21257,
2108.977,421.69038,
2106.067,411.85053,
2103.156,383.07594,
2100.245,391.73055,
2097.335,361.59293,
2094.424,362.96301,
2091.514,340.95693,
2088.603,333.02187,
2085.692,341.88752,
2082.782,343.33635,
2079.871,345.21441,
2076.961,353.23338,
2074.050,369.94394,
2071.140,366.99192,
2068.229,339.64191,
2065.318,353.47774,
2062.408,354.55332,
2059.497,339.494,
2056.587,323.58716,
2053.676,328.01647,
2050.766,330.59604,
2047.855,315.12023,
2044.944,330.54326,
2042.034,343.77305,
2039.123,339.99242,
2036.213,344.29214,
2033.302,318.11959,
2030.391,318.0381,
2027.481,332.14012,
2024.570,328.32165,
2021.660,345.56741,
2018.749,340.87622,
2015.839,321.84383,
2012.928,344.50839,
2010.017,353.75,
2007.107,343.70138,
2004.196,351.76198,
2001.286,366.70761,
1998.375,348.83267,
1995.465,350.61607,
1992.554,358.88524,
1989.643,357.81913,
1986.733,334.07105,
1983.822,338.1983,
1980.912,330.11645,
1978.001,332.24165,
1975.090,332.32863,
1972.180,331.09576,
1969.269,336.03453,
1966.359,345.15537,
1963.448,331.33124,
1960.538,334.8651,
1957.627,342.09985,
1954.716,325.26708,
1951.806,330.54485,
1948.895,339.50111,
1945.985,300.63072,
1943.074,319.3957,
1940.164,323.76912,
1937.253,319.91511,
1934.342,314.64733,
1931.432,306.21372,
1928.521,328.23187,
1925.611,325.05534,
1922.700,286.50968,
1919.790,314.78426,
1916.879,291.91223,
1913.968,314.71926,
1911.058,310.89114,
1908.147,301.93835,
1905.237,322.15441,
1902.326,320.27741,
1899.415,318.14146,
1896.505,327.97912,
1893.594,346.11887,
1890.684,319.74357,
1887.773,312.836,
1884.863,328.95501,
1881.952,314.5227,
1879.041,299.69808,
1876.131,312.40882,
1873.220,273.03744,
1870.310,310.37772,
1867.399,322.60606,
1864.489,312.33415,
1861.578,324.97541,
1858.667,307.45659,
1855.757,307.74284,
1852.846,311.7295,
1849.936,303.67992,
1847.025,325.80351,
1844.114,334.86289,
1841.204,320.41783,
1838.293,327.25416,
1835.383,326.3895,
1832.472,315.29609,
1829.562,308.66641,
1826.651,332.99843,
1823.740,323.36682,
1820.830,330.41155,
1817.919,359.18129,
1815.009,352.76272,
1812.098,360.62401,
1809.188,331.73457,
1806.277,316.05985,
1803.366,360.60027,
1800.456,351.3653,
1797.545,346.87046,
1794.635,361.6869,
1791.724,325.3713,
1788.813,350.95283,
1785.903,360.21899,
1782.992,357.9944,
1780.082,359.8005,
1777.171,399.42292,
1774.261,406.68968,
1771.350,394.18426,
1768.439,398.17279,
1765.529,361.29349,
1762.618,348.26687,
1759.708,354.90225,
1756.797,375.73485,
1753.887,376.4672,
1750.976,367.16034,
1748.065,383.33986,
1745.155,380.33719,
1742.244,381.35778,
1739.334,374.79471,
1736.423,383.88082,
1733.512,372.28654,
1730.602,405.3949,
1727.691,394.95252,
1724.781,383.81712,
1721.870,377.11663,
1718.960,381.50562,
1716.049,399.52949,
1713.138,406.16998,
1710.228,388.47376,
1707.317,395.48029,
1704.407,378.78206,
1701.496,434.17751,
1698.586,391.70281,
1695.675,413.94984,
1692.764,411.96311,
1689.854,458.62798,
1686.943,434.66059,
1684.033,417.17222,
1681.122,438.37617,
1678.211,458.55965,
1675.301,426.84867,
1672.390,504.48083,
1669.480,415.2233,
1666.569,473.7627,
1663.659,475.02765,
1660.748,491.59575,
1657.837,483.88122,
1654.927,490.21858,
1652.016,509.6528,
1649.106,506.21514,
1646.195,525.87689,
1643.285,571.18034,
1640.374,547.06359,
1637.463,562.92095,
1634.553,626.26233,
1631.642,593.77172,
1628.732,596.06997,
1625.821,649.77748,
1622.911,691.51332,
1620.000,740.13266,
1617.089,770.15298,
1614.179,831.97334,
1611.268,863.59748,
1608.358,868.56271,
1605.447,956.43643,
1602.536,991.57039,
1599.626,961.55235,
1596.715,967.82601,
1593.805,929.3994,
1590.894,958.21546,
1587.984,943.69597,
1585.073,932.24183,
1582.162,930.75,
1579.252,905.38267,
1576.341,873.31491,
1573.431,856.56874,
1570.520,839.22684,
1567.610,857.10329,
1564.699,858.22473,
1561.788,868.42594,
1558.878,843.70842,
1555.967,803.32341,
1553.057,804.42227,
1550.146,787.5537,
1547.235,781.19522,
1544.325,730.63128,
1541.414,705.11195,
1538.504,731.53985,
1535.593,717.89119,
1532.683,711.12577,
1529.772,712.91281,
1526.861,674.27782,
1523.951,665.44073,
1521.040,686.20342,
1518.130,676.98955,
1515.219,643.90954,
1512.309,655.78602,
1509.398,640.09797,
1506.487,629.64748,
1503.577,643.33781,
1500.666,642.72071,
1497.756,614.41147,
1494.845,656.02851,
1491.934,590.76575,
1489.024,595.57821,
1486.113,593.89557,
1483.203,622.17137,
1480.292,582.47591,
1477.382,557.77679,
1474.471,533.03077,
1471.560,578.99796,
1468.650,575.51869,
1465.739,564.75,
1462.829,554.6041,
1459.918,558.24733,
1457.008,558.11912,
1454.097,560.84179,
1451.186,548.3825,
1448.276,524.92599,
1445.365,537.06991,
1442.455,532.14266,
1439.544,542.17496,
1436.633,478.39347,
1433.723,594.12689,
1430.812,587.75517,
1427.902,562.9755,
1424.991,572.45312,
1422.081,522.28876,
1419.170,517.75,
1416.259,510.45943,
1413.349,474.00891,
1410.438,519.43215,
1407.528,558.55606,
1404.617,526.23815,
1401.707,493.51048,
1398.796,502.0227,
1395.885,504.1751,
1392.975,500.14635,
1390.064,534.81668,
1387.154,542.25321,
1384.243,478.47539,
1381.332,514.18063,
1378.422,543.97203,
1375.511,587.06396,
1372.601,562.8676,
1369.690,565.03611,
1366.780,532.48452,
1363.869,584.04759,
1360.958,597.50697,
1358.048,620.04234,
1355.137,645.05821,
1352.227,665.84813,
1349.316,687.63829,
1346.406,695.66587,
1343.495,691.77785,
1340.584,677.7493,
1337.674,729.64605,
1334.763,777.47973,
1331.853,744.09941,
1328.942,821.02284,
1326.032,749.18794,
1323.121,824.85248,
1320.210,847.76119,
1317.300,833.89652,
1314.389,858.07004,
1311.479,914.27407,
1308.568,941.8478,
1305.657,954.72192,
1302.747,1017.2799,
1299.836,995.18984,
1296.926,1021.0319,
1294.015,1048.6116,
1291.105,1041.8251,
1288.194,1089.4733,
1285.283,1113.9221,
1282.373,1133.9374,
1279.462,1159.2203,
1276.552,1182.9705,
1273.641,1221.7021,
1270.731,1255.753,
1267.820,1250.2388,
1264.909,1317.2442,
1261.999,1291.0842,
1259.088,1272.8418,
1256.178,1235.7788,
1253.267,1192.9246,
1250.356,1157.3689,
1247.446,1149.8571,
1244.535,1124.5045,
1241.625,1075.1612,
1238.714,1031.6728,
1235.804,1002.3131,
1232.893,996.63136,
1229.982,966.52345,
1227.072,930.31096,
1224.161,905.8969,
1221.251,903.98353,
1218.340,892.44157,
1215.430,862.07698,
1212.519,847.73035,
1209.608,856.58501,
1206.698,862.26065,
1203.787,860.94597,
1200.877,846.92014,
1197.966,865.80248,
1195.055,906.85268,
1192.145,941.54971,
1189.234,934.53019,
1186.324,949.2068,
1183.413,983.76525,
1180.503,998.02842,
1177.592,981.78015,
1174.681,957.7363,
1171.771,951.26514,
1168.860,973.59237,
1165.950,920.11603,
1163.039,921.41646,
1160.129,928.92971,
1157.218,934.07662,
1154.307,918.34361,
1151.397,893.6558,
1148.486,921.45029,
1145.576,919.21033,
1142.665,906.77955,
1139.754,913.88629,
1136.844,938.85999,
1133.933,933.50084,
1131.023,914.25227,
1128.112,908.32091,
1125.202,917.64854,
1122.291,927.37669,
1119.380,931.81063,
1116.470,937.98833,
1113.559,974.31946,
1110.649,953.31741,
1107.738,934.60673,
1104.828,935.6627,
1101.917,932.05737,
1099.006,905.68835,
1096.096,868.77131,
1093.185,885.45336,
1090.275,919.93008,
1087.364,947.64756,
1084.453,913.44025,
1081.543,911.30191,
1078.632,949.24284,
1075.722,944.6903,
1072.811,949.30847,
1069.901,957.16782,
1066.990,965.02498,
1064.079,973.55514,
1061.169,980.61611,
1058.258,982.47954,
1055.348,986.04125,
1052.437,992.51844,
1049.527,961.11923,
1046.616,970.67635,
1043.705,969.4377,
1040.795,979.60458,
1037.884,1007.4967,
1034.974,1021.3015,
1032.063,1004.2194,
1029.153,989.54228,
1026.242,987.81236,
1023.331,1003.5823,
1020.421,1039.5138,
1017.510,1052.6294,
1014.600,1065.2838,
1011.689,1080.6142,
1008.778,1078.7611,
1005.868,1113.4488,
1002.957,1079.895,
1000.047,1139.542,
997.136,1171.9726,
994.226,1173.7347,
991.315,1166.9233,
988.404,1155.7784,
985.494,1119.5582,
982.583,1110.9926,
979.673,1153.6488,
976.762,1121.6076,
973.852,1108.5245,
970.941,1126.155,
968.030,1109.357,
965.120,1129.7715,
962.209,1134.8867,
959.299,1141.416,
956.388,1155.5092,
953.477,1162.2838,
950.567,1157.1815,
947.656,1151.1903,
944.746,1139.2965,
941.835,1173.572,
938.925,1158.0602,
936.014,1136.6451,
933.103,1128.1031,
930.193,1127.1519,
927.282,1121.0708,
924.372,1126.99,
921.461,1105.658,
918.551,1077.4173,
915.640,1064.4498,
912.729,1064.6031,
909.819,1058.194,
906.908,1053.9819,
903.998,1047.3871,
901.087,1038.1119,
898.176,1050.929,
895.266,1077.685,
892.355,1096.1635,
889.445,1103.7169,
886.534,1110.429,
883.624,1123.861,
880.713,1123.6257,
877.802,1114.6235,
874.892,1107.0954,
871.981,1099.4344,
869.071,1086.0677,
866.160,1090.6496,
863.250,1090.0806,
860.339,1093.9095,
857.428,1109.0457,
854.518,1118.0038,
851.607,1092.2096,
848.697,1083.6231,
845.786,1093.1673,
842.875,1117.0328,
839.965,1133.1284,
837.054,1093.9826,
834.144,1114.7014,
831.233,1131.4158,
828.323,1141.7066,
825.412,1126.7542,
822.501,1086.75,
819.591,1086.75,
816.680,1109.1859,
813.770,1086.5574,
810.859,1076.5186,
807.949,1080.6158,
805.038,1070.5465,
802.127,1077.1315,
799.217,1069.5507,
796.306,1038.3714,
793.396,1025.7043,
790.485,1043.5404,
787.574,1056.7847,
784.664,1031.3613,
781.753,1009.3044,
778.843,1037.0161,
775.932,1064.565,
773.022,1048.0899,
770.111,1088.9688,
767.200,1055.207,
764.290,1044.3279,
761.379,1043.1745,
758.469,1044.5168,
755.558,1057.8747,
752.648,1028.549,
749.737,1052.1255,
746.826,1072.8784,
743.916,1078.75,
741.005,1079.9422,
738.095,1090.4966,
735.184,1060.2874,
732.274,1010.4113,
729.363,972.04277,
726.452,973.12861,
723.542,1030.5955,
720.631,1015.4011,
717.721,1014.9056,
714.810,1021.7954,
711.899,1030.1361,
708.989,1044.6608,
706.078,1047.9552,
703.168,1055.4294,
700.257,1062.2254,
697.347,1058.5768,
694.436,1031.768,
691.525,995.59678,
688.615,1009.7619,
685.704,1024.4768,
682.794,1027.4521,
679.883,1029.4977,
676.973,1023.8881,
674.062,1027.2166,
671.151,1045.0916,
668.241,1051.8846,
665.330,1011.1282,
662.420,1019.1155,
659.509,1024.5596,
656.598,1045.791,
653.688,1069.3697,
650.777,1063.6159,
647.867,1030.1701,
644.956,1019.6542,
642.046,1019.4084,
639.135,1025.7326,
636.224,1040.7341,
633.314,1037.5583,
630.403,1049.1654,
627.493,1059.2863,
624.582,1056.806,
621.672,1034.6302,
618.761,1022.3509,
615.850,1024.2599,
612.940,1046.8513,
610.029,1076.7521,
607.119,1046.7462,
604.208,1082.8007,
601.297,1053.3849,
598.387,1022.9415,
595.476,1059.413,
592.566,1045.2457,
589.655,1036.2711,
586.745,1031.8821,
583.834,1042.1684,
580.923,1082.7263,
578.013,1078.8026,
575.102,1065.1311,
572.192,1072.8997,
569.281,1100.6568,
566.371,1083.4391,
563.460,1110.6742,
560.549,1083.2804,
557.639,1054.3725,
554.728,1088.4544,
551.818,1083.7725,
548.907,1080.3123,
545.996,1083.8043,
543.086,1090.2401,
540.175,1083.2323,
537.265,1072.6101,
534.354,1080.7906,
531.444,1090.7994,
528.533,1087.1847,
525.622,1107.3594,
522.712,1091.1204,
519.801,1097.6078,
516.891,1130.689,
513.980,1135.3348,
511.070,1143.4978,
508.159,1155.8238,
505.248,1164.9989,
502.338,1163.6763,
499.427,1195.3214,
496.517,1194.1338,
493.606,1201.8921,
490.695,1227.6846,
487.785,1198.4325,
484.874,1189.2264,
481.964,1196.7167,
479.053,1207.9921,
476.143,1196.4727,
473.232,1202.2246,
470.321,1207.6695,
467.411,1205.4315,
464.500,1190.1573,
461.590,1206.2378,
458.679,1232.2115,
455.769,1233.9968,
452.858,1199.5114,
449.947,1197.2196,
447.037,1204.0311,
444.126,1212.0773,
441.216,1223.9676,
438.305,1259.7783,
435.395,1268.6838,
432.484,1266.9992,
429.573,1256.9574,
426.663,1236.4336,
423.752,1213.8274,
420.842,1226.2142,
417.931,1253.4738,
415.020,1259.5406,
412.110,1282.43,
409.199,1287.327,
406.289,1286.7018,
403.378,1295.9959,
400.468,1368.5714,
397.557,1350.1039,
394.646,1324.756,
391.736,1362.1705,
388.825,1344.069,
385.915,1320.6554,
383.004,1328.1646,
380.094,1385.176,
377.183,1354.3245,
374.272,1349.0067,
371.362,1344.6861,
368.451,1329.756,
365.541,1362.7796,
362.630,1361.9177,
359.719,1375.3556,
356.809,1424.4392,
353.898,1386.2505,
350.988,1399.0769,
348.077,1404.8104,
345.167,1371.8474,
342.256,1393.5124,
339.345,1380.087,
336.435,1377.4624,
333.524,1415.5151,
330.614,1408.0636,
327.703,1406.7768,
324.793,1404.3987,
321.882,1394.7752,
318.971,1405.1834,
316.061,1418.028,
313.150,1435.8333,
310.240,1461.8074,
307.329,1457.0329,
304.418,1460.2214,
301.508,1468.3254,
298.597,1474.2487,
295.687,1484.9086,
292.776,1490.1667,
289.866,1496.0435,
286.955,1521.1601,
284.044,1522.8525,
281.134,1547.6702,
278.223,1591.3189,
275.313,1588.3715,
272.402,1586.0073,
269.492,1592.0376,
266.581,1610.7454,
263.670,1652.6507,
260.760,1672.0634,
257.849,1675.9271,
254.939,1667.8544,
252.028,1669.1977,
249.117,1667.009,
246.207,1671.5158,
243.296,1701.5294,
240.386,1657.7346,
237.475,1657.338,
234.565,1695.8297,
231.654,1689.9867,
228.743,1621.4319,
225.833,1588.8242,
222.922,1628.3276,
220.012,1640.713,
217.101,1610.8906,
214.191,1578.5913,
211.280,1588.0483,
208.369,1640.5566,
205.459,1642.9927,
202.548,1605.867,
199.638,1589.1771,
196.727,1619.1705,
193.816,1635.0203,
190.906,1616.5784,
187.995,1668.7082,
185.085,1651.2858,
182.174,1622.7195,
179.264,1663.1944,
176.353,1685.6918,
173.442,1699.3756,
170.532,1702.8938,
167.621,1678.3806,
164.711,1648.625,
161.800,1606.6142,
158.890,1544.7177,
155.979,1431.5114,
153.068,1304.8719,
150.158,1171.7406,
147.247,1048.2529,
144.337,840.07487,
141.426,637.10594,
138.516,481.54054,
135.605,357.27596,
132.694,244.44917,
129.784,151.38782,
126.873,108.48003,
123.963,75.849054,
121.052,52.084216,
118.141,37.806176,
115.231,27.802015,
112.320,22.479092,
109.410,19.795513,
106.499,14.810427,
103.589,15.991018,
100.678,17.75,
97.767,17.75,
94.857,17.057011,
91.946,14.734446,
89.036,11.072613,
86.125,6.8173809,
83.215,4.1572389,
80.304,3.9471634,
77.393,7.4880131,
74.483,13.646215,
71.572,12.401775,
68.662,5.165605,
65.751,9.4043115,
62.840,10.75,
59.930,9.6262828,
57.019,5.3957909,
54.109,4.75,
51.198,6.5596557,
48.288,10.75,
45.377,10.75,
42.466,12.398877,
39.556,14.059289,
36.645,9.8461472,
33.735,9.2692485,
30.824,9.3082261,
27.914,7.9058756,
25.003,10.24055,
22.092,13.687427,
19.182,18.825495,
16.271,51.701531,
13.361,208.46717,
10.450,496.97403,
7.539,1026.9954,
4.629,1443.5655,
1.718,1556.5748,
-1.192,1073.4536,
-4.103,617.3725,
-7.013,252.6939,
-9.924,0.75,
