,PL9178~1,
Wavenumbers [1/cm],Intensity,
3014.167,-4.25,
3011.256,0.6998819,
3008.346,84.965853,
3005.435,100.2129,
3002.525,103.57998,
2999.614,112.03701,
2996.704,113.15722,
2993.793,112.25461,
2990.882,105.36071,
2987.972,121.73991,
2985.061,119.30665,
2982.151,117.86933,
2979.240,122.4477,
2976.329,130.24181,
2973.419,138.71945,
2970.508,134.68331,
2967.598,138.98896,
2964.687,144.70516,
2961.777,151.18595,
2958.866,149.41568,
2955.955,145.43806,
2953.045,145.33615,
2950.134,166.96283,
2947.224,168.06316,
2944.313,172.45798,
2941.403,156.92838,
2938.492,157.20801,
2935.581,167.93283,
2932.671,163.83589,
2929.760,176.10766,
2926.850,159.80226,
2923.939,172.03038,
2921.028,175.37358,
2918.118,190.48929,
2915.207,189.45892,
2912.297,199.72038,
2909.386,179.92519,
2906.476,196.3539,
2903.565,187.34779,
2900.654,186.0432,
2897.744,191.86315,
2894.833,183.01837,
2891.923,152.8846,
2889.012,171.50144,
2886.102,171.58243,
2883.191,180.74434,
2880.280,127.81697,
2877.370,61.709393,
2874.459,20.026964,
2871.549,76.855487,
2868.638,138.48192,
2865.727,185.48845,
2862.817,185.64974,
2859.906,211.72436,
2856.996,193.79529,
2854.085,195.1933,
2851.175,200.23183,
2848.264,216.26451,
2845.353,214.40493,
2842.443,201.94443,
2839.532,195.10828,
2836.622,186.48047,
2833.711,198.06868,
2830.801,212.7353,
2827.890,207.58216,
2824.979,207.52796,
2822.069,200.88647,
2819.158,209.70957,
2816.248,204.00289,
2813.337,219.72927,
2810.427,210.79408,
2807.516,208.90828,
2804.605,224.70673,
2801.695,219.57895,
2798.784,207.85885,
2795.874,222.88984,
2792.963,220.60702,
2790.052,219.74957,
2787.142,219.75,
2784.231,210.52486,
2781.321,224.4357,
2778.410,220.99492,
2775.500,225.81345,
2772.589,214.5581,
2769.678,223.53497,
2766.768,229.99661,
2763.857,213.8579,
2760.947,228.20272,
2758.036,221.59714,
2755.126,222.74359,
2752.215,229.11351,
2749.304,230.21761,
2746.394,235.96169,
2743.483,237.3,
2740.573,224.44242,
2737.662,229.39941,
2734.751,224.44893,
2731.841,235.10165,
2728.930,244.72886,
2726.020,242.75521,
2723.109,236.99758,
2720.199,245.10314,
2717.288,244.38139,
2714.377,240.52508,
2711.467,258.65219,
2708.556,251.47295,
2705.646,256.76406,
2702.735,262.73452,
2699.825,247.26091,
2696.914,249.17864,
2694.003,269.85082,
2691.093,250.35652,
2688.182,254.37,
2685.272,250.67034,
2682.361,249.75,
2679.450,244.79529,
2676.540,252.87194,
2673.629,260.07735,
2670.719,247.97642,
2667.808,264.48547,
2664.898,269.19164,
2661.987,264.18332,
2659.076,263.75,
2656.166,255.86257,
2653.255,257.04422,
2650.345,260.39791,
2647.434,274.86461,
2644.524,278.64205,
2641.613,277.40745,
2638.702,283.73422,
2635.792,272.8138,
2632.881,263.32737,
2629.971,268.98493,
2627.060,281.41625,
2624.149,276.94064,
2621.239,282.02816,
2618.328,274.34342,
2615.418,289.07727,
2612.507,282.44173,
2609.597,277.65818,
2606.686,279.28214,
2603.775,282.54761,
2600.865,282.39508,
2597.954,290.50423,
2595.044,275.00067,
2592.133,287.63529,
2589.223,293.55738,
2586.312,303.60426,
2583.401,301.91421,
2580.491,298.3798,
2577.580,310.72359,
2574.670,292.25936,
2571.759,286.30051,
2568.848,300.74455,
2565.938,320.7026,
2563.027,290.65228,
2560.117,299.55376,
2557.206,312.07841,
2554.296,305.377,
2551.385,309.70011,
2548.474,314.60167,
2545.564,310.75,
2542.653,323.19296,
2539.743,310.18223,
2536.832,305.17803,
2533.922,314.01808,
2531.011,326.90033,
2528.100,319.94862,
2525.190,324.33115,
2522.279,310.68796,
2519.369,329.44813,
2516.458,323.74646,
2513.548,322.98632,
2510.637,333.25814,
2507.726,323.25185,
2504.816,324.50085,
2501.905,330.56159,
2498.995,336.89871,
2496.084,319.09502,
2493.173,344.19735,
2490.263,340.55903,
2487.352,341.54293,
2484.442,361.45877,
2481.531,359.43091,
2478.621,359.8922,
2475.710,324.88035,
2472.799,341.50337,
2469.889,347.53672,
2466.978,363.40971,
2464.068,382.0728,
2461.157,356.36501,
2458.247,360.72066,
2455.336,365.45254,
2452.425,348.59432,
2449.515,390.07015,
2446.604,358.10949,
2443.694,362.2854,
2440.783,368.70158,
2437.872,374.56768,
2434.962,370.80069,
2432.051,367.89804,
2429.141,371.71458,
2426.230,398.18541,
2423.320,381.10684,
2420.409,395.64099,
2417.498,390.37359,
2414.588,388.83743,
2411.677,375.10858,
2408.767,384.49705,
2405.856,379.52859,
2402.946,380.22632,
2400.035,386.34625,
2397.124,408.39172,
2394.214,389.75,
2391.303,387.07046,
2388.393,388.48257,
2385.482,359.15998,
2382.571,383.2564,
2379.661,399.35432,
2376.750,408.17625,
2373.840,408.2218,
2370.929,430.55507,
2368.019,404.97907,
2365.108,405.30759,
2362.197,416.12537,
2359.287,407.77507,
2356.376,402.75352,
2353.466,413.58394,
2350.555,402.77493,
2347.645,428.76056,
2344.734,444.02188,
2341.823,427.99875,
2338.913,432.55296,
2336.002,428.13268,
2333.092,452.5085,
2330.181,438.88816,
2327.270,430.86001,
2324.360,447.00238,
2321.449,433.81122,
2318.539,439.45338,
2315.628,455.02698,
2312.718,444.50109,
2309.807,417.43892,
2306.896,463.7187,
2303.986,443.04862,
2301.075,444.09038,
2298.165,446.16336,
2295.254,472.1468,
2292.344,455.48861,
2289.433,456.47591,
2286.522,466.61611,
2283.612,454.84948,
2280.701,446.55719,
2277.791,459.23277,
2274.880,494.536,
2271.969,486.4002,
2269.059,478.66009,
2266.148,489.04549,
2263.238,490.85039,
2260.327,488.33588,
2257.417,460.25722,
2254.506,484.864,
2251.595,494.04094,
2248.685,499.32497,
2245.774,495.54133,
2242.864,472.9819,
2239.953,494.16373,
2237.043,502.63286,
2234.132,504.90841,
2231.221,519.27717,
2228.311,520.14047,
2225.400,515.14404,
2222.490,528.75,
2219.579,522.93763,
2216.669,517.72138,
2213.758,519.18398,
2210.847,518.36209,
2207.937,550.40631,
2205.026,532.63834,
2202.116,547.75,
2199.205,547.33753,
2196.294,541.69201,
2193.384,557.64403,
2190.473,533.14671,
2187.563,549.837,
2184.652,567.14755,
2181.742,570.84179,
2178.831,589.06907,
2175.920,607.07059,
2173.010,603.52381,
2170.099,623.74703,
2167.189,644.91504,
2164.278,669.5108,
2161.368,693.46263,
2158.457,735.37529,
2155.546,768.17312,
2152.636,820.59033,
2149.725,840.74328,
2146.815,863.98251,
2143.904,888.14777,
2140.993,890.19964,
2138.083,929.70433,
2135.172,935.42213,
2132.262,932.27465,
2129.351,926.13611,
2126.441,907.49753,
2123.530,906.30104,
2120.619,862.75934,
2117.709,832.21256,
2114.798,806.64989,
2111.888,757.43896,
2108.977,716.84933,
2106.067,691.2738,
2103.156,669.7928,
2100.245,672.73557,
2097.335,648.66623,
2094.424,635.72366,
2091.514,612.5994,
2088.603,606.86979,
2085.692,605.29281,
2082.782,602.28411,
2079.871,601.28559,
2076.961,621.32929,
2074.050,596.96212,
2071.140,619.78456,
2068.229,621.0091,
2065.318,629.32949,
2062.408,619.68948,
2059.497,604.51188,
2056.587,604.51724,
2053.676,598.31737,
2050.766,597.59604,
2047.855,599.09175,
2044.944,610.88301,
2042.034,610.56501,
2039.123,610.83081,
2036.213,611.23219,
2033.302,600.66306,
2030.391,597.1738,
2027.481,605.42064,
2024.570,594.42181,
2021.660,617.15351,
2018.749,618.40809,
2015.839,611.90223,
2012.928,621.38255,
2010.017,615.84013,
2007.107,634.33131,
2004.196,636.30953,
2001.286,645.39663,
1998.375,635.83267,
1995.465,610.87143,
1992.554,611.00878,
1989.643,604.99195,
1986.733,629.07105,
1983.822,637.14808,
1980.912,641.72939,
1978.001,615.5886,
1975.090,631.95305,
1972.180,636.54254,
1969.269,637.65516,
1966.359,632.45269,
1963.448,638.32464,
1960.538,663.47227,
1957.627,648.24224,
1954.716,631.1809,
1951.806,664.00483,
1948.895,644.90392,
1945.985,613.99673,
1943.074,627.51745,
1940.164,626.94202,
1937.253,626.56256,
1934.342,627.50188,
1931.432,620.10962,
1928.521,642.89335,
1925.611,610.71141,
1922.700,615.74447,
1919.790,637.97524,
1916.879,609.12148,
1913.968,626.72541,
1911.058,626.53379,
1908.147,650.42152,
1905.237,644.3309,
1902.326,644.20187,
1899.415,610.48536,
1896.505,618.97912,
1893.594,659.83237,
1890.684,660.22723,
1887.773,658.61172,
1884.863,676.40376,
1881.952,671.68259,
1879.041,657.15914,
1876.131,636.64805,
1873.220,627.51989,
1870.310,666.66473,
1867.399,656.95792,
1864.489,650.3731,
1861.578,660.79983,
1858.667,617.00446,
1855.757,643.54356,
1852.846,659.04228,
1849.936,675.28555,
1847.025,665.27553,
1844.114,672.69114,
1841.204,660.45629,
1838.293,666.24584,
1835.383,669.843,
1832.472,673.12217,
1829.562,677.94401,
1826.651,677.69867,
1823.740,677.47797,
1820.830,693.18321,
1817.919,709.15127,
1815.009,680.06934,
1812.098,682.82874,
1809.188,692.19184,
1806.277,690.79426,
1803.366,703.08272,
1800.456,722.53017,
1797.545,717.09051,
1794.635,701.91102,
1791.724,711.07037,
1788.813,724.55874,
1785.903,748.93607,
1782.992,712.11951,
1780.082,648.8005,
1777.171,673.41488,
1774.261,678.43024,
1771.350,710.22675,
1768.439,718.38699,
1765.529,723.02598,
1762.618,753.41252,
1759.708,763.75,
1756.797,763.75,
1753.887,753.03134,
1750.976,735.31545,
1748.065,773.60406,
1745.155,758.95675,
1742.244,759.24905,
1739.334,765.58765,
1736.423,754.27151,
1733.512,762.39231,
1730.602,787.69447,
1727.691,795.51766,
1724.781,783.95135,
1721.870,804.893,
1718.960,777.03848,
1716.049,826.80028,
1713.138,800.13018,
1710.228,767.64109,
1707.317,825.67,
1704.407,831.05481,
1701.496,828.9269,
1698.586,836.14188,
1695.675,851.72134,
1692.764,864.11066,
1689.854,886.75395,
1686.943,879.05353,
1684.033,847.54476,
1681.122,893.93436,
1678.211,921.49303,
1675.301,895.83017,
1672.390,936.63635,
1669.480,899.35165,
1666.569,973.61035,
1663.659,962.701,
1660.748,961.31182,
1657.837,1039.2847,
1654.927,975.08546,
1652.016,1030.4584,
1649.106,1018.75,
1646.195,1020.764,
1643.285,1101.3828,
1640.374,1044.1298,
1637.463,1108.696,
1634.553,1106.5332,
1631.642,1158.6088,
1628.732,1146.3307,
1625.821,1243.7749,
1622.911,1281.5359,
1620.000,1346.9185,
1617.089,1416.357,
1614.179,1516.8735,
1611.268,1550.5603,
1608.358,1667.0844,
1605.447,1708.5789,
1602.536,1763.8676,
1599.626,1737.3922,
1596.715,1751.0868,
1593.805,1720.5541,
1590.894,1707.9433,
1587.984,1687.696,
1585.073,1728.1417,
1582.162,1703.1894,
1579.252,1612.465,
1576.341,1586.5404,
1573.431,1583.9668,
1570.520,1576.1062,
1567.610,1567.044,
1564.699,1555.3246,
1561.788,1531.3277,
1558.878,1541.1846,
1555.967,1526.6267,
1553.057,1504.5432,
1550.146,1471.7101,
1547.235,1459.4726,
1544.325,1406.1968,
1541.414,1389.7529,
1538.504,1400.9325,
1535.593,1370.7603,
1532.683,1346.6155,
1529.772,1341.75,
1526.861,1346.9803,
1523.951,1331.6413,
1521.040,1302.6846,
1518.130,1308.6634,
1515.219,1287.8694,
1512.309,1292.8941,
1509.398,1259.1433,
1506.487,1313.742,
1503.577,1310.8468,
1500.666,1242.3096,
1497.756,1247.284,
1494.845,1252.8695,
1491.934,1231.8917,
1489.024,1275.2039,
1486.113,1276.75,
1483.203,1232.3416,
1480.292,1215.7194,
1477.382,1204.8593,
1474.471,1199.6805,
1471.560,1198.75,
1468.650,1221.9813,
1465.739,1211.6138,
1462.829,1208.1054,
1459.918,1222.5899,
1457.008,1206.3959,
1454.097,1180.5149,
1451.186,1176.3341,
1448.276,1187.557,
1445.365,1206.4641,
1442.455,1198.5569,
1439.544,1173.9816,
1436.633,1152.6547,
1433.723,1222.8897,
1430.812,1191.4837,
1427.902,1226.1559,
1424.991,1243.2156,
1422.081,1234.5752,
1419.170,1185.3626,
1416.259,1180.9903,
1413.349,1165.1347,
1410.438,1179.3438,
1407.528,1204.4873,
1404.617,1172.651,
1401.707,1153.8189,
1398.796,1172.6626,
1395.885,1186.6437,
1392.975,1199.6045,
1390.064,1218.6931,
1387.154,1203.5522,
1384.243,1139.0274,
1381.332,1183.3979,
1378.422,1221.861,
1375.511,1243.407,
1372.601,1247.4363,
1369.690,1269.1806,
1366.780,1267.2058,
1363.869,1363.0979,
1360.958,1380.6037,
1358.048,1367.7834,
1355.137,1392.0342,
1352.227,1445.4887,
1349.316,1476.0841,
1346.406,1467.7921,
1343.495,1462.5113,
1340.584,1452.2143,
1337.674,1460.5773,
1334.763,1548.9857,
1331.853,1502.6242,
1328.942,1537.218,
1326.032,1527.8844,
1323.121,1586.991,
1320.210,1596.7634,
1317.300,1607.8667,
1314.389,1636.7087,
1311.479,1679.8372,
1308.568,1728.3993,
1305.657,1757.8072,
1302.747,1786.3186,
1299.836,1852.1726,
1296.926,1882.8954,
1294.015,1864.5089,
1291.105,1878.7192,
1288.194,1947.8444,
1285.283,2001.2662,
1282.373,2031.5703,
1279.462,2038.554,
1276.552,2087.8526,
1273.641,2144.4724,
1270.731,2150.453,
1267.820,2177.697,
1264.909,2190.9366,
1261.999,2177.0177,
1259.088,2156.951,
1256.178,2105.2191,
1253.267,2096.75,
1250.356,2060.1783,
1247.446,2006.9596,
1244.535,1954.9911,
1241.625,1903.9315,
1238.714,1844.7751,
1235.804,1788.9102,
1232.893,1778.126,
1229.982,1772.1861,
1227.072,1726.0152,
1224.161,1653.8287,
1221.251,1629.5824,
1218.340,1614.7372,
1215.430,1609.8511,
1212.519,1599.431,
1209.608,1574.7644,
1206.698,1558.3246,
1203.787,1566.2575,
1200.877,1554.7002,
1197.966,1586.1708,
1195.055,1617.6137,
1192.145,1679.1008,
1189.234,1726.2969,
1186.324,1740.659,
1183.413,1737.5419,
1180.503,1735.7618,
1177.592,1735.4267,
1174.681,1720.6541,
1171.771,1672.5742,
1168.860,1708.2978,
1165.950,1670.6292,
1163.039,1654.4644,
1160.129,1645.8514,
1157.218,1627.3279,
1154.307,1616.5733,
1151.397,1625.532,
1148.486,1629.9978,
1145.576,1641.8634,
1142.665,1621.4414,
1139.754,1614.0546,
1136.844,1593.1415,
1133.933,1591.7881,
1131.023,1612.3292,
1128.112,1630.8213,
1125.202,1633.2331,
1122.291,1643.2729,
1119.380,1702.4728,
1116.470,1674.2319,
1113.559,1676.1627,
1110.649,1650.2465,
1107.738,1657.7185,
1104.828,1660.9382,
1101.917,1640.8211,
1099.006,1641.5439,
1096.096,1620.6212,
1093.185,1602.1831,
1090.275,1640.4042,
1087.364,1652.4945,
1084.453,1632.3764,
1081.543,1644.6726,
1078.632,1673.2884,
1075.722,1662.0844,
1072.811,1691.2059,
1069.901,1655.4022,
1066.990,1699.6332,
1064.079,1716.1941,
1061.169,1728.1391,
1058.258,1740.4083,
1055.348,1744.9862,
1052.437,1743.3738,
1049.527,1754.5682,
1046.616,1698.0943,
1043.705,1737.2251,
1040.795,1735.4259,
1037.884,1740.4049,
1034.974,1745.9291,
1032.063,1726.7887,
1029.153,1710.4504,
1026.242,1732.9393,
1023.331,1798.7458,
1020.421,1781.0775,
1017.510,1781.7569,
1014.600,1824.8927,
1011.689,1867.6097,
1008.778,1861.5246,
1005.868,1842.9817,
1002.957,1868.7923,
1000.047,1945.55,
997.136,1971.5753,
994.226,1983.2421,
991.315,1989.6163,
988.404,1963.724,
985.494,1938.0761,
982.583,1952.6375,
979.673,1972.3095,
976.762,1939.4142,
973.852,1943.1327,
970.941,1970.0056,
968.030,1941.2529,
965.120,1949.886,
962.209,1982.2826,
959.299,1999.7902,
956.388,1979.5516,
953.477,1985.6447,
950.567,2016.2144,
947.656,2001.0923,
944.746,2026.579,
941.835,2032.6089,
938.925,2021.247,
936.014,2007.1626,
933.103,1987.3917,
930.193,1964.1507,
927.282,1959.871,
924.372,1925.2012,
921.461,1883.1936,
918.551,1873.8165,
915.640,1855.9278,
912.729,1831.7753,
909.819,1841.7492,
906.908,1834.1673,
903.998,1786.8235,
901.087,1829.4895,
898.176,1859.7956,
895.266,1857.7978,
892.355,1865.4877,
889.445,1917.5223,
886.534,1945.3008,
883.624,1923.1639,
880.713,1943.4335,
877.802,1957.3382,
874.892,1904.733,
871.981,1823.0534,
869.071,1751.2079,
866.160,1802.2263,
863.250,1854.8633,
860.339,1891.4269,
857.428,1923.8719,
854.518,1947.9446,
851.607,1885.5394,
848.697,1834.1688,
845.786,1817.3069,
842.875,1850.9085,
839.965,1911.1092,
837.054,1912.8244,
834.144,1919.4544,
831.233,1961.4137,
828.323,1989.6631,
825.412,1984.2276,
822.501,1949.0477,
819.591,1911.8597,
816.680,1925.1731,
813.770,1931.8825,
810.859,1910.7367,
807.949,1871.4499,
805.038,1845.9314,
802.127,1880.5028,
799.217,1842.7535,
796.306,1834.4257,
793.396,1830.5743,
790.485,1815.4336,
787.574,1807.9021,
784.664,1838.2462,
781.753,1849.7889,
778.843,1858.631,
775.932,1866.2932,
773.022,1877.2311,
770.111,1925.4682,
767.200,1864.7998,
764.290,1858.0412,
761.379,1857.1156,
758.469,1850.167,
755.558,1884.2669,
752.648,1834.5761,
749.737,1790.1522,
746.826,1797.3922,
743.916,1826.75,
741.005,1820.9726,
738.095,1769.8243,
735.184,1725.8518,
732.274,1664.471,
729.363,1657.718,
726.452,1735.6668,
723.542,1785.0398,
720.631,1806.8635,
717.721,1824.7798,
714.810,1830.7046,
711.899,1831.2055,
708.989,1854.6063,
706.078,1849.1409,
703.168,1822.8539,
700.257,1825.3157,
697.347,1835.8821,
694.436,1778.8591,
691.525,1782.8781,
688.615,1799.4728,
685.704,1826.8811,
682.794,1850.2819,
679.883,1847.5245,
676.973,1820.2779,
674.062,1837.721,
671.151,1856.01,
668.241,1853.6966,
665.330,1824.2584,
662.420,1813.8749,
659.509,1816.8294,
656.598,1844.4167,
653.688,1879.5105,
650.777,1888.993,
647.867,1896.16,
644.956,1873.6031,
642.046,1809.4128,
639.135,1753.5842,
636.224,1805.8893,
633.314,1833.6771,
630.403,1831.2906,
627.493,1844.7219,
624.582,1871.2763,
621.672,1846.7245,
618.761,1844.2301,
615.850,1875.1563,
612.940,1894.9439,
610.029,1890.9837,
607.119,1934.4134,
604.208,1916.0296,
601.297,1920.7085,
598.387,1908.0932,
595.476,1844.4983,
592.566,1873.6199,
589.655,1867.7359,
586.745,1864.3538,
583.834,1872.1417,
580.923,1888.0059,
578.013,1930.3815,
575.102,1893.5686,
572.192,1860.9656,
569.281,1877.998,
566.371,1940.6079,
563.460,1922.7641,
560.549,1895.6952,
557.639,1889.5668,
554.728,1920.2719,
551.818,1896.8624,
548.907,1931.3619,
545.996,1948.9742,
543.086,1936.75,
540.175,1936.75,
537.265,1924.4373,
534.354,1933.7973,
531.444,1940.5049,
528.533,1919.5979,
525.622,1889.3359,
522.712,1945.2456,
519.801,1976.203,
516.891,1966.2277,
513.980,1993.328,
511.070,2027.4456,
508.159,2043.6154,
505.248,2048.5025,
502.338,2055.0603,
499.427,2099.8266,
496.517,2106.6591,
493.606,2107.1244,
490.695,2114.4662,
487.785,2105.2287,
484.874,2111.5047,
481.964,2132.7764,
479.053,2147.5571,
476.143,2109.159,
473.232,2113.2246,
470.321,2102.6124,
467.411,2085.9641,
464.500,2078.3318,
461.590,2101.304,
458.679,2128.6612,
455.769,2151.1061,
452.858,2164.1021,
449.947,2177.0889,
447.037,2185.2108,
444.126,2183.9439,
441.216,2182.7613,
438.305,2223.1437,
435.395,2224.8162,
432.484,2220.2495,
429.573,2205.9224,
426.663,2159.5538,
423.752,2115.2997,
420.842,2019.2,
417.931,1930.7058,
415.020,1948.148,
412.110,2087.7565,
409.199,2173.9578,
406.289,2221.5731,
403.378,2254.8781,
400.468,2292.6778,
397.557,2245.1087,
394.646,2220.8021,
391.736,2308.1122,
388.825,2319.4256,
385.915,2299.3335,
383.004,2289.0296,
380.094,2316.2472,
377.183,2345.5938,
374.272,2338.5521,
371.362,2354.5941,
368.451,2420.741,
365.541,2371.2056,
362.630,2354.4726,
359.719,2378.683,
356.809,2442.2516,
353.898,2434.0148,
350.988,2427.9526,
348.077,2424.75,
345.167,2424.031,
342.256,2409.8367,
339.345,2389.807,
336.435,2401.0109,
333.524,2466.6091,
330.614,2462.1381,
327.703,2433.5395,
324.793,2402.3364,
321.882,2386.8311,
318.971,2420.286,
316.061,2463.0021,
313.150,2497.8286,
310.240,2504.5076,
307.329,2495.4597,
304.418,2505.4286,
301.508,2518.4023,
298.597,2505.8152,
295.687,2508.1362,
292.776,2516.4167,
289.866,2540.2292,
286.955,2608.9307,
284.044,2635.195,
281.134,2652.8963,
278.223,2673.648,
275.313,2720.8067,
272.402,2687.1823,
269.492,2667.7904,
266.581,2695.274,
263.670,2716.5942,
260.760,2764.0183,
257.849,2803.803,
254.939,2809.6741,
252.028,2820.6077,
249.117,2843.4799,
246.207,2862.53,
243.296,2850.0854,
240.386,2827.2013,
237.475,2807.6821,
234.565,2797.971,
231.654,2818.4217,
228.743,2806.6397,
225.833,2785.2982,
222.922,2764.9391,
220.012,2790.4385,
217.101,2768.8163,
214.191,2750.8636,
211.280,2794.5114,
208.369,2784.2937,
205.459,2781.7425,
202.548,2781.1065,
199.638,2742.6471,
196.727,2781.4235,
193.816,2813.0408,
190.906,2807.588,
187.995,2831.4808,
185.085,2842.5871,
182.174,2859.266,
179.264,2909.1368,
176.353,2882.0703,
173.442,2881.8779,
170.532,2913.582,
167.621,2912.14,
164.711,2827.6592,
161.800,2708.7412,
158.890,2582.7889,
155.979,2444.6006,
153.068,2241.6804,
150.158,1994.1286,
147.247,1772.9993,
144.337,1471.1394,
141.426,1155.3099,
138.516,854.21557,
135.605,622.0846,
132.694,422.22002,
129.784,262.44374,
126.873,178.77355,
123.963,124.76044,
121.052,86.268299,
118.141,59.853925,
115.231,46.249163,
112.320,37.360913,
109.410,33.022711,
106.499,34.447021,
103.589,31.388473,
100.678,27.12027,
97.767,22.854644,
94.857,22.057011,
91.946,16.91267,
89.036,9.8628979,
86.125,10.572103,
83.215,11.28092,
80.304,11.510567,
77.393,10.802397,
74.483,12.06027,
71.572,11.662944,
68.662,9.75,
65.751,9.75,
62.840,10.231702,
59.930,9.6262828,
57.019,5.3957909,
54.109,7.7358042,
51.198,7.0355165,
48.288,0.78963709,
45.377,5.7132836,
42.466,9.3988774,
39.556,11.519763,
36.645,10.115382,
33.735,9.75,
30.824,7.5411303,
27.914,0.52937781,
25.003,7.2216497,
22.092,10.135477,
19.182,7.3907202,
16.271,26.976444,
13.361,124.52055,
10.450,292.94135,
7.539,555.50793,
4.629,630.46222,
1.718,520.86115,
-1.192,143.00881,
-4.103,18.183645,
-7.013,-21.825306,
-9.924,-0.25,
