,PLF53F~1,
Raman shift [1/cm],Intensity,
3014.167,2,
3011.256,0.44998926,
3008.346,196.09012,
3005.435,240,
3002.525,248.71756,
2999.614,249.80262,
2996.704,262.68144,
2993.793,267.86694,
2990.882,281.34347,
2987.972,283.97982,
2985.061,283.99015,
2982.151,292.52269,
2979.240,322.73384,
2976.329,337.2814,
2973.419,334,
2970.508,342.01662,
2967.598,341.19116,
2964.687,354.07405,
2961.777,377.58988,
2958.866,378.33432,
2955.955,377.75885,
2953.045,372.75169,
2950.134,400.16038,
2947.224,418.94306,
2944.313,417.44943,
2941.403,450.15556,
2938.492,452.44716,
2935.581,449.02702,
2932.671,443.72537,
2929.760,465.11922,
2926.850,463.79098,
2923.939,476.03736,
2921.028,479.60583,
2918.118,468.96222,
2915.207,504.65845,
2912.297,517.99577,
2909.386,498.42335,
2906.476,505.58146,
2903.565,476.70814,
2900.654,506.89382,
2897.744,507.76113,
2894.833,488.17527,
2891.923,486.1891,
2889.012,486.20231,
2886.102,509.02027,
2883.191,497.01322,
2880.280,464.58372,
2877.370,462.5581,
2874.459,473.23894,
2871.549,500.64518,
2868.638,532.77319,
2865.727,524.53073,
2862.817,528.79947,
2859.906,536.4302,
2856.996,524.53397,
2854.085,531.08406,
2851.175,531.75908,
2848.264,522.7795,
2845.353,537.0647,
2842.443,536.00696,
2839.532,513.70159,
2836.622,500.37109,
2833.711,517.06748,
2830.801,496.40294,
2827.890,498.04549,
2824.979,511.22204,
2822.069,525.77256,
2819.158,508.66038,
2816.248,513.74711,
2813.337,541.16465,
2810.427,517.56612,
2807.516,510.94969,
2804.605,513.67789,
2801.695,523.47367,
2798.784,537.59546,
2795.874,518.87073,
2792.963,523.35756,
2790.052,528.00107,
2787.142,514.53935,
2784.231,505.96739,
2781.321,530.11419,
2778.410,509.8845,
2775.500,515.63897,
2772.589,521.84557,
2769.678,524.13988,
2766.768,532.94174,
2763.857,538.15607,
2760.947,537.08826,
2758.036,526.43297,
2755.126,547,
2752.215,546.46818,
2749.304,539.02159,
2746.394,556.27015,
2743.483,554.40003,
2740.573,550.77434,
2737.662,539.48815,
2734.751,568.44176,
2731.841,551.94505,
2728.930,562.85601,
2726.020,566.45949,
2723.109,554.94884,
2720.199,565.86248,
2717.288,572.26278,
2714.377,581.09574,
2711.467,573.77033,
2708.556,584.12758,
2705.646,597.98594,
2702.735,571.52837,
2699.825,599,
2696.914,592.52363,
2694.003,596.18373,
2691.093,598.05296,
2688.182,593.45556,
2685.272,574.51351,
2682.361,598.69978,
2679.450,598.38276,
2676.540,602.79676,
2673.629,592.00449,
2670.719,604.13125,
2667.808,611.04864,
2664.898,600.11673,
2661.987,599.93316,
2659.076,613.94826,
2656.166,602.50206,
2653.255,628.48129,
2650.345,642.3285,
2647.434,637.34296,
2644.524,644.08874,
2641.613,649,
2638.702,651.95266,
2635.792,632.59124,
2632.881,642.18469,
2629.971,635,
2627.060,642.49844,
2624.149,652.24375,
2621.239,670.79299,
2618.328,660.87284,
2615.418,659.65909,
2612.507,676.65212,
2609.597,643.22355,
2606.686,671.68874,
2603.775,664.72223,
2600.865,670.47098,
2597.954,669.3354,
2595.044,675.66962,
2592.133,682.94912,
2589.223,702.26528,
2586.312,701.21613,
2583.401,690.56938,
2580.491,698.7404,
2577.580,687.01485,
2574.670,693.23263,
2571.759,696.45975,
2568.848,693.47508,
2565.938,704.47616,
2563.027,713.75679,
2560.117,713.10278,
2557.206,721.56088,
2554.296,732.3135,
2551.385,727.24798,
2548.474,719.37026,
2545.564,742.17696,
2542.653,728.87247,
2539.743,747.09858,
2536.832,733.71402,
2533.922,747.76346,
2531.011,732.17507,
2528.100,748.12549,
2525.190,764,
2522.279,771.29653,
2519.369,756.39626,
2516.458,746.66077,
2513.548,754.56343,
2510.637,768.97107,
2507.726,740.18588,
2504.816,766.37769,
2501.905,743.23232,
2498.995,755.77635,
2496.084,771.06622,
2493.173,774.68411,
2490.263,779.97741,
2487.352,781.45907,
2484.442,790.86082,
2481.531,790.10636,
2478.621,808.12328,
2475.710,817.96933,
2472.799,819.91922,
2469.889,832.66758,
2466.978,803.18579,
2464.068,817.94188,
2461.157,801.0424,
2458.247,817.57352,
2455.336,820.29746,
2452.425,829.13208,
2449.515,838.93346,
2446.604,822.64051,
2443.694,846.37257,
2440.783,830.89977,
2437.872,821.7293,
2434.962,837.58526,
2432.051,848.48186,
2429.141,873.55878,
2426.230,852.56459,
2423.320,854.11453,
2420.409,847.78198,
2417.498,875.53935,
2414.588,875.28524,
2411.677,887.21515,
2408.767,889.96457,
2405.856,873.96432,
2402.946,868.73816,
2400.035,863.70657,
2397.124,895.42782,
2394.214,886.5684,
2391.303,893.46409,
2388.393,899.71862,
2385.482,885.74905,
2382.571,914.35468,
2379.661,926.09266,
2376.750,952.47542,
2373.840,930.5282,
2370.929,938.85921,
2368.019,938.61453,
2365.108,934.62827,
2362.197,952.50146,
2359.287,966.20167,
2356.376,925.0722,
2353.466,946.24319,
2350.555,942.11026,
2347.645,964.24899,
2344.734,951.51147,
2341.823,978.45275,
2338.913,973.64477,
2336.002,975.33729,
2333.092,982.68963,
2330.181,1004.3708,
2327.270,989.26512,
2324.360,978.91502,
2321.449,1011.8299,
2318.539,1003.5535,
2315.628,1018.554,
2312.718,996.61893,
2309.807,1028.1366,
2306.896,1027.4804,
2303.986,1019.5649,
2301.075,1019.617,
2298.165,1031.1733,
2295.254,1037.9138,
2292.344,1042.4233,
2289.433,1034.3359,
2286.522,1046.8079,
2283.612,1064.2105,
2280.701,1042.7669,
2277.791,1055.0401,
2274.880,1066.9138,
2271.969,1084.9506,
2269.059,1061.7303,
2266.148,1079.025,
2263.238,1054.112,
2260.327,1125.8274,
2257.417,1110.4744,
2254.506,1124.9459,
2251.595,1120.022,
2248.685,1096.8442,
2245.774,1114.8238,
2242.864,1169.0549,
2239.953,1132.5795,
2237.043,1121.5339,
2234.132,1153.9558,
2231.221,1145.9198,
2228.311,1155.7874,
2225.400,1153.9569,
2222.490,1185.7003,
2219.579,1181.0257,
2216.669,1185.9857,
2213.758,1192.2614,
2210.847,1227.0478,
2207.937,1229.2443,
2205.026,1271.5557,
2202.116,1276.9151,
2199.205,1306.1247,
2196.294,1325.488,
2193.384,1358.0255,
2190.473,1390.1655,
2187.563,1405.1063,
2184.652,1435.7355,
2181.742,1487.0684,
2178.831,1496.3969,
2175.920,1525.898,
2173.010,1578.5278,
2170.099,1602.3988,
2167.189,1634.3803,
2164.278,1691.9889,
2161.368,1734.1413,
2158.457,1800.0429,
2155.546,1859.575,
2152.636,1894.6914,
2149.725,1954.1006,
2146.815,1978.4995,
2143.904,2002.7174,
2140.993,2046.164,
2138.083,2060.5775,
2135.172,2079,
2132.262,2073.3671,
2129.351,2082.838,
2126.441,2010.1357,
2123.530,1973.5174,
2120.619,1917.6519,
2117.709,1810.2681,
2114.798,1719.9151,
2111.888,1652.2763,
2108.977,1578.2251,
2106.067,1527.7319,
2103.156,1520.8798,
2100.245,1474.9799,
2097.335,1438.1833,
2094.424,1396.2982,
2091.514,1362.1289,
2088.603,1349.4424,
2085.692,1373.4126,
2082.782,1382,
2079.871,1345.0339,
2076.961,1351.9668,
2074.050,1353.1273,
2071.140,1341.149,
2068.229,1359.0196,
2065.318,1335.7655,
2062.408,1323.7042,
2059.497,1321.4226,
2056.587,1353.8252,
2053.676,1334.6018,
2050.766,1320.6158,
2047.855,1300.5981,
2044.944,1321.6651,
2042.034,1326.948,
2039.123,1328.6397,
2036.213,1329.5378,
2033.302,1339.9782,
2030.391,1321.8142,
2027.481,1335.0363,
2024.570,1338.1002,
2021.660,1378.3983,
2018.749,1355.038,
2015.839,1360.8425,
2012.928,1384.6443,
2010.017,1365.8437,
2007.107,1368.3701,
2004.196,1345.7857,
2001.286,1353.9187,
1998.375,1333.686,
1995.465,1367.983,
1992.554,1345.065,
1989.643,1360.2742,
1986.733,1322.893,
1983.822,1315.2164,
1980.912,1290.0206,
1978.001,1327.449,
1975.090,1335,
1972.180,1325.8285,
1969.269,1339.7759,
1966.359,1345.6755,
1963.448,1322.9287,
1960.538,1338.0993,
1957.627,1321.6006,
1954.716,1345.2244,
1951.806,1338.2484,
1948.895,1343.2551,
1945.985,1340.3023,
1943.074,1320.0369,
1940.164,1322.4713,
1937.253,1329.5436,
1934.342,1311.923,
1931.432,1304.7319,
1928.521,1335.8722,
1925.611,1324.6107,
1922.700,1289.4655,
1919.790,1310.5604,
1916.879,1271.2782,
1913.968,1319.9361,
1911.058,1296.1231,
1908.147,1308.2803,
1905.237,1292.1398,
1902.326,1333.7022,
1899.415,1341.5975,
1896.505,1301.7349,
1893.594,1307.4452,
1890.684,1313.6079,
1887.773,1313.5514,
1884.863,1335.3941,
1881.952,1327.6552,
1879.041,1317.974,
1876.131,1303.1556,
1873.220,1320.9204,
1870.310,1314.7175,
1867.399,1350.4082,
1864.489,1345.1697,
1861.578,1301.868,
1858.667,1318.5329,
1855.757,1318.7685,
1852.846,1344.7026,
1849.936,1324.2552,
1847.025,1354.0535,
1844.114,1367.1364,
1841.204,1360.472,
1838.293,1381.4842,
1835.383,1377.884,
1832.472,1379.4539,
1829.562,1420.5789,
1826.651,1397.2896,
1823.740,1359.0728,
1820.830,1379.0081,
1817.919,1412.2457,
1815.009,1439.4058,
1812.098,1413.378,
1809.188,1410.938,
1806.277,1410.0221,
1803.366,1462.902,
1800.456,1398.3297,
1797.545,1408.0565,
1794.635,1446.71,
1791.724,1445.9222,
1788.813,1480.1925,
1785.903,1462.6279,
1782.992,1464.0998,
1780.082,1428.2429,
1777.171,1454.3346,
1774.261,1468.1252,
1771.350,1484,
1768.439,1482.2976,
1765.529,1486.3648,
1762.618,1500.2806,
1759.708,1523.348,
1756.797,1503.5,
1753.887,1486.5394,
1750.976,1475.7723,
1748.065,1521.215,
1745.155,1523.2325,
1742.244,1517.567,
1739.334,1572.9294,
1736.423,1566.0318,
1733.512,1560.5488,
1730.602,1580.2044,
1727.691,1548.3846,
1724.781,1588.9141,
1721.870,1611.0477,
1718.960,1634.378,
1716.049,1622.2205,
1713.138,1641.2299,
1710.228,1637.1673,
1707.317,1666.96,
1704.407,1623.3849,
1701.496,1659.0197,
1698.586,1675.9358,
1695.675,1684.4857,
1692.764,1684.0533,
1689.854,1767.2323,
1686.943,1760.371,
1684.033,1774.6275,
1681.122,1783.8471,
1678.211,1817.6764,
1675.301,1843.9198,
1672.390,1859.1495,
1669.480,1909.2487,
1666.569,1940.7237,
1663.659,1998.1759,
1660.748,2067.7467,
1657.837,2005.6184,
1654.927,2079.9915,
1652.016,2162.9757,
1649.106,2163.9585,
1646.195,2242.3357,
1643.285,2257.3216,
1640.374,2312.9756,
1637.463,2267.468,
1634.553,2402.7389,
1631.642,2453.3029,
1628.732,2572.4207,
1625.821,2643.0968,
1622.911,2790.166,
1620.000,2927.2614,
1617.089,3145.602,
1614.179,3315.2058,
1611.268,3459.6092,
1608.358,3645.1504,
1605.447,3702.0861,
1602.536,3776.7553,
1599.626,3824.3169,
1596.715,3805.31,
1593.805,3780.6417,
1590.894,3679.3649,
1587.984,3685.054,
1585.073,3642.0559,
1582.162,3646.5233,
1579.252,3610.5398,
1576.341,3576.366,
1573.431,3583.314,
1570.520,3514.3842,
1567.610,3512.118,
1564.699,3482.0235,
1561.788,3458.8452,
1558.878,3362.827,
1555.967,3320,
1553.057,3252.38,
1550.146,3153.7747,
1547.235,3100.0612,
1544.325,3069.7719,
1541.414,3045.819,
1538.504,3010.7685,
1535.593,3000.5813,
1532.683,2983.0048,
1529.772,2927.044,
1526.861,2917.2652,
1523.951,2906.4187,
1521.040,2837.7329,
1518.130,2786.8987,
1515.219,2766.2002,
1512.309,2733.4819,
1509.398,2663.3041,
1506.487,2691.992,
1503.577,2699.8244,
1500.666,2688.523,
1497.756,2653.4577,
1494.845,2659.6403,
1491.934,2674.748,
1489.024,2597.7486,
1486.113,2598.7089,
1483.203,2585.6775,
1480.292,2510.1795,
1477.382,2480.835,
1474.471,2425.5856,
1471.560,2452.0886,
1468.650,2461.1673,
1465.739,2402.9178,
1462.829,2371.4032,
1459.918,2396.4146,
1457.008,2427.154,
1454.097,2412.9678,
1451.186,2394.5648,
1448.276,2413.1656,
1445.365,2422,
1442.455,2421.4534,
1439.544,2421.1217,
1436.633,2421.1549,
1433.723,2401.5045,
1430.812,2387.232,
1427.902,2339.5941,
1424.991,2322.5344,
1422.081,2286.2184,
1419.170,2259.6704,
1416.259,2238.9887,
1413.349,2201.7694,
1410.438,2211.9934,
1407.528,2224.2187,
1404.617,2230.697,
1401.707,2229.7605,
1398.796,2239.2167,
1395.885,2253.5866,
1392.975,2260.4378,
1390.064,2258.6959,
1387.154,2212.8872,
1384.243,2177.8266,
1381.332,2149.9014,
1378.422,2134.7576,
1375.511,2323.9874,
1372.601,2430.2159,
1369.690,2455.2872,
1366.780,2596.6062,
1363.869,2625.0088,
1360.958,2635.8645,
1358.048,2670.8857,
1355.137,2765.1728,
1352.227,2816.0718,
1349.316,2848.4919,
1346.406,2946.6463,
1343.495,2988.7195,
1340.584,3017.3213,
1337.674,3037.8625,
1334.763,3121.9054,
1331.853,3171.9759,
1328.942,3169.5527,
1326.032,3195.0999,
1323.121,3270.6507,
1320.210,3298.3296,
1317.300,3316.5265,
1314.389,3360.8895,
1311.479,3408.1649,
1308.568,3455.221,
1305.657,3515.205,
1302.747,3568.6124,
1299.836,3657.0566,
1296.926,3738.2646,
1294.015,3786.9888,
1291.105,3835.6687,
1288.194,4010.5348,
1285.283,4088.8002,
1282.373,4145.3983,
1279.462,4207.8816,
1276.552,4245.504,
1273.641,4250.3428,
1270.731,4242.7657,
1267.820,4233.7536,
1264.909,4227.6702,
1261.999,4217.301,
1259.088,4198.1464,
1256.178,4174.7321,
1253.267,4158.7249,
1250.356,4047.9939,
1247.446,3968.8371,
1244.535,3955.9375,
1241.625,3882.2595,
1238.714,3741.516,
1235.804,3689.1942,
1232.893,3672.1248,
1229.982,3669.2897,
1227.072,3559.7469,
1224.161,3504.9318,
1221.251,3421.5491,
1218.340,3343.5272,
1215.430,3292.4281,
1212.519,3246.3817,
1209.608,3213,
1206.698,3225.5109,
1203.787,3263.402,
1200.877,3272.6716,
1197.966,3299.6464,
1195.055,3396.5638,
1192.145,3499.4045,
1189.234,3587.0401,
1186.324,3639.7293,
1183.413,3693.2132,
1180.503,3707.9725,
1177.592,3649.3233,
1174.681,3652.4384,
1171.771,3618.651,
1168.860,3516.8388,
1165.950,3440.8843,
1163.039,3404.0479,
1160.129,3406.2072,
1157.218,3377.9448,
1154.307,3331.2085,
1151.397,3312.0044,
1148.486,3297.9971,
1145.576,3312.5715,
1142.665,3256.633,
1139.754,3267.4589,
1136.844,3212.8749,
1133.933,3181.5484,
1131.023,3172.7511,
1128.112,3177.6415,
1125.202,3192.8261,
1122.291,3186,
1119.380,3186.5024,
1116.470,3237.689,
1113.559,3267.1975,
1110.649,3261.5579,
1107.738,3263.5731,
1104.828,3239.3764,
1101.917,3210.977,
1099.006,3256.5359,
1096.096,3288.5598,
1093.185,3232.3676,
1090.275,3256.3245,
1087.364,3220.4604,
1084.453,3220.6862,
1081.543,3250.8995,
1078.632,3247.4356,
1075.722,3214.1732,
1072.811,3284.1862,
1069.901,3286.8059,
1066.990,3274.875,
1064.079,3348.8981,
1061.169,3380.5816,
1058.258,3375.7295,
1055.348,3394.2831,
1052.437,3436.1125,
1049.527,3404.0881,
1046.616,3484.0204,
1043.705,3476.8139,
1040.795,3493.0707,
1037.884,3483.759,
1034.974,3473.0554,
1032.063,3490.2385,
1029.153,3494.2197,
1026.242,3521.0334,
1023.331,3561.9974,
1020.421,3546.9957,
1017.510,3569.496,
1014.600,3605.1503,
1011.689,3625.2715,
1008.778,3655.3679,
1005.868,3739.9344,
1002.957,3844.0372,
1000.047,4007.7841,
997.136,4104.7001,
994.226,4129.9847,
991.315,4093.0322,
988.404,4008.4887,
985.494,3947.3697,
982.583,3874.5624,
979.673,3852.2937,
976.762,3827.4514,
973.852,3823.1662,
970.941,3827.9977,
968.030,3804.6416,
965.120,3780.0322,
962.209,3787.7051,
959.299,3808.831,
956.388,3816.44,
953.477,3802.4361,
950.567,3792.6727,
947.656,3826.4618,
944.746,3875.7361,
941.835,3878,
938.925,3893.7932,
936.014,3897.4476,
933.103,3873.2267,
930.193,3836.6005,
927.282,3830.4171,
924.372,3745.8565,
921.461,3757.092,
918.551,3709.8113,
915.640,3655.127,
912.729,3638.2203,
909.819,3649.8913,
906.908,3671.7944,
903.998,3680.9536,
901.087,3692.5476,
898.176,3696.0912,
895.266,3714.6309,
892.355,3768.1095,
889.445,3816.787,
886.534,3821.1744,
883.624,3867.7526,
880.713,3890.5104,
877.802,3896.9057,
874.892,3903.22,
871.981,3881.4871,
869.071,3859.7663,
866.160,3824.9518,
863.250,3852.412,
860.339,3897.8754,
857.428,3897.6518,
854.518,3836.3501,
851.607,3813.8842,
848.697,3769.4188,
845.786,3765.0121,
842.875,3810.508,
839.965,3860.5822,
837.054,3813.7629,
834.144,3881.7206,
831.233,3871.0017,
828.323,3835.7551,
825.412,3810.7121,
822.501,3808,
819.591,3808,
816.680,3755.1153,
813.770,3676.8437,
810.859,3651.5372,
807.949,3669.6537,
805.038,3672.9049,
802.127,3663.8505,
799.217,3654.8007,
796.306,3628.7296,
793.396,3601.6564,
790.485,3593.9492,
787.574,3619.097,
784.664,3595.3138,
781.753,3612.4715,
778.843,3635.2521,
775.932,3647.3827,
773.022,3648.0288,
770.111,3661.11,
767.200,3636.1154,
764.290,3629.7336,
761.379,3632.5755,
758.469,3631.4425,
755.558,3617.5867,
752.648,3603.7384,
749.737,3590.5554,
746.826,3526.2561,
743.916,3442.2465,
741.005,3376.1655,
738.095,3174.0081,
735.184,2968.3748,
732.274,2949.6415,
729.363,3087.4373,
726.452,3298.2055,
723.542,3487.6036,
720.631,3542.3433,
717.721,3574.9039,
714.810,3593.1875,
711.899,3596.0495,
708.989,3579.1041,
706.078,3587.8143,
703.168,3569.9617,
700.257,3547.0983,
697.347,3528.87,
694.436,3513.8254,
691.525,3507.395,
688.615,3501.5976,
685.704,3491.2295,
682.794,3488.0212,
679.883,3511.1802,
676.973,3515.1871,
674.062,3505.7907,
671.151,3523.6698,
668.241,3548.7585,
665.330,3532.0378,
662.420,3532.8365,
659.509,3537.4445,
656.598,3543.0292,
653.688,3541.709,
650.777,3525.2961,
647.867,3563.5199,
644.956,3591.1937,
642.046,3581.8555,
639.135,3554.5153,
636.224,3564.0915,
633.314,3582.3521,
630.403,3624.2463,
627.493,3643.4707,
624.582,3631.9406,
621.672,3627.1886,
618.761,3613.3211,
615.850,3650.3241,
612.940,3701.7598,
610.029,3736.263,
607.119,3737.8423,
604.208,3686.879,
601.297,3681.454,
598.387,3714.7712,
595.476,3753.1319,
592.566,3690.9536,
589.655,3701.3804,
586.745,3724.7172,
583.834,3714.3087,
580.923,3622.9668,
578.013,3617.4737,
575.102,3615.4264,
572.192,3626.4331,
569.281,3651.921,
566.371,3679.3128,
563.460,3757.4851,
560.549,3776.818,
557.639,3758.3602,
554.728,3746.1041,
551.818,3795.264,
548.907,3802.3435,
545.996,3815.1628,
543.086,3829.4375,
540.175,3785.0547,
537.265,3790.6914,
534.354,3825.6065,
531.444,3860.3439,
528.533,3867.2894,
525.622,3843.235,
522.712,3825.2582,
519.801,3861.2981,
516.891,3934.252,
513.980,3940.4464,
511.070,3983.2608,
508.159,4004.343,
505.248,4040.7975,
502.338,4137.4186,
499.427,4083.3903,
496.517,4126.1313,
493.606,4169.6635,
490.695,4169.4279,
487.785,4172.5071,
484.874,4176.8773,
481.964,4206.4084,
479.053,4224.0402,
476.143,4136.4924,
473.232,4193.5881,
470.321,4188.8054,
467.411,4154.2011,
464.500,4142.0303,
461.590,4103.7433,
458.679,4108.4082,
455.769,4116.9042,
452.858,4112.5335,
449.947,4156.0776,
447.037,4157.1121,
444.126,4176.7697,
441.216,4216.7511,
438.305,4203.7983,
435.395,4197.4105,
432.484,4179.5802,
429.573,4157.4675,
426.663,4155.1871,
423.752,4184.989,
420.842,4162.3785,
417.931,4135.9447,
415.020,4192.0632,
412.110,4258.382,
409.199,4293.7359,
406.289,4306.246,
403.378,4307.0999,
400.468,4336.5837,
397.557,4313.0944,
394.646,4258.0282,
391.736,4192.3722,
388.825,4172.7622,
385.915,4131.8752,
383.004,4114.7061,
380.094,4157.484,
377.183,4323.7813,
374.272,4405.8235,
371.362,4455.1313,
368.451,4500.9088,
365.541,4499.4077,
362.630,4549.8004,
359.719,4594.9597,
356.809,4604.1748,
353.898,4640.1171,
350.988,4639.6928,
348.077,4616.1892,
345.167,4583.2922,
342.256,4648.2872,
339.345,4655.8399,
336.435,4645.1672,
333.524,4643.047,
330.614,4644.5373,
327.703,4652.7011,
324.793,4667.9915,
321.882,4691.1749,
318.971,4763.2888,
316.061,4797.278,
313.150,4817.3928,
310.240,4850.788,
307.329,4846.2829,
304.418,4892.331,
301.508,4946.4554,
298.597,4933.1279,
295.687,4943.5131,
292.776,5014.8337,
289.866,5151.0604,
286.955,5360.1197,
284.044,5604.4173,
281.134,5810.8336,
278.223,5971.8795,
275.313,6121.4611,
272.402,6308.6821,
269.492,6476.7661,
266.581,6601.8347,
263.670,6669.4712,
260.760,6786.6857,
257.849,6888.5747,
254.939,6924.535,
252.028,7016.9283,
249.117,6992.1556,
246.207,6916.2647,
243.296,6897.9638,
240.386,6881.6342,
237.475,6834.8129,
234.565,6747.3827,
231.654,6591.0806,
228.743,6449.8308,
225.833,6351.7062,
222.922,6305.5495,
220.012,6210.1087,
217.101,6100.9762,
214.191,6025.464,
211.280,6043.6506,
208.369,5944.7508,
205.459,5874.4405,
202.548,5847.1393,
199.638,5876.8909,
196.727,5868.0184,
193.816,5863.6225,
190.906,5877.3493,
187.995,5830.2877,
185.085,5852.3013,
182.174,5885.9894,
179.264,5852.7421,
176.353,5886.1652,
173.442,5930.5663,
170.532,5960.323,
167.621,5860.1074,
164.711,5717.3751,
161.800,5543.9402,
158.890,5341.6967,
155.979,5075.9178,
153.068,4678.3005,
150.158,4169.3585,
147.247,3607.2019,
144.337,2970.0871,
141.426,2327.3478,
138.516,1710.1044,
135.605,1238.5898,
132.694,854.5879,
129.784,554.53395,
126.873,357.15812,
123.963,247.00437,
121.052,178.41909,
118.141,139.15448,
115.231,106.31376,
112.320,87.916369,
109.410,77.591119,
106.499,59.787238,
103.589,50.95771,
100.678,48.62973,
97.767,52.895356,
94.857,47.456088,
91.946,40.16267,
89.036,33.56449,
86.125,37.110516,
83.215,37.46908,
80.304,35.802837,
77.393,32.261987,
74.483,27.414055,
71.572,25,
68.662,24.44586,
65.751,18.794251,
62.840,23.262126,
59.930,28.876283,
57.019,24.645791,
54.109,16.236909,
51.198,14.619311,
48.288,23.011325,
45.377,24.418081,
42.466,26.236658,
39.556,27.079051,
36.645,21.46153,
33.735,22.596242,
30.824,23.453791,
27.914,18.545564,
25.003,18.622637,
22.092,19.322905,
19.182,20.594954,
16.271,38.781698,
13.361,151.36449,
10.450,361.50342,
7.539,742.08529,
4.629,906.57327,
1.718,849.54535,
-1.192,463.32727,
-4.103,183.69326,
-7.013,24.663239,
-9.924,1,
