,PL418C~1,
Wavenumbers [1/cm],Intensity,
3014.167,-5.25,
3011.256,1.7999034,
3008.346,65.187132,
3005.435,52.44258,
3002.525,56.920022,
2999.614,63.324018,
2996.704,71.015975,
2993.793,49.979264,
2990.882,62.360705,
2987.972,82.674326,
2985.061,68.19335,
2982.151,72.272692,
2979.240,71.447704,
2976.329,83.75,
2973.419,86.981067,
2970.508,80.29997,
2967.598,78.371285,
2964.687,83.108696,
2961.777,85.621905,
2958.866,93.758908,
2955.955,79.473454,
2953.045,89.401015,
2950.134,97.356415,
2947.224,88.547127,
2944.313,105.4131,
2941.403,101.44069,
2938.492,98.495272,
2935.581,100.77702,
2932.671,105.07191,
2929.760,97.642281,
2926.850,104.54812,
2923.939,100.62379,
2921.028,110.19106,
2918.118,109.76889,
2915.207,107.81338,
2912.297,104.78385,
2909.386,110.35584,
2906.476,115.97471,
2903.565,101.12111,
2900.654,105.47901,
2897.744,100.77514,
2894.833,92.028549,
2891.923,88.102605,
2889.012,96.41474,
2886.102,111.20675,
2883.191,88.776432,
2880.280,44.156691,
2877.370,-7.5696568,
2874.459,-62.086303,
2871.549,-16.276106,
2868.638,80.758177,
2865.727,100.30002,
2862.817,83.735301,
2859.906,108.80128,
2856.996,110.31567,
2854.085,109.83406,
2851.175,117.30115,
2848.264,119.05367,
2845.353,118.8147,
2842.443,118.55557,
2839.532,112.19777,
2836.622,118.32292,
2833.711,111.06084,
2830.801,119.44779,
2827.890,123.93706,
2824.979,121.75,
2822.069,126.77274,
2819.158,125.32951,
2816.248,130.95658,
2813.337,133.29634,
2810.427,122.10262,
2807.516,121.32547,
2804.605,129.29807,
2801.695,122.01316,
2798.784,129.30646,
2795.874,125.04024,
2792.963,125.25011,
2790.052,123.75086,
2787.142,134.46054,
2784.231,121.55747,
2781.321,143.54989,
2778.410,112.82487,
2775.500,134.89654,
2772.589,129.25076,
2769.678,137.50087,
2766.768,139.43156,
2763.857,113.12187,
2760.947,136.21533,
2758.036,132.44428,
2755.126,126.74359,
2752.215,137.3681,
2749.304,129.1331,
2746.394,134.65522,
2743.483,132.40004,
2740.573,132.73455,
2737.662,125.87721,
2734.751,139.54122,
2731.841,142.64194,
2728.930,142.70773,
2726.020,140.42882,
2723.109,131.13175,
2720.199,131.96562,
2717.288,136.01278,
2714.377,144.84574,
2711.467,148.01263,
2708.556,147.34537,
2705.646,146.38377,
2702.735,156.567,
2699.825,142.21728,
2696.914,145.36909,
2694.003,166.10773,
2691.093,152.37456,
2688.182,143.80482,
2685.272,147.91786,
2682.361,137.39083,
2679.450,155.16563,
2676.540,152.34352,
2673.629,134.40918,
2670.719,138.39233,
2667.808,153.97183,
2664.898,154.93191,
2661.987,146.91661,
2659.076,156.09697,
2656.166,157.63743,
2653.255,161.75,
2650.345,153.90971,
2647.434,154.26443,
2644.524,162.83874,
2641.613,171.17866,
2638.702,170.78156,
2635.792,151.43694,
2632.881,155.17263,
2629.971,159.11244,
2627.060,154.24844,
2624.149,159.40001,
2621.239,160.51927,
2618.328,156.0891,
2615.418,166.07273,
2612.507,169.5089,
2609.597,176.01547,
2606.686,168.15358,
2603.775,143.47223,
2600.865,161.45311,
2597.954,166.89374,
2595.044,170.74114,
2592.133,172.13853,
2589.223,190.47317,
2586.312,175.77511,
2583.401,176.26093,
2580.491,178.0096,
2577.580,168.75165,
2574.670,174.73127,
2571.759,178.39127,
2568.848,181.45171,
2565.938,182.46431,
2563.027,176.82275,
2560.117,187.00237,
2557.206,193.94188,
2554.296,177.496,
2551.385,182.86592,
2548.474,177.67602,
2545.564,172.97159,
2542.653,186.58222,
2539.743,173.24384,
2536.832,181.30141,
2533.922,178.06538,
2531.011,193.90033,
2528.100,184.2831,
2525.190,187.91229,
2522.279,189.75,
2519.369,182.80702,
2516.458,177.31303,
2513.548,193.03172,
2510.637,188.62703,
2507.726,185.81319,
2504.816,189.93828,
2501.905,197.99634,
2498.995,192.04859,
2496.084,195.83013,
2493.173,203.69768,
2490.263,200.58162,
2487.352,200.54293,
2484.442,220.17398,
2481.531,210.05865,
2478.621,210.03441,
2475.710,194.91869,
2472.799,213.05049,
2469.889,204.17383,
2466.978,218.29628,
2464.068,236.15745,
2461.157,209.56238,
2458.247,217.80869,
2455.336,209.6639,
2452.425,204.8349,
2449.515,224.03274,
2446.604,206.81455,
2443.694,212.2854,
2440.783,219.51126,
2437.872,221.45828,
2434.962,215.06336,
2432.051,223.62663,
2429.141,233.73229,
2426.230,220.79306,
2423.320,245.17877,
2420.409,232.96802,
2417.498,232.13484,
2414.588,234.11503,
2411.677,224.49899,
2408.767,221.29134,
2405.856,229.40477,
2402.946,221.95822,
2400.035,202.66783,
2397.124,231.4131,
2394.214,227.4524,
2391.303,234.93225,
2388.393,235.53835,
2385.482,204.07185,
2382.571,214.26921,
2379.661,214.56381,
2376.750,243.37798,
2373.840,248.47503,
2370.929,252.68502,
2368.019,234.29186,
2365.108,242.33115,
2362.197,250.12537,
2359.287,244.17005,
2356.376,240.75176,
2353.466,264.25181,
2350.555,242.88518,
2347.645,255.48642,
2344.734,248.50574,
2341.823,262.46809,
2338.913,270.30967,
2336.002,250.12081,
2333.092,254.12925,
2330.181,274.85737,
2327.270,243.89521,
2324.360,266.82546,
2321.449,262.76357,
2318.539,252.51761,
2315.628,268.93465,
2312.718,252.20153,
2309.807,262.99855,
2306.896,258.545,
2303.986,266.17848,
2301.075,253.13298,
2298.165,261.52901,
2295.254,284.2976,
2292.344,271.80396,
2289.433,268.09364,
2286.522,274.34372,
2283.612,279.82016,
2280.701,269.4989,
2277.791,257.71367,
2274.880,302.82404,
2271.969,294.20267,
2269.059,297.89442,
2266.148,292.53631,
2263.238,289.64961,
2260.327,304.3705,
2257.417,285.98722,
2254.506,285.13176,
2251.595,297.59355,
2248.685,323.48072,
2245.774,313.43158,
2242.864,296.94451,
2239.953,299.06725,
2237.043,290.12608,
2234.132,283.05388,
2231.221,301.38315,
2228.311,308.61984,
2225.400,318.52484,
2222.490,310.19298,
2219.579,306.72429,
2216.669,306.74046,
2213.758,315.27288,
2210.847,301.82307,
2207.937,327.48775,
2205.026,339.1949,
2202.116,325.43896,
2199.205,324.6373,
2196.294,332.68399,
2193.384,330.77649,
2190.473,319.3122,
2187.563,335.80317,
2184.652,345.84633,
2181.742,343.70491,
2178.831,352.06907,
2175.920,354.91576,
2173.010,348.49943,
2170.099,402.07691,
2167.189,388.85046,
2164.278,403.92387,
2161.368,417.60631,
2158.457,433.47912,
2155.546,449.12792,
2152.636,481.56378,
2149.725,498.07214,
2146.815,492.01695,
2143.904,515.95445,
2140.993,527.4484,
2138.083,530.11474,
2135.172,527.77519,
2132.262,542.27465,
2129.351,560.30177,
2126.441,522.1091,
2123.530,532.67143,
2120.619,522.99782,
2117.709,498.89412,
2114.798,470.81528,
2111.888,446.50045,
2108.977,426.57781,
2106.067,422.26676,
2103.156,396.35495,
2100.245,398.72993,
2097.335,367.83377,
2094.424,375.51065,
2091.514,367.95693,
2088.603,354.32604,
2085.692,362.20719,
2082.782,380.05917,
2079.871,379.82118,
2076.961,363.78325,
2074.050,385.42879,
2071.140,394.72733,
2068.229,375.38281,
2065.318,382.0465,
2062.408,380.82565,
2059.497,358.31545,
2056.587,359.51724,
2053.676,387.61527,
2050.766,366.90546,
2047.855,367.55065,
2044.944,365.27242,
2042.034,390.95804,
2039.123,387.25168,
2036.213,393.57885,
2033.302,376.40224,
2030.391,370.1738,
2027.481,369.4939,
2024.570,378.17835,
2021.660,397.62654,
2018.749,368.5478,
2015.839,389.28806,
2012.928,392.75,
2010.017,399.24295,
2007.107,402.28269,
2004.196,386.21428,
2001.286,401.6687,
1998.375,394.65747,
1995.465,382.81696,
1992.554,391.39109,
1989.643,381.16476,
1986.733,413.77017,
1983.822,381.8534,
1980.912,400.06678,
1978.001,397.75,
1975.090,402.13321,
1972.180,402.95746,
1969.269,403.54313,
1966.359,404.2094,
1963.448,396.63639,
1960.538,421.52982,
1957.627,417.0503,
1954.716,384.66926,
1951.806,413.59453,
1948.895,421.46065,
1945.985,371.0817,
1943.074,397.71307,
1940.164,402.75,
1937.253,407.05426,
1934.342,404.68155,
1931.432,415.80048,
1928.521,421.95725,
1925.611,401.89302,
1922.700,402.08149,
1919.790,413.22388,
1916.879,367.30722,
1913.968,431.66639,
1911.058,421.29654,
1908.147,403.67265,
1905.237,418.38232,
1902.326,398.11297,
1899.415,383.53292,
1896.505,380.49713,
1893.594,421.00923,
1890.684,438.45594,
1887.773,439.56872,
1884.863,449.93907,
1881.952,434.31267,
1879.041,429.01947,
1876.131,423.23497,
1873.220,416.51989,
1870.310,426.88899,
1867.399,421.84596,
1864.489,407.55528,
1861.578,405.17838,
1858.667,429.77694,
1855.757,439.93496,
1852.846,456.24744,
1849.936,436.61188,
1847.025,413.09547,
1844.114,452.78531,
1841.204,442.80595,
1838.293,433.22755,
1835.383,451.122,
1832.472,445.85435,
1829.562,441.0276,
1826.651,467.04976,
1823.740,462.00667,
1820.830,461.15162,
1817.919,466.00751,
1815.009,465.89377,
1812.098,463.95473,
1809.188,464.68798,
1806.277,440.3033,
1803.366,452.08272,
1800.456,471.14547,
1797.545,460.01245,
1794.635,454.55603,
1791.724,463.77917,
1788.813,456.35977,
1785.903,485.57753,
1782.992,466.7276,
1780.082,419.42349,
1777.171,404.41649,
1774.261,402.65498,
1771.350,439.53352,
1768.439,485.13107,
1765.529,470.84168,
1762.618,498.94005,
1759.708,503.82589,
1756.797,489.59091,
1753.887,493.18586,
1750.976,496.28796,
1748.065,529.47196,
1745.155,507.23416,
1742.244,502.28982,
1739.334,496.00177,
1736.423,514.18548,
1733.512,539.30289,
1730.602,541.75793,
1727.691,530.77041,
1724.781,509.65874,
1721.870,534.52636,
1718.960,517.08304,
1716.049,556.21566,
1713.138,526.27519,
1710.228,515.39852,
1707.317,548.36371,
1704.407,532.08686,
1701.496,549.80405,
1698.586,572.07766,
1695.675,582.17138,
1692.764,572.33606,
1689.854,588.01379,
1686.943,597.44647,
1684.033,581.17222,
1681.122,575.83496,
1678.211,600.51207,
1675.301,589.78392,
1672.390,645.60345,
1669.480,596.80615,
1666.569,604.00392,
1663.659,623.61934,
1660.748,616.8105,
1657.837,670.77187,
1654.927,671.14084,
1652.016,645.7743,
1649.106,647.60684,
1646.195,682.2535,
1643.285,702.86393,
1640.374,708.23083,
1637.463,731.54264,
1634.553,774.17366,
1631.642,735.96716,
1628.732,755.84481,
1625.821,771.79187,
1622.911,835.38935,
1620.000,883.14526,
1617.089,920.01368,
1614.179,969.33995,
1611.268,988.0808,
1608.358,1032.5961,
1605.447,1074.3503,
1602.536,1140.1183,
1599.626,1092.3138,
1596.715,1127.6845,
1593.805,1059.3091,
1590.894,1055.1534,
1587.984,1056.6161,
1585.073,1078.8712,
1582.162,1047.6848,
1579.252,1058.7526,
1576.341,1041.9224,
1573.431,1023.436,
1570.520,1002.9337,
1567.610,985.82825,
1564.699,1001.3258,
1561.788,974.94751,
1558.878,981.23289,
1555.967,988.76801,
1553.057,965.42264,
1550.146,913.41918,
1547.235,924.16959,
1544.325,950.4466,
1541.414,939.86874,
1538.504,908.17029,
1535.593,886.77617,
1532.683,890.34394,
1529.772,889.28135,
1526.861,863.44987,
1523.951,852.65882,
1521.040,867.81545,
1518.130,840.96033,
1515.219,826.26981,
1512.309,833.98874,
1509.398,845.69854,
1506.487,866.78192,
1503.577,828.98656,
1500.666,817.4069,
1497.756,809.72495,
1494.845,846.07017,
1491.934,853.81614,
1489.024,874.02849,
1486.113,860.84177,
1483.203,840.21031,
1480.292,840.29553,
1477.382,790.63861,
1474.471,800.23661,
1471.560,826.34298,
1468.650,818.0347,
1465.739,822.27882,
1462.829,831.13727,
1459.918,832.19751,
1457.008,828.19611,
1454.097,825.67432,
1451.186,819.68037,
1448.276,817.12939,
1445.365,826.85664,
1442.455,824.84979,
1439.544,819.59735,
1436.633,771.96449,
1433.723,812.3701,
1430.812,825.81871,
1427.902,850.71271,
1424.991,807.11564,
1422.081,849.7889,
1419.170,836.46879,
1416.259,823.21918,
1413.349,808.66614,
1410.438,812.44758,
1407.528,816.39374,
1404.617,800.89754,
1401.707,798.22905,
1398.796,819.9108,
1395.885,822.52154,
1392.975,814.72962,
1390.064,843.57928,
1387.154,835.07508,
1384.243,753.44257,
1381.332,826.97935,
1378.422,814.24746,
1375.511,843.28767,
1372.601,845.59314,
1369.690,925.47169,
1366.780,874.59515,
1363.869,902.79158,
1360.958,936.25541,
1358.048,932.29045,
1355.137,953.71399,
1352.227,976.63233,
1349.316,979.52658,
1346.406,993.02725,
1343.495,993.75696,
1340.584,984.53594,
1337.674,976.61086,
1334.763,1031.9857,
1331.853,985.62418,
1328.942,1036.2284,
1326.032,1005.2315,
1323.121,1053.8043,
1320.210,1061.0975,
1317.300,1031.1407,
1314.389,1043.5283,
1311.479,1087.3518,
1308.568,1098.3335,
1305.657,1097.1694,
1302.747,1146.8048,
1299.836,1169.8213,
1296.926,1191.2373,
1294.015,1180.2054,
1291.105,1173.5862,
1288.194,1199.9073,
1285.283,1238.2541,
1282.373,1255.8125,
1279.462,1262.5931,
1276.552,1285.7265,
1273.641,1312.1665,
1270.731,1320.9843,
1267.820,1329.1655,
1264.909,1330.9918,
1261.999,1333.1162,
1259.088,1343.1495,
1256.178,1313.774,
1253.267,1292.6389,
1250.356,1253.8873,
1247.446,1235.9898,
1244.535,1212.9465,
1241.625,1179.4463,
1238.714,1158.3909,
1235.804,1149.8422,
1232.893,1147.6344,
1229.982,1103.5234,
1227.072,1067.311,
1224.161,1052.1424,
1221.251,1041.5604,
1218.340,1008.3028,
1215.430,1002.7607,
1212.519,1004.0531,
1209.608,988.37124,
1206.698,984.40976,
1203.787,1001.6093,
1200.877,972.35698,
1197.966,949.878,
1195.055,1017.0099,
1192.145,1055.047,
1189.234,1045.5838,
1186.324,1071.2079,
1183.413,1088.8261,
1180.503,1083.1932,
1177.592,1091.9922,
1174.681,1058.863,
1171.771,1053.1827,
1168.860,1071.9376,
1165.950,1030.2104,
1163.039,1046.9877,
1160.129,1051.6717,
1157.218,1038.0968,
1154.307,1031.3472,
1151.397,1036.7927,
1148.486,1034.505,
1145.576,1006.4846,
1142.665,1046.4407,
1139.754,1007.4413,
1136.844,1015.2576,
1133.933,997.53023,
1131.023,1000.9943,
1128.112,1023.6787,
1125.202,1029.9625,
1122.291,1055.6247,
1119.380,1054.4988,
1116.470,1028.9055,
1113.559,1041.215,
1110.649,1056.2275,
1107.738,1056.3918,
1104.828,1047.589,
1101.917,1037.9037,
1099.006,1027.8737,
1096.096,1023.0512,
1093.185,1011.6372,
1090.275,1005.0851,
1087.364,1025.0198,
1084.453,1017.8761,
1081.543,1017.0202,
1078.632,1033.0634,
1075.722,1039.7679,
1072.811,1063.9505,
1069.901,1038.6259,
1066.990,1056.15,
1064.079,1084.568,
1061.169,1084.704,
1058.258,1071.0917,
1055.348,1062.1044,
1052.437,1063.2935,
1049.527,1100.4409,
1046.616,1066.5566,
1043.705,1077.3945,
1040.795,1082.3885,
1037.884,1079.2098,
1034.974,1090.2745,
1032.063,1105.4503,
1029.153,1077.4118,
1026.242,1091.2511,
1023.331,1125.9145,
1020.421,1111.837,
1017.510,1111.1541,
1014.600,1137.2048,
1011.689,1160.0441,
1008.778,1148.8441,
1005.868,1137.611,
1002.957,1122.1246,
1000.047,1185.998,
997.136,1248.9262,
994.226,1241.3967,
991.315,1202.4035,
988.404,1205.8861,
985.494,1181.9392,
982.583,1235.0456,
979.673,1222.2639,
976.762,1185.3949,
973.852,1190.3866,
970.941,1205.5599,
968.030,1171.5131,
965.120,1209.6999,
962.209,1197.7643,
959.299,1210.6232,
956.388,1224.5895,
953.477,1226.2287,
950.567,1227.8541,
947.656,1247.4077,
944.746,1221.921,
941.835,1253.1425,
938.925,1239.6924,
936.014,1223.6917,
933.103,1217.3376,
930.193,1208.5575,
927.282,1185.5831,
924.372,1219.4074,
921.461,1201.658,
918.551,1174.5792,
915.640,1159.9001,
912.729,1151.7727,
909.819,1133.306,
906.908,1137.5181,
903.998,1122.6381,
901.087,1143.5737,
898.176,1140.571,
895.266,1139.8417,
892.355,1182.9906,
889.445,1205.6508,
886.534,1242.4844,
883.624,1196.5963,
880.713,1173.3018,
877.802,1167.0652,
874.892,1135.6746,
871.981,1068.6711,
869.071,1065.3294,
866.160,1099.248,
863.250,1138.8633,
860.339,1172.9211,
857.428,1194.9413,
854.518,1194.7631,
851.607,1160.6482,
848.697,1126.5495,
845.786,1112.1931,
842.875,1143.9571,
839.965,1200.1819,
837.054,1175.0105,
834.144,1198.2156,
831.233,1218.0822,
828.323,1235.1469,
825.412,1234.4472,
822.501,1214.2394,
819.591,1222.5034,
816.680,1217.141,
813.770,1200.7139,
810.859,1201.6773,
807.949,1198.867,
805.038,1160.2478,
802.127,1164.3634,
799.217,1181.1486,
796.306,1169.7228,
793.396,1166.0936,
790.485,1174.222,
787.574,1149.7189,
784.664,1148.8988,
781.753,1188.3381,
778.843,1185.6963,
775.932,1168.3055,
773.022,1180.6232,
770.111,1179.8056,
767.200,1182.0339,
764.290,1189.6845,
761.379,1192.3868,
758.469,1187.0759,
755.558,1180.1179,
752.648,1158.9382,
749.737,1148.2221,
746.826,1165.2637,
743.916,1178.6979,
741.005,1154.4007,
738.095,1169.0145,
735.184,1114.9753,
732.274,1063.8256,
729.363,1045.4833,
726.452,1074.4907,
723.542,1150.5737,
720.631,1140.9883,
717.721,1139.0414,
714.810,1152.5511,
711.899,1168.7401,
708.989,1155.8293,
706.078,1184.5969,
703.168,1163.2106,
700.257,1166.6163,
697.347,1182.5342,
694.436,1128.121,
691.525,1141.7857,
688.615,1130.914,
685.704,1132.2473,
682.794,1143.8138,
679.883,1141.0383,
676.973,1147.4493,
674.062,1169.1686,
671.151,1200.0365,
668.241,1212.5993,
665.330,1172.8802,
662.420,1154.5094,
659.509,1176.1472,
656.598,1195.943,
653.688,1195.8487,
650.777,1172.318,
647.867,1159.5767,
644.956,1141.8904,
642.046,1126.531,
639.135,1123.1998,
636.224,1143.6863,
633.314,1130.9833,
630.403,1157.3105,
627.493,1195.0334,
624.582,1219.3951,
621.672,1204.3473,
618.761,1215.909,
615.850,1183.3848,
612.940,1191.3188,
610.029,1257.3054,
607.119,1218.6135,
604.208,1206.9399,
601.297,1205.7441,
598.387,1214.0559,
595.476,1227.5216,
592.566,1203.9096,
589.655,1208.8205,
586.745,1191.6176,
583.834,1174.8271,
580.923,1217.8069,
578.013,1227.2237,
575.102,1224.0141,
572.192,1213.3189,
569.281,1201.75,
566.371,1201.75,
563.460,1234.907,
560.549,1255.5719,
557.639,1253.0817,
554.728,1227.2427,
551.818,1235.0459,
548.907,1220.9053,
545.996,1225.1352,
543.086,1244.898,
540.175,1231.6611,
537.265,1232.9228,
534.354,1250.8075,
531.444,1254.9317,
528.533,1223.8469,
525.622,1253.3329,
522.712,1247.6149,
519.801,1256.1708,
516.891,1285.2541,
513.980,1297.6428,
511.070,1267.0544,
508.159,1263.7789,
505.248,1277.7543,
502.338,1287.6085,
499.427,1316.9381,
496.517,1329.8409,
493.606,1338.7974,
490.695,1350.7827,
487.785,1365.4087,
484.874,1381.9669,
481.964,1384.3514,
479.053,1369.3957,
476.143,1338.6772,
473.232,1340.347,
470.321,1342.2366,
467.411,1335.6587,
464.500,1315.293,
461.590,1336.7337,
458.679,1371.3653,
455.769,1384.3529,
452.858,1363.4202,
449.947,1379.4628,
447.037,1375.4689,
444.126,1378.5136,
441.216,1396.777,
438.305,1425.7304,
435.395,1396.3125,
432.484,1377.9165,
429.573,1366.6324,
426.663,1323.3044,
423.752,1229.0855,
420.842,1140.8846,
417.931,1087.9213,
415.020,1106.1218,
412.110,1217.2236,
409.199,1328.6546,
406.289,1393.1568,
403.378,1364.0113,
400.468,1441.1227,
397.557,1401.4813,
394.646,1363.1057,
391.736,1423.6776,
388.825,1421.4149,
385.915,1432.4583,
383.004,1442.75,
380.094,1442.4429,
377.183,1436.4231,
374.272,1465.1457,
371.362,1496.6365,
368.451,1510.2485,
365.541,1501.9926,
362.630,1492.1026,
359.719,1498.1806,
356.809,1528.1125,
353.898,1534.1029,
350.988,1534.665,
348.077,1524.7473,
345.167,1502.9014,
342.256,1505.8896,
339.345,1525.3501,
336.435,1532.5895,
333.524,1509.4077,
330.614,1530.272,
327.703,1524.4283,
324.793,1503.7273,
321.882,1477.8077,
318.971,1501.5979,
316.061,1503.8902,
313.150,1506.9881,
310.240,1536.6727,
307.329,1589.2039,
304.418,1596.0714,
301.508,1579.1592,
298.597,1576.938,
295.687,1565.9142,
292.776,1567.8334,
289.866,1590.5166,
286.955,1651.0921,
284.044,1641.4075,
281.134,1651.1158,
278.223,1693.5102,
275.313,1746.5638,
272.402,1701.9833,
269.492,1654.4624,
266.581,1640.3791,
263.670,1663.1697,
260.760,1717.8093,
257.849,1755.3343,
254.939,1736.9873,
252.028,1709.9677,
249.117,1707.5161,
246.207,1734.9334,
243.296,1805.209,
240.386,1812.097,
237.475,1795.6141,
234.565,1773.6612,
231.654,1798.4942,
228.743,1770.954,
225.833,1749.799,
222.922,1756.0705,
220.012,1741.4994,
217.101,1752.4529,
214.191,1766.1273,
211.280,1757.3977,
208.369,1801.1557,
205.459,1807.1792,
202.548,1776.2291,
199.638,1732.6901,
196.727,1798.0819,
193.816,1837.3978,
190.906,1802.6896,
187.995,1829.4785,
185.085,1819.8358,
182.174,1813.2454,
179.264,1866.7301,
176.353,1854.1674,
173.442,1849.1884,
170.532,1859.17,
167.621,1862.7749,
164.711,1776.5058,
161.800,1669.7328,
158.890,1587.6839,
155.979,1500.2152,
153.068,1379.4142,
150.158,1231.8547,
147.247,1079.6489,
144.337,894.07211,
141.426,705.03565,
138.516,525.81284,
135.605,363.75502,
132.694,243.50165,
129.784,156.92798,
126.873,91.136039,
123.963,64.092317,
121.052,49.783951,
118.141,39.789323,
115.231,29.802015,
112.320,24.902728,
109.410,23.068224,
106.499,19.507448,
103.589,17.069237,
100.678,16.564865,
97.767,18.697678,
94.857,18.75,
91.946,14.31578,
89.036,7.1855105,
86.125,3.6394841,
83.215,3.2809204,
80.304,2.7922693,
77.393,-0.040410487,
74.483,4.9910797,
71.572,6.6629437,
68.662,5.30414,
65.751,10.955749,
62.840,11.304894,
59.930,9.1881414,
57.019,7.0728954,
54.109,6.75,
51.198,6.1467814,
48.288,4.7273502,
45.377,1.913838,
42.466,4.4599741,
39.556,9.75,
36.645,9.75,
33.735,11.307745,
30.824,9.6575824,
27.914,-0.15887106,
25.003,1.2405499,
22.092,6.6248547,
19.182,15.642432,
16.271,42.922547,
13.361,152.79262,
10.450,351.60924,
7.539,716.82818,
4.629,1023.9596,
1.718,1106.2197,
-1.192,726.27593,
-4.103,371.48458,
-7.013,121.45815,
-9.924,1.75,
