,PL3AE4~1,
Wavenumbers [1/cm],Intensity,
3014.167,-3.125,
3011.256,1.9249034,
3008.346,64.413099,
3005.435,67.719521,
3002.525,74.932606,
2999.614,75.776309,
2996.704,75.742012,
2993.793,76.25576,
2990.882,67.920823,
2987.972,84.839685,
2985.061,74.328197,
2982.151,81.323749,
2979.240,86.205782,
2976.329,103.63183,
2973.419,94.090147,
2970.508,103.25834,
2967.598,100.35291,
2964.687,106.53193,
2961.777,110.12294,
2958.866,94.545131,
2955.955,89.875,
2953.045,87.259799,
2950.134,106.97123,
2947.224,102.41591,
2944.313,112.78526,
2941.403,104.61314,
2938.492,117.88585,
2935.581,113.71919,
2932.671,120.03812,
2929.760,123.04421,
2926.850,123.24793,
2923.939,112.79086,
2921.028,120.71023,
2918.118,125.49591,
2915.207,128.16608,
2912.297,128.85807,
2909.386,121.64143,
2906.476,132.06036,
2903.565,128.77871,
2900.654,131.88611,
2897.744,129.91272,
2894.833,122.97828,
2891.923,103.1987,
2889.012,120.21026,
2886.102,115.08311,
2883.191,130.86084,
2880.280,58.080726,
2877.370,-4.7353692,
2874.459,-23.892261,
2871.549,27.704514,
2868.638,96.287343,
2865.727,108.21731,
2862.817,108.875,
2859.906,131.69836,
2856.996,142.88859,
2854.085,131.95272,
2851.175,141.92318,
2848.264,142.9485,
2845.353,145.59463,
2842.443,134.07291,
2839.532,128.88997,
2836.622,127.24023,
2833.711,135.92681,
2830.801,143.16985,
2827.890,134.33304,
2824.979,138.65296,
2822.069,141.94323,
2819.158,145.59467,
2816.248,135.89816,
2813.337,147.30793,
2810.427,140.96316,
2807.516,142.24187,
2804.605,155.44471,
2801.695,144.78288,
2798.784,154.76615,
2795.874,142.57947,
2792.963,158.30372,
2790.052,150.87736,
2787.142,146.78296,
2784.231,142.52098,
2781.321,149.61779,
2778.410,132.5349,
2775.500,141.00189,
2772.589,140.76108,
2769.678,161.48252,
2766.768,148.51188,
2763.857,136.19292,
2760.947,152.36554,
2758.036,172.90061,
2755.126,154.34722,
2752.215,154.23851,
2749.304,157.95952,
2746.394,154.2036,
2743.483,157.37502,
2740.573,150.21348,
2737.662,153.19453,
2734.751,148.34095,
2731.841,159.01053,
2728.930,164.34528,
2726.020,169.53819,
2723.109,152.68967,
2720.199,165.46244,
2717.288,166.71806,
2714.377,158.13336,
2711.467,167.30137,
2708.556,160.875,
2705.646,171.86094,
2702.735,171.37758,
2699.825,174.85319,
2696.914,171.01772,
2694.003,182.36118,
2691.093,164.58862,
2688.182,166.7313,
2685.272,174.5649,
2682.361,159.69815,
2679.450,173.6281,
2676.540,180.83435,
2673.629,178.875,
2670.719,169.24006,
2667.808,184.80502,
2664.898,171.32928,
2661.987,187.44168,
2659.076,179.14656,
2656.166,160.68437,
2653.255,186.76785,
2650.345,166.46665,
2647.434,173.90387,
2644.524,177.92533,
2641.613,181.96111,
2638.702,193.79609,
2635.792,182.78227,
2632.881,186.9998,
2629.971,191.51256,
2627.060,184.04032,
2624.149,184.76876,
2621.239,178.88686,
2618.328,186.70545,
2615.418,182.54318,
2612.507,180.01335,
2609.597,196.13049,
2606.686,193.66814,
2603.775,172.99802,
2600.865,190.52008,
2597.954,199.73126,
2595.044,196.21424,
2592.133,197.32088,
2589.223,187.28446,
2586.312,199.29205,
2583.401,210.03921,
2580.491,196.34136,
2577.580,194.87005,
2574.670,199.62364,
2571.759,207.76371,
2568.848,193.75896,
2565.938,216.63699,
2563.027,199.02049,
2560.117,199.04325,
2557.206,220.244,
2554.296,199.02374,
2551.385,220.37096,
2548.474,214.46756,
2545.564,203.22321,
2542.653,214.41191,
2539.743,197.07216,
2536.832,195.97781,
2533.922,201.06423,
2531.011,213.69993,
2528.100,219.07362,
2525.190,223.45615,
2522.279,217.71916,
2519.369,225.51708,
2516.458,207.76664,
2513.548,201.97512,
2510.637,215.92021,
2507.726,223.75602,
2504.816,216.56384,
2501.905,220.81707,
2498.995,225.15837,
2496.084,216.94122,
2493.173,226.63825,
2490.263,206.53824,
2487.352,235.08367,
2484.442,237.59663,
2481.531,232.92818,
2478.621,241.55275,
2475.710,228.82133,
2472.799,227.30095,
2469.889,238.05781,
2466.978,249.91607,
2464.068,254.95965,
2461.157,230.64498,
2458.247,233.875,
2455.336,239.15094,
2452.425,240.98349,
2449.515,245.64838,
2446.604,235.46487,
2443.694,237.52633,
2440.783,256.25901,
2437.872,243.83854,
2434.962,248.91647,
2432.051,257.09706,
2429.141,253.56904,
2426.230,249.33134,
2423.320,264.98953,
2420.409,258.27878,
2417.498,271.6531,
2414.588,258.0728,
2411.677,253.22955,
2408.767,239.92224,
2405.856,242.4941,
2402.946,251.04211,
2400.035,253.58157,
2397.124,273.63971,
2394.214,259.00901,
2391.303,249.41091,
2388.393,267.04481,
2385.482,232.7256,
2382.571,243.3686,
2379.661,255.17716,
2376.750,272.03263,
2373.840,259.54069,
2370.929,269.72338,
2368.019,249.64593,
2365.108,257.61846,
2362.197,264.875,
2359.287,283.23656,
2356.376,282.88381,
2353.466,268.90585,
2350.555,268.77528,
2347.645,282.65116,
2344.734,284.66302,
2341.823,297.65942,
2338.913,296.92126,
2336.002,287.13338,
2333.092,277.99008,
2330.181,296.77263,
2327.270,281.25013,
2324.360,300.26181,
2321.449,285.02805,
2318.539,281.00345,
2315.628,294.54686,
2312.718,293.4587,
2309.807,270.71946,
2306.896,295.37109,
2303.986,284.73855,
2301.075,275.34308,
2298.165,298.42348,
2295.254,299.96117,
2292.344,314.71733,
2289.433,307.49272,
2286.522,297.95533,
2283.612,298.11479,
2280.701,298.60594,
2277.791,294.43792,
2274.880,329.09305,
2271.969,313.07253,
2269.059,310.57801,
2266.148,329.73643,
2263.238,328.57771,
2260.327,325.56448,
2257.417,314.51722,
2254.506,330.61572,
2251.595,322.875,
2248.685,348.65375,
2245.774,346.16092,
2242.864,331.05957,
2239.953,310.79213,
2237.043,324.25108,
2234.132,321.03341,
2231.221,351.03533,
2228.311,332.17014,
2225.400,346.07202,
2222.490,344.14843,
2219.579,324.33782,
2216.669,353.406,
2213.758,350.78873,
2210.847,348.03873,
2207.937,346.875,
2205.026,368.65314,
2202.116,358.875,
2199.205,353.92535,
2196.294,353.61898,
2193.384,359.5855,
2190.473,353.01115,
2187.563,363.90883,
2184.652,371.02561,
2181.742,369.80656,
2178.831,373.66881,
2175.920,385.45788,
2173.010,396.02579,
2170.099,410.27381,
2167.189,419.08309,
2164.278,449.34234,
2161.368,466.15971,
2158.457,492.38215,
2155.546,514.45003,
2152.636,546.7792,
2149.725,586.66692,
2146.815,541.64355,
2143.904,598.47352,
2140.993,597.66862,
2138.083,615.99349,
2135.172,617.99256,
2132.262,624.52905,
2129.351,650.46818,
2126.441,612.4671,
2123.530,598.70664,
2120.619,582.63652,
2117.709,566.70069,
2114.798,529.89023,
2111.888,493.01315,
2108.977,478.875,
2106.067,465.98258,
2103.156,441.63879,
2100.245,431.86998,
2097.335,422.67081,
2094.424,414.8324,
2091.514,405.71898,
2088.603,383.875,
2085.692,400.42509,
2082.782,405.51359,
2079.871,407.80382,
2076.961,418.22922,
2074.050,430.63258,
2071.140,419.92145,
2068.229,392.68489,
2065.318,401.72675,
2062.408,404.79935,
2059.497,384.62496,
2056.587,378.51436,
2053.676,376.34207,
2050.766,388.72029,
2047.855,392.15979,
2044.944,403.20512,
2042.034,403.58009,
2039.123,394.21843,
2036.213,415.49272,
2033.302,403.13582,
2030.391,403.2988,
2027.481,404.10669,
2024.570,401.50366,
2021.660,409.34284,
2018.749,415.79902,
2015.839,415.48917,
2012.928,429.55285,
2010.017,432.78487,
2007.107,409.68808,
2004.196,411.5536,
2001.286,425.52163,
1998.375,426.39567,
1995.465,406.78304,
1992.554,411.51609,
1989.643,430.25285,
1986.733,432.875,
1983.822,433.86244,
1980.912,438.28081,
1978.001,434.12918,
1975.090,443.64905,
1972.180,446.15161,
1969.269,442.96984,
1966.359,428.7126,
1963.448,424.71912,
1960.538,438.23614,
1957.627,427.50038,
1954.716,429.76009,
1951.806,447.08015,
1948.895,425.24352,
1945.985,382.12173,
1943.074,410.50569,
1940.164,448.06702,
1937.253,424.875,
1934.342,433.44772,
1931.432,440.14314,
1928.521,457.70747,
1925.611,429.6741,
1922.700,414.08356,
1919.790,433.68402,
1916.879,424.78174,
1913.968,433.8627,
1911.058,431.0732,
1908.147,438.25898,
1905.237,463.89704,
1902.326,445.80983,
1899.415,434.12379,
1896.505,446.04971,
1893.594,449.23781,
1890.684,446.22797,
1887.773,445.34043,
1884.863,475.93878,
1881.952,459.79032,
1879.041,414.8589,
1876.131,421.16258,
1873.220,424.875,
1870.310,454.57898,
1867.399,474.58712,
1864.489,458.83606,
1861.578,456.47401,
1858.667,444.78217,
1855.757,455.07786,
1852.846,451.875,
1849.936,450.36349,
1847.025,456.40053,
1844.114,478.3009,
1841.204,474.04983,
1838.293,460.875,
1835.383,469.07249,
1832.472,471.13065,
1829.562,458.93177,
1826.651,474.38832,
1823.740,467.85964,
1820.830,474.22157,
1817.919,477.06062,
1815.009,481.15617,
1812.098,476.48918,
1809.188,497.44859,
1806.277,428.46849,
1803.366,490.875,
1800.456,491.53449,
1797.545,502.78281,
1794.635,502.52001,
1791.724,505.55463,
1788.813,498.875,
1785.903,493.24713,
1782.992,470.04637,
1780.082,460.79141,
1777.171,446.19565,
1774.261,405.81014,
1771.350,456.26277,
1768.439,514.875,
1765.529,516.69352,
1762.618,507.27998,
1759.708,504.07074,
1756.797,520.4053,
1753.887,517.28462,
1750.976,517.54057,
1748.065,548.06701,
1745.155,526.19139,
1742.244,515.46919,
1739.334,519.50559,
1736.423,533.71236,
1733.512,544.96851,
1730.602,568.56749,
1727.691,539.79495,
1724.781,535.16761,
1721.870,520.77967,
1718.960,548.94205,
1716.049,574.33244,
1713.138,589.84494,
1710.228,549.23045,
1707.317,586.219,
1704.407,538.86957,
1701.496,590.30251,
1698.586,583.8632,
1695.675,612.81768,
1692.764,606.3545,
1689.854,624.05218,
1686.943,625.84127,
1684.033,573.21616,
1681.122,600.38222,
1678.211,621.67514,
1675.301,654.77325,
1672.390,697.71649,
1669.480,644.99533,
1666.569,660.30666,
1663.659,693.95666,
1660.748,699.47273,
1657.837,728.38786,
1654.927,662.41387,
1652.016,684.46192,
1649.106,669.27042,
1646.195,725.45043,
1643.285,748.71549,
1640.374,742.66942,
1637.463,780.14522,
1634.553,795.02278,
1631.642,805.12473,
1628.732,827.91648,
1625.821,834.88874,
1622.911,855.75666,
1620.000,921.04348,
1617.089,1002.2432,
1614.179,1048.5778,
1611.268,1095.1276,
1608.358,1126.4235,
1605.447,1194.8184,
1602.536,1251.0607,
1599.626,1194.1594,
1596.715,1230.6247,
1593.805,1183.8981,
1590.894,1207.8178,
1587.984,1197.1514,
1585.073,1194.875,
1582.162,1177.3424,
1579.252,1162.4188,
1576.341,1127.0314,
1573.431,1102.4283,
1570.520,1108.5763,
1567.610,1110.3848,
1564.699,1091.0242,
1561.788,1069.0864,
1558.878,1086.7717,
1555.967,1066.8238,
1553.057,1054.0646,
1550.146,1034.366,
1547.235,1038.5848,
1544.325,1014.1154,
1541.414,988.57529,
1538.504,988.81979,
1535.593,964.47694,
1532.683,953.27864,
1529.772,951.48776,
1526.861,917.40282,
1523.951,917.88375,
1521.040,942.33844,
1518.130,917.59263,
1515.219,899.63464,
1512.309,906.17678,
1509.398,888.23052,
1506.487,892.03215,
1503.577,911.64562,
1500.666,865.33002,
1497.756,879.54482,
1494.845,911.91502,
1491.934,912.87815,
1489.024,913.84064,
1486.113,907.38449,
1483.203,930.85553,
1480.292,846.47832,
1477.382,819.55953,
1474.471,830.68782,
1471.560,871.15831,
1468.650,888.97464,
1465.739,858.21,
1462.829,872.69996,
1459.918,887.14013,
1457.008,870.21333,
1454.097,849.70752,
1451.186,842.03361,
1448.276,839.01974,
1445.365,828.37579,
1442.455,844.70799,
1439.544,857.49078,
1436.633,843.06963,
1433.723,867.11217,
1430.812,896.94888,
1427.902,897.10831,
1424.991,864.88439,
1422.081,860.20509,
1419.170,899.62178,
1416.259,877.52279,
1413.349,805.92427,
1410.438,835.95891,
1407.528,881.69344,
1404.617,880.19679,
1401.707,848.67738,
1398.796,858.66863,
1395.885,882.60721,
1392.975,878.31281,
1390.064,884.81158,
1387.154,854.79,
1384.243,817.9106,
1381.332,849.86296,
1378.422,873.82669,
1375.511,872.88991,
1372.601,886.69856,
1369.690,914.4489,
1366.780,895.90598,
1363.869,941.45487,
1360.958,991.90517,
1358.048,1000.1619,
1355.137,1005.3887,
1352.227,1015.79,
1349.316,1033.9835,
1346.406,1078.7565,
1343.495,1096.9446,
1340.584,1033.6609,
1337.674,1025.1999,
1334.763,1078.5807,
1331.853,1097.1253,
1328.942,1072.97,
1326.032,1064.9813,
1323.121,1111.2967,
1320.210,1112.5588,
1317.300,1110.7773,
1314.389,1118.4723,
1311.479,1140.6613,
1308.568,1170.9812,
1305.657,1186.6513,
1302.747,1217.0721,
1299.836,1285.6809,
1296.926,1265.3106,
1294.015,1317.712,
1291.105,1274.0868,
1288.194,1299.8247,
1285.283,1361.5752,
1282.373,1402.4921,
1279.462,1412.777,
1276.552,1427.2058,
1273.641,1460.4389,
1270.731,1473.5257,
1267.820,1454.4697,
1264.909,1494.0288,
1261.999,1486.6434,
1259.088,1452.8949,
1256.178,1427.7507,
1253.267,1395.4888,
1250.356,1362.4939,
1247.446,1340.9006,
1244.535,1314.5492,
1241.625,1280.3417,
1238.714,1247.666,
1235.804,1213.2634,
1232.893,1179.7487,
1229.982,1183.9125,
1227.072,1125.9725,
1224.161,1099.1814,
1221.251,1091.897,
1218.340,1066.906,
1215.430,1032.4041,
1212.519,1041.5878,
1209.608,1059.3456,
1206.698,1034.9176,
1203.787,1042.277,
1200.877,1048.3705,
1197.966,1024.0932,
1195.055,1070.6569,
1192.145,1093.1505,
1189.234,1119.9339,
1186.324,1130.784,
1183.413,1146.6567,
1180.503,1160.7926,
1177.592,1149.6629,
1174.681,1154.9469,
1171.771,1128.3077,
1168.860,1147.0626,
1165.950,1094.0473,
1163.039,1105.3191,
1160.129,1088.7417,
1157.218,1069.3943,
1154.307,1064.4227,
1151.397,1062.0886,
1148.486,1078.3736,
1145.576,1085.1789,
1142.665,1046.1107,
1139.754,1077.0474,
1136.844,1049.1596,
1133.933,1042.6726,
1131.023,1064.9263,
1128.112,1085.0175,
1125.202,1088.1504,
1122.291,1087.2537,
1119.380,1096.8057,
1116.470,1089.7455,
1113.559,1102.0202,
1110.649,1091.4684,
1107.738,1079.0526,
1104.828,1073.6267,
1101.917,1064.7741,
1099.006,1045.9472,
1096.096,1038.1113,
1093.185,1058.3054,
1090.275,1060.6843,
1087.364,1071.853,
1084.453,1066.1882,
1081.543,1056.1221,
1078.632,1055.1286,
1075.722,1062.7646,
1072.811,1082.8822,
1069.901,1068.91,
1066.990,1100.2083,
1064.079,1115.3607,
1061.169,1117.7704,
1058.258,1112.6401,
1055.348,1114.8119,
1052.437,1132.5631,
1049.527,1125.5729,
1046.616,1117.7534,
1043.705,1123.0411,
1040.795,1117.8514,
1037.884,1127.5299,
1034.974,1134.5438,
1032.063,1114.0984,
1029.153,1086.5102,
1026.242,1116.7837,
1023.331,1142.8734,
1020.421,1147.875,
1017.510,1145.6339,
1014.600,1163.3298,
1011.689,1192.4406,
1008.778,1195.6496,
1005.868,1177.0294,
1002.957,1194.2365,
1000.047,1242.011,
997.136,1284.7173,
994.226,1300.6443,
991.315,1291.177,
988.404,1272.6324,
985.494,1255.875,
982.583,1255.875,
979.673,1273.4345,
976.762,1276.3524,
973.852,1260.6147,
970.941,1250.6918,
968.030,1263.4183,
965.120,1243.986,
962.209,1270.4148,
959.299,1287.6235,
956.388,1286.7154,
953.477,1285.5742,
950.567,1288.2608,
947.656,1278.424,
944.746,1259.7337,
941.835,1312.3227,
938.925,1289.3403,
936.014,1272.3925,
933.103,1280.2307,
930.193,1281.6874,
927.282,1241.2416,
924.372,1248.0065,
921.461,1206.1638,
918.551,1193.7797,
915.640,1186.9512,
912.729,1173.8016,
909.819,1173.7663,
906.908,1195.6694,
903.998,1125.2922,
901.087,1151.4304,
898.176,1172.103,
895.266,1170.049,
892.355,1182.6862,
889.445,1213.7391,
886.534,1206.3612,
883.624,1222.3686,
880.713,1227.8129,
877.802,1203.6841,
874.892,1160.5658,
871.981,1145.4607,
869.071,1127.917,
866.160,1109.6959,
863.250,1150.0533,
860.339,1206.12,
857.428,1229.1098,
854.518,1224.5992,
851.607,1180.4995,
848.697,1186.6313,
845.786,1185.6095,
842.875,1198.7993,
839.965,1233.7196,
837.054,1223.9122,
834.144,1227.2272,
831.233,1222.5421,
828.323,1228.7773,
825.412,1241.7386,
822.501,1247.343,
819.591,1233.2942,
816.680,1237.6827,
813.770,1226.9715,
810.859,1194.6055,
807.949,1171.0409,
805.038,1187.7843,
802.127,1170.4986,
799.217,1154.7126,
796.306,1158.3886,
793.396,1151.2489,
790.485,1131.1385,
787.574,1135.9373,
784.664,1137.5775,
781.753,1139.888,
778.843,1147.7362,
775.932,1151.7886,
773.022,1145.509,
770.111,1149.5969,
767.200,1166.6239,
764.290,1160.8953,
761.379,1148.1486,
758.469,1145.2696,
755.558,1161.1456,
752.648,1136.7075,
749.737,1144.9308,
746.826,1157.4697,
743.916,1148.7969,
741.005,1102.3552,
738.095,1035.7813,
735.184,978.53588,
732.274,947.83115,
729.363,967.12705,
726.452,1044.9013,
723.542,1155.7882,
720.631,1138.9388,
717.721,1138.7491,
714.810,1148.4432,
711.899,1155.875,
708.989,1155.875,
706.078,1179.9141,
703.168,1162.1934,
700.257,1160.9024,
697.347,1170.4413,
694.436,1132.8532,
691.525,1132.0494,
688.615,1106.0896,
685.704,1100.3723,
682.794,1129.4918,
679.883,1182.217,
676.973,1145.354,
674.062,1139.1512,
671.151,1159.5999,
668.241,1175.1068,
665.330,1143.043,
662.420,1125.4709,
659.509,1137.7483,
656.598,1158.1265,
653.688,1168.7342,
650.777,1155.064,
647.867,1160.6383,
644.956,1140.8239,
642.046,1117.9246,
639.135,1100.9405,
636.224,1090.0222,
633.314,1119.3979,
630.403,1114.4596,
627.493,1126.615,
624.582,1158.8156,
621.672,1154.0636,
618.761,1151.5952,
615.850,1138.2023,
612.940,1143.9271,
610.029,1176.3217,
607.119,1185.0077,
604.208,1188.7151,
601.297,1182.3972,
598.387,1180.321,
595.476,1191.3495,
592.566,1164.5892,
589.655,1176.0723,
586.745,1169.2521,
583.834,1156.3409,
580.923,1182.7281,
578.013,1158.4013,
575.102,1155.8901,
572.192,1163.877,
569.281,1181.5922,
566.371,1230.1149,
563.460,1189.0196,
560.549,1189.3661,
557.639,1198.3268,
554.728,1166.9243,
551.818,1167.7046,
548.907,1177.0162,
545.996,1196.0938,
543.086,1212.0099,
540.175,1189.4292,
537.265,1182.0808,
534.354,1189.9088,
531.444,1206.0055,
528.533,1221.875,
525.622,1221.875,
522.712,1231.5831,
519.801,1235.2018,
516.891,1231.9705,
513.980,1237.3906,
511.070,1234.3533,
508.159,1260.0963,
505.248,1278.8591,
502.338,1247.5016,
499.427,1303.0735,
496.517,1341.6326,
493.606,1357.1831,
490.695,1353.1588,
487.785,1362.3963,
484.874,1343.8421,
481.964,1340.7653,
479.053,1351.1396,
476.143,1348.0677,
473.232,1342.8392,
470.321,1336.9824,
467.411,1328.3163,
464.500,1315.3986,
461.590,1336.0736,
458.679,1369.94,
455.769,1391.2997,
452.858,1389.068,
449.947,1400.527,
447.037,1372.537,
444.126,1369.5114,
441.216,1405.1509,
438.305,1447.0571,
435.395,1405.6692,
432.484,1397.5451,
429.573,1416.4374,
426.663,1397.4339,
423.752,1325.4357,
420.842,1240.0727,
417.931,1176.5988,
415.020,1182.6656,
412.110,1302.8596,
409.199,1403.1097,
406.289,1444.1645,
403.378,1390.0133,
400.468,1430.837,
397.557,1404.7996,
394.646,1414.2024,
391.736,1536.7362,
388.825,1438.6861,
385.915,1417.3257,
383.004,1437.5811,
380.094,1472.8347,
377.183,1491.6466,
374.272,1489.8189,
371.362,1485.0523,
368.451,1490.7928,
365.541,1538.8271,
362.630,1534.9415,
359.719,1525.3145,
356.809,1533.7002,
353.898,1497.7579,
350.988,1532.3589,
348.077,1555.9354,
345.167,1522.7454,
342.256,1539.9279,
339.345,1536.9035,
336.435,1547.0857,
333.524,1592.1099,
330.614,1599.5614,
327.703,1570.5573,
324.793,1542.164,
321.882,1545.9038,
318.971,1557.7989,
316.061,1574.0829,
313.150,1592.6488,
310.240,1611.2017,
307.329,1632.5995,
304.418,1622.1809,
301.508,1593.3765,
298.597,1568.9428,
295.687,1545.8805,
292.776,1558.3751,
289.866,1594.39,
286.955,1615.8131,
284.044,1680.2274,
281.134,1718.8373,
278.223,1725.0606,
275.313,1733.166,
272.402,1763.3393,
269.492,1780.0728,
266.581,1773.8719,
263.670,1801.8088,
260.760,1805.6959,
257.849,1813.6799,
254.939,1847.4385,
252.028,1805.1682,
249.117,1817.6551,
246.207,1859.0726,
243.296,1886.89,
240.386,1866.3673,
237.475,1847.3438,
234.565,1836.76,
231.654,1836.0296,
228.743,1841.0533,
225.833,1818.9588,
222.922,1761.3359,
220.012,1792.6637,
217.101,1794.5328,
214.191,1790.4648,
211.280,1805.7415,
208.369,1812.2575,
205.459,1808.0877,
202.548,1789.7273,
199.638,1742.5601,
196.727,1791.649,
193.816,1830.6607,
190.906,1821.7384,
187.995,1846.3553,
185.085,1867.6421,
182.174,1881.6791,
179.264,1880.9564,
176.353,1939.8267,
173.442,1957.285,
170.532,1934.6634,
167.621,1975.759,
164.711,1924.858,
161.800,1844.7901,
158.890,1774.2568,
155.979,1685.9707,
153.068,1556.4671,
150.158,1393.6818,
147.247,1222.0912,
144.337,1002.0846,
141.426,800.4298,
138.516,650.59953,
135.605,454.19084,
132.694,299.28353,
129.784,185.8892,
126.873,124.38804,
123.963,85.697774,
121.052,60.209216,
118.141,45.931176,
115.231,38.058726,
112.320,32.75682,
109.410,27.966026,
106.499,17.995853,
103.589,14.754491,
100.678,14.146622,
97.767,14.857559,
94.857,16.953967,
91.946,12.231448,
89.036,4.6652854,
86.125,9.6297223,
83.215,5.0348761,
80.304,2.2693268,
77.393,9.3510262,
74.483,7.2544602,
71.572,5.1502958,
68.662,4.3598725,
65.751,9.30503,
62.840,10.393298,
59.930,8.5639966,
57.019,3.6284227,
54.109,7.0551259,
51.198,8.3669536,
48.288,4.8580127,
45.377,2.7478785,
42.466,3.9360967,
39.556,6.9901186,
36.645,7.6923088,
33.735,9.9519939,
30.824,8.5616954,
27.914,-1.9559333,
25.003,1.2334623,
22.092,5.8124273,
19.182,10.058063,
16.271,15.653984,
13.361,50.748722,
10.450,97.317277,
7.539,105.69706,
4.629,156.92587,
1.718,172.29916,
-1.192,72.607491,
-4.103,22.807161,
-7.013,0.091089488,
-9.924,2.875,
