,PLFBFD~1,
Wavenumbers [1/cm],Intensity,
3014.167,-4.875,
3011.256,1.3749463,
3008.346,85.936984,
3005.435,96.623231,
3002.525,97.635067,
2999.614,111.74836,
2996.704,111.62087,
2993.793,101.86809,
2990.882,102.60594,
2987.972,87.261214,
2985.061,106.58804,
2982.151,123.54519,
2979.240,119.30463,
2976.329,122.59497,
2973.419,133.72526,
2970.508,126.20832,
2967.598,141.02942,
2964.687,140.08016,
2961.777,152.9029,
2958.866,146.13391,
2955.955,137.16039,
2953.045,139.40912,
2950.134,159.67897,
2947.224,146.89366,
2944.313,159.19266,
2941.403,162.98266,
2938.492,154.72122,
2935.581,173.16793,
2932.671,158.16794,
2929.760,167.24422,
2926.850,157.38628,
2923.939,185.36801,
2921.028,163.56606,
2918.118,170.00662,
2915.207,180.18193,
2912.297,179.12077,
2909.386,184.74543,
2906.476,181.03232,
2903.565,174.23834,
2900.654,173.85401,
2897.744,161.23815,
2894.833,156.517,
2891.923,145.234,
2889.012,165.96315,
2886.102,154.95743,
2883.191,158.125,
2880.280,57.684795,
2877.370,-50.148007,
2874.459,-124.96266,
2871.549,-1.5979638,
2868.638,104.22186,
2865.727,135.28651,
2862.817,145.66778,
2859.906,175.03668,
2856.996,174.65897,
2854.085,175.04728,
2851.175,187.17318,
2848.264,178.566,
2845.353,200.9956,
2842.443,190.73266,
2839.532,203.52787,
2836.622,203.93946,
2833.711,187.70271,
2830.801,192.72206,
2827.890,193.7701,
2824.979,194.61897,
2822.069,206.19323,
2819.158,204.14386,
2816.248,203.82579,
2813.337,217.62989,
2810.427,204.33849,
2807.516,212.80844,
2804.605,206.18991,
2801.695,216.42763,
2798.784,215.125,
2795.874,211.98516,
2792.963,216.83947,
2790.052,201.12929,
2787.142,201.94092,
2784.231,213.99612,
2781.321,213.23919,
2778.410,193.42448,
2775.500,208.95431,
2772.589,191.62576,
2769.678,212.87239,
2766.768,213.57353,
2763.857,208.49301,
2760.947,211.16283,
2758.036,217.125,
2755.126,217.21048,
2752.215,226.10661,
2749.304,229.44332,
2746.394,220.125,
2743.483,213.52503,
2740.573,223.20692,
2737.662,216.45488,
2734.751,214.68324,
2731.841,217.80083,
2728.930,235.45129,
2726.020,233.68113,
2723.109,222.59942,
2720.199,227.71244,
2717.288,226.24908,
2714.377,232.79976,
2711.467,235.10852,
2708.556,240.68879,
2705.646,235.36442,
2702.735,233.44974,
2699.825,235.39595,
2696.914,246.125,
2694.003,250.86809,
2691.093,240.64246,
2688.182,235.47093,
2685.272,248.13354,
2682.361,238.13046,
2679.450,246.79994,
2676.540,230.36889,
2673.629,245.11153,
2670.719,249.84034,
2667.808,245.31954,
2664.898,247.90418,
2661.987,253.52507,
2659.076,247.39656,
2656.166,240.125,
2653.255,249.26956,
2650.345,248.93262,
2647.434,249.72517,
2644.524,256.125,
2641.613,262.29659,
2638.702,257.25125,
2635.792,252.2207,
2632.881,248.09505,
2629.971,266.59486,
2627.060,255.125,
2624.149,246.85626,
2621.239,261.17243,
2618.328,246.14229,
2615.418,271.77955,
2612.507,272.16059,
2609.597,276.39047,
2606.686,268.2294,
2603.775,256.44643,
2600.865,252.71542,
2597.954,259.31666,
2595.044,268.4111,
2592.133,277.90206,
2589.223,285.14922,
2586.312,290.58733,
2583.401,284.92063,
2580.491,290.02884,
2577.580,300.09694,
2574.670,288.93648,
2571.759,285.95806,
2568.848,271.125,
2565.938,293.07745,
2563.027,284.58863,
2560.117,287.125,
2557.206,307.91836,
2554.296,288.72912,
2551.385,302.62096,
2548.474,292.49526,
2545.564,302.71348,
2542.653,318.65185,
2539.743,287.86529,
2536.832,287.75865,
2533.922,318.93577,
2531.011,303.5503,
2528.100,297.32362,
2525.190,308.82131,
2522.279,287.68778,
2519.369,293.99324,
2516.458,302.69511,
2513.548,294.85261,
2510.637,311.87907,
2507.726,309.37407,
2504.816,308.18701,
2501.905,286.45854,
2498.995,323.00556,
2496.084,316.52567,
2493.173,329.33626,
2490.263,317.01309,
2487.352,325.125,
2484.442,327.68816,
2481.531,334.65159,
2478.621,342.80275,
2475.710,322.19401,
2472.799,336.05768,
2469.889,343.36875,
2466.978,346.67128,
2464.068,352.08268,
2461.157,324.125,
2458.247,332.22803,
2455.336,355.65535,
2452.425,342.51177,
2449.515,366.05846,
2446.604,349.76551,
2443.694,351.40376,
2440.783,379.13176,
2437.872,356.125,
2434.962,356.125,
2432.051,356.125,
2429.141,360.39553,
2426.230,349.97249,
2423.320,384.35405,
2420.409,369.41977,
2417.498,377.52668,
2414.588,365.68018,
2411.677,360.05328,
2408.767,354.83662,
2405.856,351.22259,
2402.946,362.91678,
2400.035,345.34564,
2397.124,354.88971,
2394.214,353.55939,
2391.303,366.30183,
2388.393,365.11105,
2385.482,349.87405,
2382.571,351.83436,
2379.661,351.86888,
2376.750,373.75804,
2373.840,363.6344,
2370.929,388.8326,
2368.019,392.9686,
2365.108,390.89202,
2362.197,396.31953,
2359.287,379.56176,
2356.376,384.10915,
2353.466,414.7466,
2350.555,414.26018,
2347.645,402.58728,
2344.734,404.88541,
2341.823,414.04208,
2338.913,411.99364,
2336.002,410.28282,
2333.092,416.80329,
2330.181,423.95105,
2327.270,410.1701,
2324.360,443.5543,
2321.449,412.50935,
2318.539,408.10359,
2315.628,423.16617,
2312.718,444.25717,
2309.807,429.05669,
2306.896,430.14065,
2303.986,424.37814,
2301.075,420.23134,
2298.165,438.29829,
2295.254,438.18963,
2292.344,427.22871,
2289.433,434.46864,
2286.522,438.15178,
2283.612,444.64542,
2280.701,440.20125,
2277.791,461.72425,
2274.880,457.90289,
2271.969,467.52006,
2269.059,444.09775,
2266.148,452.52734,
2263.238,456.22539,
2260.327,482.40063,
2257.417,466.47888,
2254.506,485.27028,
2251.595,484.40496,
2248.685,481.75964,
2245.774,490.83908,
2242.864,465.06016,
2239.953,469.81455,
2237.043,482.89072,
2234.132,468.71983,
2231.221,485.73234,
2228.311,499.34407,
2225.400,499.20944,
2222.490,500.45395,
2219.579,499.96308,
2216.669,501.18223,
2213.758,496.30017,
2210.847,504.96127,
2207.937,520.51423,
2205.026,524.01421,
2202.116,517.74708,
2199.205,519.35041,
2196.294,525.17496,
2193.384,552.46653,
2190.473,546.25528,
2187.563,542.29417,
2184.652,575.01643,
2181.742,561.05656,
2178.831,565.79819,
2175.920,585.70242,
2173.010,580.24915,
2170.099,628.11907,
2167.189,618.1824,
2164.278,634.19536,
2161.368,689.12403,
2158.457,709.97225,
2155.546,735.79043,
2152.636,776.0292,
2149.725,808.42699,
2146.815,829.55773,
2143.904,862.93168,
2140.993,876.09858,
2138.083,888.00939,
2135.172,915.21736,
2132.262,898.49208,
2129.351,917.78031,
2126.441,886.25109,
2123.530,879.8444,
2120.619,851.40956,
2117.709,810.45793,
2114.798,751.41335,
2111.888,716.13838,
2108.977,697.76076,
2106.067,679.16556,
2103.156,652.00896,
2100.245,630.11998,
2097.335,622.60667,
2094.424,618.22647,
2091.514,588.83464,
2088.603,593.94062,
2085.692,591.57491,
2082.782,581.53865,
2079.871,589.51823,
2076.961,618.25224,
2074.050,597.19167,
2071.140,611.0451,
2068.229,579.29556,
2065.318,591.97675,
2062.408,593.57205,
2059.497,583.2976,
2056.587,584.05507,
2053.676,591.39147,
2050.766,580.12575,
2047.855,557.38131,
2044.944,568.65224,
2042.034,580.38505,
2039.123,581.7883,
2036.213,597.32048,
2033.302,592.97257,
2030.391,587.15944,
2027.481,602.16134,
2024.570,599.32531,
2021.660,600.88848,
2018.749,608.04902,
2015.839,607.33563,
2012.928,611.21728,
2010.017,598.125,
2007.107,601.05585,
2004.196,613.82741,
2001.286,615.47837,
1998.375,587.46554,
1995.465,575.55179,
1992.554,590.90133,
1989.643,611.46829,
1986.733,616.64342,
1983.822,608.26606,
1980.912,605.93662,
1978.001,600.1417,
1975.090,604.74942,
1972.180,591.74602,
1969.269,613.59922,
1966.359,614.31395,
1963.448,606.31655,
1960.538,609.55953,
1957.627,611.90828,
1954.716,619.89519,
1951.806,617.46631,
1948.895,634.96318,
1945.985,584.63971,
1943.074,598.27273,
1940.164,575.27878,
1937.253,578.30309,
1934.342,580.048,
1931.432,584.4026,
1928.521,602.56714,
1925.611,564.59947,
1922.700,595.61118,
1919.790,582.28714,
1916.879,588.35776,
1913.968,608.10164,
1911.058,589.23912,
1908.147,616.20235,
1905.237,596.92647,
1902.326,588.21391,
1899.415,562.51646,
1896.505,578.61926,
1893.594,606.94814,
1890.684,616.22945,
1887.773,631.23714,
1884.863,625.93593,
1881.952,629.00745,
1879.041,595.56995,
1876.131,607.74198,
1873.220,596.56299,
1870.310,624.75723,
1867.399,605.47686,
1864.489,665.7105,
1861.578,606.0316,
1858.667,604.53818,
1855.757,608.49851,
1852.846,638.62756,
1849.936,634.68357,
1847.025,627.06417,
1844.114,632.10146,
1841.204,642.81381,
1838.293,647.15161,
1835.383,651.34548,
1832.472,645.58935,
1829.562,637.15182,
1826.651,661.63832,
1823.740,641.2782,
1820.830,648.64485,
1817.919,665.52627,
1815.009,651.85656,
1812.098,677.84939,
1809.188,639.85378,
1806.277,637.125,
1803.366,677.55754,
1800.456,701.91594,
1797.545,682.04694,
1794.635,690.22199,
1791.724,687.26088,
1788.813,698.51909,
1785.903,679.18702,
1782.992,657.88351,
1780.082,609.33005,
1777.171,597.11696,
1774.261,568.58503,
1771.350,619.40652,
1768.439,693.97618,
1765.529,709.67319,
1762.618,723.25999,
1759.708,717.59238,
1756.797,745.70833,
1753.887,746.86698,
1750.976,729.30432,
1748.065,761.4614,
1745.155,746.63492,
1742.244,748.97551,
1739.334,755.33206,
1736.423,752.41846,
1733.512,757.21851,
1730.602,759.87302,
1727.691,769.33693,
1724.781,788.64311,
1721.870,761.7391,
1718.960,758.23616,
1716.049,785.97219,
1713.138,793.68999,
1710.228,760.18342,
1707.317,802.89186,
1704.407,806.42981,
1701.496,812.50583,
1698.586,824.21281,
1695.675,821.38217,
1692.764,845.73977,
1689.854,850.95177,
1686.943,829.86696,
1684.033,813.52238,
1681.122,863.25839,
1678.211,856.20114,
1675.301,894.00783,
1672.390,946.02631,
1669.480,913.30148,
1666.569,934.93456,
1663.659,920.59864,
1660.748,950.26262,
1657.837,1006.6816,
1654.927,942.82787,
1652.016,972.92687,
1649.106,1006.5939,
1646.195,1064.8613,
1643.285,1053.054,
1640.374,1008.233,
1637.463,1061.0618,
1634.553,1112.2432,
1631.642,1120.6679,
1628.732,1170.1428,
1625.821,1173.1878,
1622.911,1268.584,
1620.000,1338.2431,
1617.089,1384.2096,
1614.179,1457.0381,
1611.268,1514.0059,
1608.358,1555.2053,
1605.447,1663.6687,
1602.536,1741.8803,
1599.626,1702.9682,
1596.715,1661.0058,
1593.805,1661.5967,
1590.894,1665.6477,
1587.984,1657.4641,
1585.073,1648.4676,
1582.162,1607.8854,
1579.252,1555.9367,
1576.341,1585.3771,
1573.431,1558.3158,
1570.520,1528.2512,
1567.610,1525.8505,
1564.699,1542.3506,
1561.788,1510.8014,
1558.878,1467.8145,
1555.967,1424.0738,
1553.057,1430.4524,
1550.146,1406.2524,
1547.235,1413.822,
1544.325,1406.8484,
1541.414,1362.9827,
1538.504,1362.6219,
1535.593,1342.6326,
1532.683,1332.0668,
1529.772,1327.3131,
1526.861,1266.4691,
1523.951,1252.8704,
1521.040,1272.6238,
1518.130,1284.1328,
1515.219,1232.8049,
1512.309,1235.8863,
1509.398,1233.6288,
1506.487,1240.9359,
1503.577,1243.2469,
1500.666,1209.7965,
1497.756,1217.8711,
1494.845,1248.3635,
1491.934,1182.188,
1489.024,1201.4379,
1486.113,1191.9256,
1483.203,1181.3552,
1480.292,1177.5795,
1477.382,1160.96,
1474.471,1160.9619,
1471.560,1171.5587,
1468.650,1179.2246,
1465.739,1179.844,
1462.829,1154.6555,
1459.918,1133.1526,
1457.008,1130.6481,
1454.097,1112.7144,
1451.186,1113.8291,
1448.276,1126.4627,
1445.365,1107.1992,
1442.455,1147.4114,
1439.544,1137.8769,
1436.633,1063.554,
1433.723,1138.5079,
1430.812,1123.6714,
1427.902,1167.0201,
1424.991,1120.5797,
1422.081,1113.6201,
1419.170,1148.5515,
1416.259,1083.6495,
1413.349,1070.9012,
1410.438,1093.8182,
1407.528,1126.9434,
1404.617,1120.1626,
1401.707,1089.1669,
1398.796,1103.3907,
1395.885,1112.5618,
1392.975,1102.501,
1390.064,1137.7673,
1387.154,1107.741,
1384.243,1074.7126,
1381.332,1104.7064,
1378.422,1059.2597,
1375.511,1178.2309,
1372.601,1177.3603,
1369.690,1174.5533,
1366.780,1204.2223,
1363.869,1231.7399,
1360.958,1256.2906,
1358.048,1292.4173,
1355.137,1321.113,
1352.227,1347.0532,
1349.316,1371.7909,
1346.406,1399.561,
1343.495,1441.132,
1340.584,1441.3746,
1337.674,1471.197,
1334.763,1481.0071,
1331.853,1504.1879,
1328.942,1515.7986,
1326.032,1490.2095,
1323.121,1551.5528,
1320.210,1569.7976,
1317.300,1576.5687,
1314.389,1585.6945,
1311.479,1624.3869,
1308.568,1680.464,
1305.657,1707.2395,
1302.747,1757.59,
1299.836,1855.8449,
1296.926,1867.8259,
1294.015,1861.3906,
1291.105,1877.8553,
1288.194,1975.9742,
1285.283,1986.5209,
1282.373,2014.6639,
1279.462,2035.223,
1276.552,2050.0621,
1273.641,2094.9751,
1270.731,2143.5952,
1267.820,2139.4387,
1264.909,2113.3891,
1261.999,2137.8573,
1259.088,2157.924,
1256.178,2112.0199,
1253.267,2107.1938,
1250.356,2046.4949,
1247.446,2002.4568,
1244.535,1969.3304,
1241.625,1915.8473,
1238.714,1854.9342,
1235.804,1814.5377,
1232.893,1789.5133,
1229.982,1728.2051,
1227.072,1701.0457,
1224.161,1664.6643,
1221.251,1667.8036,
1218.340,1663.9991,
1215.430,1632.5982,
1212.519,1592.9201,
1209.608,1566.8094,
1206.698,1562.7422,
1203.787,1575.5421,
1200.877,1553.3947,
1197.966,1509.3359,
1195.055,1635.1123,
1192.145,1746.5349,
1189.234,1752.7685,
1186.324,1764.1273,
1183.413,1783.2418,
1180.503,1778.7524,
1177.592,1767.9431,
1174.681,1743.988,
1171.771,1674.908,
1168.860,1708.8454,
1165.950,1708.0936,
1163.039,1699.4426,
1160.129,1685.5076,
1157.218,1651.2038,
1154.307,1621.754,
1151.397,1631.2915,
1148.486,1660.2749,
1145.576,1660.7781,
1142.665,1652.7869,
1139.754,1653.7523,
1136.844,1629.6144,
1133.933,1621.471,
1131.023,1637.76,
1128.112,1656.9817,
1125.202,1663.3327,
1122.291,1666.4983,
1119.380,1662.5581,
1116.470,1706.6845,
1113.559,1743.055,
1110.649,1708.2503,
1107.738,1693.1623,
1104.828,1693.0513,
1101.917,1676.9117,
1099.006,1665.6301,
1096.096,1682.125,
1093.185,1682.125,
1090.275,1660.2747,
1087.364,1683.256,
1084.453,1698.9373,
1081.543,1699.3721,
1078.632,1697.4384,
1075.722,1699.4414,
1072.811,1704.6286,
1069.901,1697.6425,
1066.990,1723.7999,
1064.079,1781.8441,
1061.169,1788.4514,
1058.258,1774.5485,
1055.348,1788.6471,
1052.437,1814.7295,
1049.527,1782.3264,
1046.616,1787.5394,
1043.705,1798.1449,
1040.795,1777.5003,
1037.884,1786.3775,
1034.974,1803.2835,
1032.063,1792.2636,
1029.153,1784.3713,
1026.242,1794.7508,
1023.331,1816.7903,
1020.421,1838.5525,
1017.510,1847.2456,
1014.600,1878.576,
1011.689,1906.1566,
1008.778,1870.2453,
1005.868,1865.3953,
1002.957,1895.5077,
1000.047,1975.837,
997.136,2055.8097,
994.226,2060.4486,
991.315,2035.1299,
988.404,2053.8303,
985.494,1985.3168,
982.583,1993.8824,
979.673,1999.5149,
976.762,1990.5572,
973.852,1985.3351,
970.941,1993.4599,
968.030,2008.2291,
965.120,2020.0534,
962.209,2003.0026,
959.299,2041.2035,
956.388,2050.2855,
953.477,2045.3581,
950.567,2047.9093,
947.656,2053.5787,
944.746,2079.915,
941.835,2035.7755,
938.925,2044.2085,
936.014,2035.9153,
933.103,2022.009,
930.193,2030.3235,
927.282,2033.0627,
924.372,1995.0104,
921.461,1962.1418,
918.551,1950.9631,
915.640,1939.9264,
912.729,1924.7832,
909.819,1917.0104,
906.908,1885.8407,
903.998,1882.5343,
901.087,1894.8551,
898.176,1904.511,
895.266,1916.9644,
892.355,1938.5962,
889.445,1941.114,
886.534,1965.3363,
883.624,1984.2545,
880.713,2011.0289,
877.802,1996.0806,
874.892,1903.2611,
871.981,1773.744,
869.071,1715.2651,
866.160,1729.2736,
863.250,1827.6669,
860.339,1934.331,
857.428,1982.7424,
854.518,1977.8272,
851.607,1863.8337,
848.697,1811.1098,
845.786,1781.5939,
842.875,1835.2383,
839.965,1960.6639,
837.054,1963.4878,
834.144,1995.8092,
831.233,1996.1254,
828.323,2015.8753,
825.412,2023.3488,
822.501,1994.8911,
819.591,2021.3359,
816.680,2019.7211,
813.770,1985.2939,
810.859,1952.9415,
807.949,1932.3372,
805.038,1919.5144,
802.127,1939.2694,
799.217,1915.7817,
796.306,1910.5304,
793.396,1896.3844,
790.485,1870.5462,
787.574,1873.931,
784.664,1921.4975,
781.753,1929.454,
778.843,1933.0457,
775.932,1934.9645,
773.022,1937.0989,
770.111,1982.0657,
767.200,1928.7879,
764.290,1916.3259,
761.379,1923.2759,
758.469,1930.6362,
755.558,1938.958,
752.648,1899.857,
749.737,1916.2782,
746.826,1935.1859,
743.916,1930.1183,
741.005,1897.1992,
738.095,1880.1498,
735.184,1813.7696,
732.274,1742.8978,
729.363,1741.8002,
726.452,1829.188,
723.542,1879.3704,
720.631,1882.125,
717.721,1879.8336,
714.810,1907.0566,
711.899,1946.9765,
708.989,1916.3133,
706.078,1928.9458,
703.168,1929.0889,
700.257,1928.7753,
697.347,1925.2561,
694.436,1903.2958,
691.525,1872.7512,
688.615,1884.3634,
685.704,1889.0813,
682.794,1893.9972,
679.883,1936.3413,
676.973,1941.1495,
674.062,1935.1061,
671.151,1941.2066,
668.241,1958.89,
665.330,1971.4022,
662.420,1913.8936,
659.509,1935.7763,
656.598,1952.0958,
653.688,1945.8246,
650.777,1938.8271,
647.867,1959.5316,
644.956,1893.5419,
642.046,1853.4418,
639.135,1861.0595,
636.224,1872.2086,
633.314,1888.8813,
630.403,1939.2394,
627.493,1980.3428,
624.582,1999.1861,
621.672,2017.402,
618.761,1944.4109,
615.850,1926.0839,
612.940,1954.0324,
610.029,1994.4695,
607.119,1960.5154,
604.208,1970.6153,
601.297,1985.0983,
598.387,1997.8512,
595.476,2007.0507,
592.566,2006.2637,
589.655,1988.632,
586.745,1977.8231,
583.834,1984.6888,
580.923,2015.0634,
578.013,2004.8619,
575.102,2007.8609,
572.192,2012.8396,
569.281,2020.452,
566.371,2055.6701,
563.460,2033.7281,
560.549,2018.2522,
557.639,2021.4505,
554.728,2044.2235,
551.818,2045.7842,
548.907,2031.4991,
545.996,2026.4017,
543.086,2030.4408,
540.175,2017.9825,
537.265,2013.5036,
534.354,2014.1318,
531.444,2024.7634,
528.533,2048.2286,
525.622,2063.7476,
522.712,2076.8331,
519.801,2077.3968,
516.891,2075.7937,
513.980,2113.7342,
511.070,2128.3946,
508.159,2162.2566,
505.248,2181.1062,
502.338,2144.2035,
499.427,2215.212,
496.517,2233.5593,
493.606,2245.9117,
490.695,2269.4132,
487.785,2257.0966,
484.874,2255.125,
481.964,2253.4639,
479.053,2245.2415,
476.143,2220.6667,
473.232,2241.4265,
470.321,2258.3968,
467.411,2247.3707,
464.500,2189.125,
461.590,2189.125,
458.679,2221.5924,
455.769,2274.5904,
452.858,2329.3413,
449.947,2302.6037,
447.037,2279.5289,
444.126,2288.828,
441.216,2324.5219,
438.305,2326.8077,
435.395,2317.2905,
432.484,2310.8747,
429.573,2302.7349,
426.663,2275.3699,
423.752,2111.3238,
420.842,1930.607,
417.931,1804.2963,
415.020,1822.4968,
412.110,2068.947,
409.199,2229.5406,
406.289,2285.9064,
403.378,2233.2326,
400.468,2264.9843,
397.557,2281.8089,
394.646,2307.7872,
391.736,2362.6944,
388.825,2411.7195,
385.915,2411.2236,
383.004,2398.6961,
380.094,2401.8525,
377.183,2435.7139,
374.272,2455.9806,
371.362,2460.7101,
368.451,2451.7207,
365.541,2477.9895,
362.630,2502.0585,
359.719,2512.8694,
356.809,2505.4422,
353.898,2510.6838,
350.988,2498.5628,
348.077,2498.4509,
345.167,2526.3142,
342.256,2530.0495,
339.345,2505.6162,
336.435,2486.7337,
333.524,2497.2054,
330.614,2531.4826,
327.703,2519.0218,
324.793,2494.5471,
321.882,2487.235,
318.971,2532.585,
316.061,2557.8913,
313.150,2570.4345,
310.240,2577.8557,
307.329,2594.5616,
304.418,2606.1405,
301.508,2608.5804,
298.597,2595.2529,
295.687,2603.6064,
292.776,2604.7916,
289.866,2626.5924,
286.955,2752.1757,
284.044,2781.51,
281.134,2803.6771,
278.223,2835.7296,
275.313,2874.0461,
272.402,2833.3291,
269.492,2786.7183,
266.581,2764.2796,
263.670,2794.422,
260.760,2857.4529,
257.849,2906.6117,
254.939,2905.144,
252.028,2926.1165,
249.117,2928.6431,
246.207,2932.1638,
243.296,2970.9617,
240.386,2970.5541,
237.475,2951.605,
234.565,2928.2309,
231.654,2947.9513,
228.743,2949.2482,
225.833,2948.6495,
222.922,2950.868,
220.012,2923.9114,
217.101,2911.69,
214.191,2921.6757,
211.280,2966.7784,
208.369,2999.7288,
205.459,2986.5767,
202.548,2943.4955,
199.638,2934.062,
196.727,3026.0482,
193.816,3081.88,
190.906,3051.7599,
187.995,3069.8605,
185.085,3061.9393,
182.174,3059.2492,
179.264,3107.6745,
176.353,3117.6105,
173.442,3128.8264,
170.532,3139.8406,
167.621,3103.0709,
164.711,3019.02,
161.800,2902.9721,
158.890,2759.0266,
155.979,2578.2082,
153.068,2367.76,
150.158,2127.8539,
147.247,1850.0064,
144.337,1526.5922,
141.426,1202.3106,
138.516,897.63182,
135.605,646.34516,
132.694,441.98554,
129.784,284.72819,
126.873,190.33106,
123.963,136.98079,
121.052,99.226853,
118.141,69.242969,
115.231,51.360741,
112.320,42.854092,
109.410,40.170513,
106.499,35.185427,
103.589,34.125,
100.678,31.408783,
97.767,24.299407,
94.857,24.125,
91.946,20.900113,
89.036,15.334715,
86.125,10.370278,
83.215,8.0631593,
80.304,7.8432981,
77.393,9.9678079,
74.483,15.36608,
71.572,14.139127,
68.662,7.67914,
65.751,13.330749,
62.840,15.606702,
59.930,15.188569,
57.019,11.663159,
54.109,11.125,
51.198,11.728219,
48.288,13.10235,
45.377,10.288838,
42.466,10.361658,
39.556,11.549407,
36.645,8.038456,
33.735,12.836733,
30.824,16.578791,
27.914,11.670564,
25.003,13.61555,
22.092,17.062427,
19.182,21.491126,
16.271,32.682968,
13.361,155.55469,
10.450,373.53248,
7.539,695.45586,
4.629,1015.0855,
1.718,1111.8973,
-1.192,706.85631,
-4.103,367.69733,
-7.013,127.705,
-9.924,3.125,
