,PLF753~1,
Raman shift [1/cm],Intensity,
3014.167,-1,
3011.256,-0.44998926,
3008.346,43.95164,
3005.435,65.69258,
3002.525,68.585011,
2999.614,63.049346,
2996.704,72.265975,
2993.793,66.646888,
2990.882,62.992297,
2987.972,67.964685,
2985.061,67.206905,
2982.151,67.954616,
2979.240,73.784226,
2976.329,65.99454,
2973.419,80.922978,
2970.508,86.84999,
2967.598,80.477912,
2964.687,84.269022,
2961.777,90.68389,
2958.866,82.331354,
2955.955,91.070789,
2953.045,80.769598,
2950.134,100.18075,
2947.224,101.94306,
2944.313,106.74145,
2941.403,115,
2938.492,105.98915,
2935.581,110.8601,
2932.671,111,
2929.760,119.01924,
2926.850,115.57481,
2923.939,120.68226,
2921.028,122.24715,
2918.118,121.16121,
2915.207,132.17723,
2912.297,134.99154,
2909.386,129.78103,
2906.476,121.19382,
2903.565,125.5326,
2900.654,123.05864,
2897.744,127.82399,
2894.833,114.82473,
2891.923,107.891,
2889.012,125.12717,
2886.102,108.33515,
2883.191,128.97451,
2880.280,113.1531,
2877.370,105.70929,
2874.459,117.64779,
2871.549,127.31593,
2868.638,121.68042,
2865.727,133.97308,
2862.817,119.61365,
2859.906,118.34188,
2856.996,123.98641,
2854.085,122.59873,
2851.175,137.04818,
2848.264,137.43133,
2845.353,143,
2842.443,133.01741,
2839.532,130.41783,
2836.622,118.45508,
2833.711,118.89639,
2830.801,114.30221,
2827.890,143.72902,
2824.979,136.58004,
2822.069,118.11372,
2819.158,131.04043,
2816.248,136.74711,
2813.337,134.34024,
2810.427,134.13223,
2807.516,123.42453,
2804.605,139.30047,
2801.695,123.26316,
2798.784,123.14785,
2795.874,136.72561,
2792.963,120.85702,
2790.052,143.99442,
2787.142,127.57892,
2784.231,126.41925,
2781.321,137.74856,
2778.410,138.97969,
2775.500,141.40483,
2772.589,132.46177,
2769.678,136.46416,
2766.768,137.81165,
2763.857,134.10597,
2760.947,134.96848,
2758.036,141.01281,
2755.126,144.19017,
2752.215,134.89533,
2749.304,148.67983,
2746.394,141.57662,
2743.483,138.9,
2740.573,136.22566,
2737.662,129.36094,
2734.751,138.50985,
2731.841,131.89194,
2728.930,140.95773,
2726.020,137.56655,
2723.109,147.77317,
2720.199,142.44991,
2717.288,142.49269,
2714.377,138.96656,
2711.467,147.98352,
2708.556,146.78737,
2705.646,148.76058,
2702.735,153.81184,
2699.825,137.89093,
2696.914,153.5241,
2694.003,148.25691,
2691.093,149.55355,
2688.182,145.18148,
2685.272,150.28307,
2682.361,148.69978,
2679.450,156.87655,
2676.540,145.89838,
2673.629,139.34082,
2670.719,144.99261,
2667.808,159.51364,
2664.898,144.22082,
2661.987,152.2002,
2659.076,149.52587,
2656.166,151.17749,
2653.255,153.92517,
2650.345,150.5118,
2647.434,157.71392,
2644.524,148.63311,
2641.613,161.48586,
2638.702,167.93688,
2635.792,165.24926,
2632.881,161.18469,
2629.971,162.72489,
2627.060,165.83344,
2624.149,166.37812,
2621.239,164.24259,
2618.328,164.57613,
2615.418,160.97273,
2612.507,158.10677,
2609.597,168.07186,
2606.686,166.58434,
2603.775,165.15873,
2600.865,167.11606,
2597.954,171.47914,
2595.044,185.62534,
2592.133,174.20998,
2589.223,180.61475,
2586.312,173.48744,
2583.401,166.51093,
2580.491,160.27404,
2577.580,179.99835,
2574.670,177.61631,
2571.759,174.55051,
2568.848,182.40888,
2565.938,182.47616,
2563.027,183.70684,
2560.117,179.90655,
2557.206,181,
2554.296,171.26087,
2551.385,185.68599,
2548.474,190.33346,
2545.564,182.34821,
2542.653,182.01006,
2539.743,180.14787,
2536.832,181.59253,
2533.922,191.84231,
2531.011,179.52521,
2528.100,179.93033,
2525.190,186,
2522.279,195.71861,
2519.369,191.20747,
2516.458,185.66077,
2513.548,193.56343,
2510.637,189.4141,
2507.726,209.12639,
2504.816,201.62458,
2501.905,193.3189,
2498.995,199.58197,
2496.084,188.40067,
2493.173,189.05298,
2490.263,195.60678,
2487.352,201.8748,
2484.442,195.58245,
2481.531,195.95204,
2478.621,190.94782,
2475.710,217.80064,
2472.799,195.20624,
2469.889,197.72852,
2466.978,197.21643,
2464.068,199.04232,
2461.157,192.96248,
2458.247,197.85295,
2455.336,201.63797,
2452.425,204.78302,
2449.515,205.24532,
2446.604,206.64747,
2443.694,203.09292,
2440.783,208.28716,
2437.872,193.58344,
2434.962,207.68664,
2432.051,204,
2429.141,206.13527,
2426.230,209.80443,
2423.320,222.37151,
2420.409,219,
2417.498,213.61516,
2414.588,215.72241,
2411.677,222.85657,
2408.767,222.54134,
2405.856,225.02623,
2402.946,222.16086,
2400.035,233.99062,
2397.124,212.02138,
2394.214,225.0804,
2391.303,216.32046,
2388.393,225.94421,
2385.482,208.01342,
2382.571,221.1261,
2379.661,232.53496,
2376.750,226.15763,
2373.840,219.94066,
2370.929,221.95668,
2368.019,234.45814,
2365.108,221.67539,
2362.197,225.13978,
2359.287,234.79833,
2356.376,216.03346,
2353.466,244.80309,
2350.555,236.09972,
2347.645,224.59205,
2344.734,242.33645,
2341.823,240.11608,
2338.913,233.6642,
2336.002,243.77514,
2333.092,240,
2330.181,245.28132,
2327.270,241.33003,
2324.360,248.44578,
2321.449,238.13947,
2318.539,251.5107,
2315.628,247.81535,
2312.718,239.81718,
2309.807,226.22964,
2306.896,245.51957,
2303.986,252.56493,
2301.075,255.70211,
2298.165,253.21145,
2295.254,249.06463,
2292.344,254.84233,
2289.433,249.63318,
2286.522,252.80794,
2283.612,241.22828,
2280.701,244.84751,
2277.791,265.28052,
2274.880,265.36613,
2271.969,241,
2269.059,257.75752,
2266.148,265.16361,
2263.238,255.80309,
2260.327,265.03435,
2257.417,252.23722,
2254.506,261.0912,
2251.595,261.01098,
2248.685,264.52111,
2245.774,278.91192,
2242.864,288.09228,
2239.953,273.40693,
2237.043,271.89642,
2234.132,278,
2231.221,266.63043,
2228.311,275.91751,
2225.400,282.22516,
2222.490,289.62866,
2219.579,288,
2216.669,291.48331,
2213.758,289.1294,
2210.847,281.96978,
2207.937,296.34851,
2205.026,313.66794,
2202.116,283.45753,
2199.205,300.53718,
2196.294,304.19001,
2193.384,294.89499,
2190.473,307.44366,
2187.563,308.11117,
2184.652,332.95796,
2181.742,338.97665,
2178.831,332.71598,
2175.920,348.1603,
2173.010,359.0754,
2170.099,368.79911,
2167.189,387.24397,
2164.278,421.8804,
2161.368,431.85656,
2158.457,461.79234,
2155.546,489.36347,
2152.636,490.60639,
2149.725,520.79192,
2146.815,538.59957,
2143.904,551.99629,
2140.993,552.77766,
2138.083,586.45896,
2135.172,577.59656,
2132.262,574.13644,
2129.351,582.77588,
2126.441,551.31058,
2123.530,550.75307,
2120.619,523.22043,
2117.709,483.83575,
2114.798,462.18063,
2111.888,417.40108,
2108.977,390.82119,
2106.067,394.30864,
2103.156,366.96544,
2100.245,364.98432,
2097.335,339.27749,
2094.424,335.19675,
2091.514,333.63705,
2088.603,326.84791,
2085.692,317.58743,
2082.782,313.24094,
2079.871,314.17853,
2076.961,320.54795,
2074.050,298.87273,
2071.140,314.71275,
2068.229,308.8164,
2065.318,312.91375,
2062.408,314.03026,
2059.497,320.41668,
2056.587,315.36064,
2053.676,301.2006,
2050.766,286.07773,
2047.855,291.1424,
2044.944,298.92627,
2042.034,314.68204,
2039.123,296.85859,
2036.213,279.90443,
2033.302,286.8694,
2030.391,301.79645,
2027.481,279.70755,
2024.570,261.72882,
2021.660,309.86615,
2018.749,283.77206,
2015.839,281.22835,
2012.928,298.32215,
2010.017,290.22042,
2007.107,291.88223,
2004.196,289.6786,
2001.286,294.58304,
1998.375,279.08267,
1995.465,286.37232,
1992.554,294.38232,
1989.643,273.7604,
1986.733,274.09035,
1983.822,262.37297,
1980.912,280.34583,
1978.001,258.21151,
1975.090,283.16489,
1972.180,279.62237,
1969.269,261,
1966.359,260.35134,
1963.448,251.96433,
1960.538,254.68057,
1957.627,242.62538,
1954.716,265.28183,
1951.806,270.11223,
1948.895,234.38259,
1945.985,241.49347,
1943.074,253.67167,
1940.164,242.13466,
1937.253,237.82191,
1934.342,225.48717,
1931.432,214.18612,
1928.521,208.29879,
1925.611,205.39614,
1922.700,236.44889,
1919.790,228.63602,
1916.879,204.60424,
1913.968,208.99262,
1911.058,191.85886,
1908.147,201.87443,
1905.237,194.35298,
1902.326,216.30816,
1899.415,213.87318,
1896.505,217.07816,
1893.594,200.63416,
1890.684,193.6406,
1887.773,188.19814,
1884.863,177.96811,
1881.952,214.63956,
1879.041,234,
1876.131,211.19739,
1873.220,206,
1870.310,196.71751,
1867.399,176.31987,
1864.489,208.76634,
1861.578,203.1868,
1858.667,204.70659,
1855.757,199.01432,
1852.846,191.041,
1849.936,207.44245,
1847.025,195.29196,
1844.114,203.39058,
1841.204,208.21678,
1838.293,210.01164,
1835.383,212.83699,
1832.472,210.32522,
1829.562,191.50156,
1826.651,232.18064,
1823.740,220.51335,
1820.830,221.11823,
1817.919,198.93995,
1815.009,208.41221,
1812.098,225.3622,
1809.188,226.06202,
1806.277,255.33604,
1803.366,227.19963,
1800.456,237.73599,
1797.545,214.70929,
1794.635,207.93409,
1791.724,241.2331,
1788.813,208.20154,
1785.903,220.50382,
1782.992,240.97614,
1780.082,226.38485,
1777.171,215.99893,
1774.261,225.50527,
1771.350,232.37849,
1768.439,218.91656,
1765.529,239.54631,
1762.618,230.50622,
1759.708,226.75012,
1756.797,244.99242,
1753.887,243.10204,
1750.976,245.84489,
1748.065,223.7358,
1745.155,237.93526,
1742.244,267.91846,
1739.334,242.50354,
1736.423,229.41308,
1733.512,239.45938,
1730.602,242.25198,
1727.691,251.21193,
1724.781,276.02414,
1721.870,277.1714,
1718.960,280.11116,
1716.049,225.62767,
1713.138,262.02477,
1710.228,229.96634,
1707.317,229.30743,
1704.407,300.07498,
1701.496,247.83785,
1698.586,305.75493,
1695.675,242.69327,
1692.764,305.21725,
1689.854,275.51573,
1686.943,252.74196,
1684.033,275.40393,
1681.122,276,
1678.211,251.23793,
1675.301,275.92291,
1672.390,297.13458,
1669.480,341.51066,
1666.569,281.64749,
1663.659,332.31032,
1660.748,350.92287,
1657.837,346.93439,
1654.927,344.60916,
1652.016,369.46542,
1649.106,348.02448,
1646.195,349.14386,
1643.285,355.56966,
1640.374,380.08362,
1637.463,383.96397,
1634.553,382.33989,
1631.642,405.48861,
1628.732,450.30812,
1625.821,502.02159,
1622.911,534.81404,
1620.000,589.30707,
1617.089,587.0597,
1614.179,707.50307,
1611.268,672.48712,
1608.358,771.08357,
1605.447,808.0574,
1602.536,768.99697,
1599.626,808.31691,
1596.715,797.47838,
1593.805,756.6494,
1590.894,817.16959,
1587.984,815.6069,
1585.073,768.05589,
1582.162,730.77899,
1579.252,752.82224,
1576.341,761.40319,
1573.431,751.81874,
1570.520,751.29313,
1567.610,742.31358,
1564.699,694.77318,
1561.788,685.7464,
1558.878,650.0825,
1555.967,624.73269,
1553.057,626.74132,
1550.146,631.22909,
1547.235,568.24474,
1544.325,544.92468,
1541.414,563.16023,
1538.504,542.90649,
1535.593,543.42423,
1532.683,557.7309,
1529.772,519.96919,
1526.861,483,
1523.951,502.75419,
1521.040,516.47346,
1518.130,476.5073,
1515.219,470.44004,
1512.309,460.3288,
1509.398,430.99245,
1506.487,422.89748,
1503.577,434.97133,
1500.666,424.41108,
1497.756,388.76281,
1494.845,396.67928,
1491.934,364.9937,
1489.024,363.06871,
1486.113,388.03482,
1483.203,382.00649,
1480.292,352.99912,
1477.382,350.42474,
1474.471,383.9973,
1471.560,361.34503,
1468.650,337.38435,
1465.739,307.02088,
1462.829,319.25997,
1459.918,328.71264,
1457.008,332.15398,
1454.097,302.25441,
1451.186,276.79303,
1448.276,307.84485,
1445.365,299.42654,
1442.455,267.89369,
1439.544,260.66581,
1436.633,300.30089,
1433.723,294.50754,
1430.812,275.15294,
1427.902,251.75195,
1424.991,241.32657,
1422.081,278.61656,
1419.170,205.09863,
1416.259,218.11195,
1413.349,199.07705,
1410.438,190.30022,
1407.528,187.42503,
1404.617,173.67031,
1401.707,183.01798,
1398.796,190.50352,
1395.885,191.74812,
1392.975,212.31272,
1390.064,209.3447,
1387.154,186.94447,
1384.243,196.4452,
1381.332,125.2999,
1378.422,194.51186,
1375.511,243.22447,
1372.601,254.13727,
1369.690,188.99387,
1366.780,257.99555,
1363.869,306.60613,
1360.958,336.80649,
1358.048,357.0863,
1355.137,351.90927,
1352.227,343.74511,
1349.316,370.32974,
1346.406,411.47037,
1343.495,425.48433,
1340.584,447.74938,
1337.674,492.82404,
1334.763,531.30631,
1331.853,486.79922,
1328.942,518.79964,
1326.032,568.67476,
1323.121,601.22893,
1320.210,622.31841,
1317.300,630.7707,
1314.389,646.38917,
1311.479,677.4756,
1308.568,700.35919,
1305.657,700.43808,
1302.747,716.18617,
1299.836,785.35136,
1296.926,799.35836,
1294.015,893.12936,
1291.105,881.15025,
1288.194,902.96229,
1285.283,929.76409,
1282.373,994.95292,
1279.462,1046.1173,
1276.552,1066.5748,
1273.641,1093.1191,
1270.731,1120.1194,
1267.820,1099.3523,
1264.909,1072.0657,
1261.999,1059.0319,
1259.088,1087.3077,
1256.178,1063.3063,
1253.267,1049.0265,
1250.356,1020.2644,
1247.446,982.77073,
1244.535,952.61164,
1241.625,910.12601,
1238.714,861.32957,
1235.804,843.13598,
1232.893,809.63329,
1229.982,771.50938,
1227.072,757.02438,
1224.161,773.65058,
1221.251,753.92022,
1218.340,727.21345,
1215.430,682.86681,
1212.519,670.39382,
1209.608,688.64562,
1206.698,691.0639,
1203.787,712.15078,
1200.877,775.21395,
1197.966,730.25599,
1195.055,742.50523,
1192.145,776.55642,
1189.234,827.87392,
1186.324,856.00058,
1183.413,882.19799,
1180.503,884.7176,
1177.592,843.96985,
1174.681,866.23973,
1171.771,860.79395,
1168.860,851.86305,
1165.950,845.35597,
1163.039,854.47604,
1160.129,824.7884,
1157.218,796.19264,
1154.307,783.20847,
1151.397,775.47426,
1148.486,786.80401,
1145.576,763.15419,
1142.665,766.70584,
1139.754,780.01806,
1136.844,770.39455,
1133.933,763.82699,
1131.023,750.72551,
1128.112,749.49819,
1125.202,766.68601,
1122.291,749.62399,
1119.380,747.07795,
1116.470,755.02071,
1113.559,759.093,
1110.649,771.78722,
1107.738,776.39255,
1104.828,775,
1101.917,775,
1099.006,773.94848,
1096.096,768.94625,
1093.185,768.06824,
1090.275,768.80927,
1087.364,769.68612,
1084.453,773.37479,
1081.543,793.52884,
1078.632,811.92587,
1075.722,800.55521,
1072.811,791.11694,
1069.901,806.83564,
1066.990,803.95834,
1064.079,811.16617,
1061.169,806.16318,
1058.258,813.39851,
1055.348,824.18125,
1052.437,806.27977,
1049.527,823.2014,
1046.616,828.41437,
1043.705,855.97678,
1040.795,885.70916,
1037.884,888.39098,
1034.974,879.74485,
1032.063,885.53061,
1029.153,898.75365,
1026.242,888.37418,
1023.331,900.4992,
1020.421,897.42319,
1017.510,894.43972,
1014.600,893.15414,
1011.689,904.54309,
1008.778,935.12033,
1005.868,930.33205,
1002.957,967.32729,
1000.047,992.65601,
997.136,1053.4466,
994.226,1093.6769,
991.315,1093.9554,
988.404,1083.5953,
985.494,1065.3862,
982.583,1037.9764,
979.673,1044.2431,
976.762,1036.258,
973.852,1039.9343,
970.941,1060.9276,
968.030,1070.0404,
965.120,1041.9678,
962.209,1034.2949,
959.299,1058.497,
956.388,1047.7214,
953.477,1049.9073,
950.567,1071.7715,
947.656,1055.106,
944.746,1040.6636,
941.835,1056.1963,
938.925,1039.6004,
936.014,1052.268,
933.103,1068.2912,
930.193,1051.4056,
927.282,1031.396,
924.372,1001.7998,
921.461,1006.8368,
918.551,994.3148,
915.640,979.17551,
912.729,980.70891,
909.819,999.33361,
906.908,1001.8609,
903.998,974.95762,
901.087,979.45711,
898.176,970.72976,
895.266,962.56977,
892.355,986.81121,
889.445,1017.8641,
886.534,1005.4769,
883.624,1028.5676,
880.713,1055.8003,
877.802,1059.9256,
874.892,1045.9639,
871.981,1067.6449,
869.071,1052.6075,
866.160,1055.5197,
863.250,1064.8146,
860.339,1056.3231,
857.428,1031.1479,
854.518,1035.4223,
851.607,1015.4526,
848.697,1010.6244,
845.786,1000.6586,
842.875,995.84503,
839.965,1006.2331,
837.054,1021.1302,
834.144,1032.7328,
831.233,1037.6665,
828.323,1012.7877,
825.412,982.45841,
822.501,974.2553,
819.591,970.1233,
816.680,961.18588,
813.770,948.97596,
810.859,930.8165,
807.949,920.40978,
805.038,931.00442,
802.127,922.77315,
799.217,913.05531,
796.306,927.59473,
793.396,924.64868,
790.485,904.89625,
787.574,926.53294,
784.664,914.23125,
781.753,914.68394,
778.843,928.74214,
775.932,920.70406,
773.022,885.93335,
770.111,969.32633,
767.200,961.29638,
764.290,951.7991,
761.379,925.54955,
758.469,902.09114,
755.558,943.63531,
752.648,931.41625,
749.737,911.37469,
746.826,863.76987,
743.916,830.88977,
741.005,847.44518,
738.095,745.14869,
735.184,642.90248,
732.274,564.40231,
729.363,590.89248,
726.452,738.29544,
723.542,845.13536,
720.631,871.64255,
717.721,896.33106,
714.810,901.62506,
711.899,895.52478,
708.989,927.80178,
706.078,915.98046,
703.168,895.99781,
700.257,887.47543,
697.347,898.39053,
694.436,924.49809,
691.525,906.01058,
688.615,882.50375,
685.704,872.29508,
682.794,871.42556,
679.883,863.2523,
676.973,868.8619,
674.062,869.36192,
671.151,872.50664,
668.241,877.95299,
665.330,881.26471,
662.420,886.85583,
659.509,867.04728,
656.598,859.3275,
653.688,867.53047,
650.777,875.91899,
647.867,873.53001,
644.956,871.7617,
642.046,867.26862,
639.135,858.43665,
636.224,845.11936,
633.314,868.93752,
630.403,892.73632,
627.493,906.5363,
624.582,910.41257,
621.672,916.74852,
618.761,914.72018,
615.850,918.95889,
612.940,908.99708,
610.029,891.60115,
607.119,949.24418,
604.208,948.60988,
601.297,932.54002,
598.387,913.55399,
595.476,901.33702,
592.566,915.50425,
589.655,890.14073,
586.745,891.05684,
583.834,908.70624,
580.923,897.06161,
578.013,907.26315,
575.102,898.52823,
572.192,901.4331,
569.281,915.95421,
566.371,882.30138,
563.460,869.82891,
560.549,892.80032,
557.639,917.24011,
554.728,907.83761,
551.818,921.10299,
548.907,915.46822,
545.996,931.38343,
543.086,957.61845,
540.175,923.35803,
537.265,913.03293,
534.354,958.1623,
531.444,982.59273,
528.533,922.88292,
525.622,935.29807,
522.712,948.31481,
519.801,988.22357,
516.891,1036.9918,
513.980,1012.2144,
511.070,998.73044,
508.159,1032.2053,
505.248,1079.508,
502.338,1096.0678,
499.427,1098.3833,
496.517,1090.5152,
493.606,1096.7867,
490.695,1124.0327,
487.785,1138.6587,
484.874,1151.9858,
481.964,1145.9569,
479.053,1131.9417,
476.143,1144.2291,
473.232,1147.8776,
470.321,1128.5638,
467.411,1102.6946,
464.500,1090.5818,
461.590,1113.554,
458.679,1108.9941,
455.769,1097.7946,
452.858,1097.3744,
449.947,1139.3906,
447.037,1140.1121,
444.126,1145.3515,
441.216,1164.0583,
438.305,1170.1538,
435.395,1191.3247,
432.484,1178.2451,
429.573,1149.0825,
426.663,1166.5658,
423.752,1152.6568,
420.842,1153.307,
417.931,1172.558,
415.020,1209.7175,
412.110,1208.8052,
409.199,1206.044,
406.289,1212.6093,
403.378,1238.8847,
400.468,1204.865,
397.557,1211.9952,
394.646,1214.994,
391.736,1176.8068,
388.825,1170.773,
385.915,1165.8068,
383.004,1163.5711,
380.094,1166.9195,
377.183,1204.5433,
374.272,1253.5374,
371.362,1288.9433,
368.451,1296,
365.541,1296,
362.630,1270.8729,
359.719,1253.5516,
356.809,1263.6311,
353.898,1290.5879,
350.988,1311.0197,
348.077,1316.4822,
345.167,1302.4324,
342.256,1291.2264,
339.345,1300.2229,
336.435,1304.3378,
333.524,1286.8121,
330.614,1280.8509,
327.703,1301.0764,
324.793,1318.1331,
321.882,1307.0559,
318.971,1330.1026,
316.061,1328.722,
313.150,1312.0714,
310.240,1289.808,
307.329,1361.1783,
304.418,1361.7309,
301.508,1320.1231,
298.597,1290.5064,
295.687,1294.7724,
292.776,1286.7499,
289.866,1280.1857,
286.955,1323.7705,
284.044,1388.8224,
281.134,1454.1042,
278.223,1513.898,
275.313,1561.0567,
272.402,1558.801,
269.492,1568.6943,
266.581,1610.051,
263.670,1624.7546,
260.760,1662.4325,
257.849,1682.9915,
254.939,1654.3701,
252.028,1640.9708,
249.117,1647.4207,
246.207,1659.1059,
243.296,1651.7855,
240.386,1628.1453,
237.475,1608.7004,
234.565,1603.5569,
231.654,1645.1888,
228.743,1610.272,
225.833,1556.3524,
222.922,1508.4269,
220.012,1539.0262,
217.101,1534.2785,
214.191,1506.7606,
211.280,1466.0227,
208.369,1480.4931,
205.459,1498.582,
202.548,1506.3565,
199.638,1467.8971,
196.727,1521.6551,
193.816,1551.0458,
190.906,1513.3651,
187.995,1495.2645,
185.085,1530.1385,
182.174,1567.3811,
179.264,1535.5794,
176.353,1555.068,
173.442,1571.263,
170.532,1571.4555,
167.621,1523.8711,
164.711,1492.0796,
161.800,1458.288,
158.890,1409.3465,
155.979,1326.8887,
153.068,1225.4229,
150.158,1112.4108,
147.247,1009.0256,
144.337,856.62768,
141.426,683.91136,
138.516,501.10409,
135.605,340.4209,
132.694,224.98981,
129.784,146.82601,
126.873,94.621531,
123.963,59.529984,
121.052,39.300265,
118.141,35.016853,
115.231,18.656882,
112.320,13.270908,
109.410,14.181868,
106.499,9.9089371,
103.589,13.482036,
100.678,12.925674,
97.767,2.2616108,
94.857,8.2369014,
91.946,11,
89.036,10.209715,
86.125,5.2452777,
83.215,7.7164425,
80.304,9.3239712,
77.393,4.3667816,
74.483,4,
71.572,3.6376479,
68.662,2.9307325,
65.751,2.2242814,
62.840,4.8902119,
59.930,8.5618586,
57.019,10.677105,
54.109,6.2227132,
51.198,4.2064371,
48.288,6.9830127,
45.377,4.8728785,
42.466,7.7099741,
39.556,12.884881,
36.645,12.182691,
33.735,7.8460123,
30.824,4,
27.914,4,
25.003,5.8679124,
22.092,7.6458091,
19.182,9.3890087,
16.271,21.280341,
13.361,103.12681,
10.450,233.99947,
7.539,379.24907,
4.629,347.29613,
1.718,174.45002,
-1.192,-176.21368,
-4.103,-226.46903,
-7.013,-160.07485,
-9.924,4.0595589E-17,
