,PLDF70~1,
Raman shift [1/cm],Intensity,
3014.167,0.875,
3011.256,-1.7750322,
3008.346,193.16705,
3005.435,228.64532,
3002.525,236.25252,
2999.614,245.15295,
2996.704,248.65335,
2993.793,267.90265,
2990.882,250.26429,
2987.972,275.84473,
2985.061,266.3282,
2982.151,278.60779,
2979.240,289.67347,
2976.329,312.9023,
2973.419,314.10607,
2970.508,315.44159,
2967.598,335.68022,
2964.687,317.60598,
2961.777,331.12294,
2958.866,341.53325,
2955.955,350.59845,
2953.045,364.07635,
2950.134,373.875,
2947.224,380.96041,
2944.313,385.22329,
2941.403,393.82755,
2938.492,405.00236,
2935.581,397.875,
2932.671,406.67327,
2929.760,401.61731,
2926.850,408.66598,
2923.939,419.83293,
2921.028,409.92189,
2918.118,424.01732,
2915.207,439.34331,
2912.297,449.81999,
2909.386,442.0356,
2906.476,436.35532,
2903.565,445.80981,
2900.654,450.14599,
2897.744,433.63613,
2894.833,421.47282,
2891.923,446.28211,
2889.012,430.25072,
2886.102,430.29121,
2883.191,438.86839,
2880.280,403.67404,
2877.370,360.40416,
2874.459,374.0449,
2871.549,397.36195,
2868.638,442.06054,
2865.727,459.65965,
2862.817,442.41778,
2859.906,460.69836,
2856.996,464.92029,
2854.085,481.28261,
2851.175,458.95024,
2848.264,471.169,
2845.353,469.55149,
2842.443,453.27779,
2839.532,450.09889,
2836.622,454.50977,
2833.711,443.19368,
2830.801,455.1625,
2827.890,470.24912,
2824.979,453.67708,
2822.069,447.19342,
2819.158,477.15533,
2816.248,483.86342,
2813.337,481.21524,
2810.427,483.875,
2807.516,493.97562,
2804.605,476.21874,
2801.695,470.96712,
2798.784,489.69223,
2795.874,483.31037,
2792.963,475.58926,
2790.052,493.87092,
2787.142,485.96704,
2784.231,478.875,
2781.321,500.12068,
2778.410,483.48034,
2775.500,482.76776,
2772.589,505.18234,
2769.678,506.37326,
2766.768,500.88857,
2763.857,496.72086,
2760.947,520.32772,
2758.036,498.47364,
2755.126,515.11432,
2752.215,514.53412,
2749.304,507.27969,
2746.394,501.89713,
2743.483,517.425,
2740.573,508.11611,
2737.662,526.875,
2734.751,513.47714,
2731.841,528.74131,
2728.930,538.73101,
2726.020,533.43634,
2723.109,526.34942,
2720.199,536.85633,
2717.288,538.38231,
2714.377,547.13336,
2711.467,532.64533,
2708.556,548.73647,
2705.646,554.33978,
2702.735,556.21005,
2699.825,556.89681,
2696.914,573.68502,
2694.003,549.16929,
2691.093,585.17826,
2688.182,568.47426,
2685.272,569.28183,
2682.361,550.4809,
2679.450,571.10949,
2676.540,589.30593,
2673.629,564.86153,
2670.719,579.86761,
2667.808,592.48592,
2664.898,583.38182,
2661.987,573.37517,
2659.076,603.44179,
2656.166,595.45511,
2653.255,598.50085,
2650.345,586.92218,
2647.434,594.0762,
2644.524,624.20347,
2641.613,605.67513,
2638.702,598.03281,
2635.792,604.50112,
2632.881,608.57717,
2629.971,617.00251,
2627.060,621.70906,
2624.149,612.20001,
2621.239,607.875,
2618.328,608.34126,
2615.418,620.86591,
2612.507,627.97776,
2609.597,639.86502,
2606.686,653.9533,
2603.775,638.03373,
2600.865,644.57811,
2597.954,659.30003,
2595.044,649.52691,
2592.133,655.93236,
2589.223,654.30868,
2586.312,655.95034,
2583.401,663.24359,
2580.491,664.03843,
2577.580,662.8915,
2574.670,667.34026,
2571.759,659.48116,
2568.848,676.39992,
2565.938,681.58931,
2563.027,679.60681,
2560.117,677.06191,
2557.206,683.01153,
2554.296,690.36013,
2551.385,686.99899,
2548.474,678.13411,
2545.564,693.27354,
2542.653,697.17031,
2539.743,690.30723,
2536.832,705.69183,
2533.922,702.08,
2531.011,720.37453,
2528.100,723.14674,
2525.190,708.13156,
2522.279,716.06259,
2519.369,716.55445,
2516.458,717.77018,
2513.548,723.25684,
2510.637,727.99797,
2507.726,728.93819,
2504.816,732.50071,
2501.905,738.49817,
2498.995,718.47219,
2496.084,731.55446,
2493.173,716.66374,
2490.263,746.53722,
2487.352,752.83327,
2484.442,749.88143,
2481.531,758.56635,
2478.621,751.68062,
2475.710,763.92101,
2472.799,769.1351,
2469.889,763.48164,
2466.978,756.98843,
2464.068,750.12895,
2461.157,767.76243,
2458.247,774.75729,
2455.336,777.76738,
2452.425,780.20047,
2449.515,785.13903,
2446.604,774.58702,
2443.694,781.15465,
2440.783,789.63626,
2437.872,809.38551,
2434.962,815.78284,
2432.051,810.5049,
2429.141,815.19867,
2426.230,803.39653,
2423.320,834.24651,
2420.409,836.92617,
2417.498,827.72891,
2414.588,811.60505,
2411.677,818.19772,
2408.767,824.09252,
2405.856,825.2559,
2402.946,833.82138,
2400.035,828.37969,
2397.124,872.875,
2394.214,863.46741,
2391.303,849.76999,
2388.393,871.2983,
2385.482,843.41716,
2382.571,859.55875,
2379.661,865.15385,
2376.750,879.50804,
2373.840,878.01249,
2370.929,899.64758,
2368.019,891.36947,
2365.108,890.36191,
2362.197,901.88869,
2359.287,895.88336,
2356.376,906.85387,
2353.466,896.02564,
2350.555,902.55477,
2347.645,905.3081,
2344.734,913.875,
2341.823,906.00767,
2338.913,915.09146,
2336.002,936.08799,
2333.092,916.67971,
2330.181,939.03605,
2327.270,945.98501,
2324.360,947.99295,
2321.449,936.19813,
2318.539,936.3643,
2315.628,962.3778,
2312.718,959.74283,
2309.807,967.05524,
2306.896,960.15826,
2303.986,978.09583,
2301.075,975.00269,
2298.165,981.64447,
2295.254,977.04734,
2292.344,974.56386,
2289.433,967.28819,
2286.522,1004.3034,
2283.612,1001.9336,
2280.701,1024.1664,
2277.791,1003.8331,
2274.880,987.86283,
2271.969,1017.7803,
2269.059,1031.3083,
2266.148,1059.0069,
2263.238,1078.2688,
2260.327,1030.875,
2257.417,1035.3822,
2254.506,1060.3936,
2251.595,1076.4459,
2248.685,1059.9347,
2245.774,1059.2815,
2242.864,1068.0047,
2239.953,1070.7853,
2237.043,1075.4336,
2234.132,1078.4256,
2231.221,1086.6916,
2228.311,1118.5799,
2225.400,1100.269,
2222.490,1114.6177,
2219.579,1121.294,
2216.669,1134.344,
2213.758,1138.2658,
2210.847,1182.8195,
2207.937,1198.6714,
2205.026,1249.8747,
2202.116,1259.7105,
2199.205,1289.6232,
2196.294,1319.255,
2193.384,1348.2686,
2190.473,1384.1825,
2187.563,1407.1553,
2184.652,1463.9713,
2181.742,1479.2639,
2178.831,1519.9606,
2175.920,1538.436,
2173.010,1587.1522,
2170.099,1636.004,
2167.189,1678.9683,
2164.278,1695.1031,
2161.368,1726.4449,
2158.457,1789.647,
2155.546,1822.224,
2152.636,1870.3163,
2149.725,1920.6736,
2146.815,1952.9407,
2143.904,2006.6817,
2140.993,2032.4199,
2138.083,2055.1212,
2135.172,2047.8078,
2132.262,2042.1056,
2129.351,1996.8713,
2126.441,1971.6225,
2123.530,1888.5944,
2120.619,1850.1141,
2117.709,1750.6906,
2114.798,1677.7477,
2111.888,1587.564,
2108.977,1528.5372,
2106.067,1481.7815,
2103.156,1415.5656,
2100.245,1371.8581,
2097.335,1341.7441,
2094.424,1315.7635,
2091.514,1311.5955,
2088.603,1314.7552,
2085.692,1278.5034,
2082.782,1270.1842,
2079.871,1301.9835,
2076.961,1308.8104,
2074.050,1265.8265,
2071.140,1267.1277,
2068.229,1279.4193,
2065.318,1261.3547,
2062.408,1251.0497,
2059.497,1275.2798,
2056.587,1264.8171,
2053.676,1262.3249,
2050.766,1259.1829,
2047.855,1242.7041,
2044.944,1236.343,
2042.034,1243.3029,
2039.123,1264.2925,
2036.213,1244.7395,
2033.302,1256.3097,
2030.391,1269.2477,
2027.481,1264.9483,
2024.570,1264.4035,
2021.660,1253.5846,
2018.749,1259.799,
2015.839,1259.4892,
2012.928,1271.4841,
2010.017,1277.1996,
2007.107,1255.6843,
2004.196,1257.637,
2001.286,1259.8715,
1998.375,1248.5295,
1995.465,1221.1973,
1992.554,1247.9335,
1989.643,1203.6377,
1986.733,1259.9654,
1983.822,1244.0161,
1980.912,1240.0924,
1978.001,1226.6969,
1975.090,1235.2658,
1972.180,1242.7367,
1969.269,1248.0072,
1966.359,1260.5508,
1963.448,1269.0665,
1960.538,1231.734,
1957.627,1254.0825,
1954.716,1233.5932,
1951.806,1238.6266,
1948.895,1234.2576,
1945.985,1238.9175,
1943.074,1245.7532,
1940.164,1241.8077,
1937.253,1230.4056,
1934.342,1224.4306,
1931.432,1230.2977,
1928.521,1205.8474,
1925.611,1195.7581,
1922.700,1192.9178,
1919.790,1227.1867,
1916.879,1228.2237,
1913.968,1207.8996,
1911.058,1192.1783,
1908.147,1229.1771,
1905.237,1172.625,
1902.326,1206.2039,
1899.415,1215.6738,
1896.505,1206.3148,
1893.594,1216.9665,
1890.684,1222.5874,
1887.773,1210.3927,
1884.863,1238.9707,
1881.952,1244.0427,
1879.041,1210.1543,
1876.131,1199.4319,
1873.220,1213.6936,
1870.310,1211.2338,
1867.399,1199.0669,
1864.489,1204.4856,
1861.578,1199.3582,
1858.667,1238.9139,
1855.757,1216.6721,
1852.846,1226.4083,
1849.936,1247.3865,
1847.025,1261.8117,
1844.114,1257.3314,
1841.204,1253.8016,
1838.293,1277.4024,
1835.383,1270.1655,
1832.472,1286.7707,
1829.562,1274.9885,
1826.651,1293.5937,
1823.740,1276.3002,
1820.830,1275.6782,
1817.919,1286.2044,
1815.009,1305.8559,
1812.098,1290.9223,
1809.188,1336.7121,
1806.277,1313.4726,
1803.366,1312.5256,
1800.456,1293.6886,
1797.545,1324.0453,
1794.635,1316.262,
1791.724,1321.1856,
1788.813,1339.2832,
1785.903,1351.5088,
1782.992,1311.6306,
1780.082,1309.8245,
1777.171,1278.8734,
1774.261,1291.8554,
1771.350,1330.0198,
1768.439,1362.5593,
1765.529,1399.512,
1762.618,1414.0206,
1759.708,1413.6358,
1756.797,1432.9962,
1753.887,1446.4639,
1750.976,1419.1852,
1748.065,1415.4771,
1745.155,1406.1848,
1742.244,1417.7391,
1739.334,1427.1903,
1736.423,1437.4731,
1733.512,1438.2368,
1730.602,1471.2838,
1727.691,1481.3397,
1724.781,1465.93,
1721.870,1492.4561,
1718.960,1483.4304,
1716.049,1500.8494,
1713.138,1543.3498,
1710.228,1536.8205,
1707.317,1544.6053,
1704.407,1583.6077,
1701.496,1523.1551,
1698.586,1576.01,
1695.675,1577.1322,
1692.764,1562.6742,
1689.854,1546.5679,
1686.943,1606.7503,
1684.033,1636.1796,
1681.122,1675.2123,
1678.211,1709.5514,
1675.301,1721.838,
1672.390,1730.0186,
1669.480,1778.5649,
1666.569,1863.9131,
1663.659,1867.7733,
1660.748,1922.2992,
1657.837,1945.1872,
1654.927,2006.4053,
1652.016,2110.9759,
1649.106,2076.0011,
1646.195,2121.0428,
1643.285,2130.974,
1640.374,2266.0701,
1637.463,2369.8478,
1634.553,2425.2838,
1631.642,2586.5916,
1628.732,2652.6749,
1625.821,2786.9901,
1622.911,2961.8832,
1620.000,3167.2671,
1617.089,3262.9844,
1614.179,3523.3735,
1611.268,3684.9265,
1608.358,3813.8348,
1605.447,3942.4474,
1602.536,4012.3114,
1599.626,4014.1152,
1596.715,4009.337,
1593.805,4071.4782,
1590.894,4001.376,
1587.984,3994.3394,
1585.073,3983.8144,
1582.162,3941.8005,
1579.252,3830.7691,
1576.341,3786.2463,
1573.431,3719.7874,
1570.520,3691.4093,
1567.610,3667.0119,
1564.699,3583.7469,
1561.788,3499.9459,
1558.878,3422.9367,
1555.967,3353.6105,
1553.057,3309.8235,
1550.146,3232.7333,
1547.235,3121.6262,
1544.325,3072.875,
1541.414,3030.2105,
1538.504,2962.533,
1535.593,2978.158,
1532.683,2990.961,
1529.772,2954.1874,
1526.861,2955.0471,
1523.951,2939.3024,
1521.040,2928.6433,
1518.130,2931.2012,
1515.219,2909.3959,
1512.309,2887.3075,
1509.398,2919.757,
1506.487,2945.5527,
1503.577,2902.6958,
1500.666,2921.7411,
1497.756,2895.1968,
1494.845,2875.8755,
1491.934,2899.8057,
1489.024,2878.6309,
1486.113,2854.6946,
1483.203,2842.217,
1480.292,2789.9643,
1477.382,2785.7245,
1474.471,2716.2761,
1471.560,2707.937,
1468.650,2710.1419,
1465.739,2715.9204,
1462.829,2764.0395,
1459.918,2818.1846,
1457.008,2847.0136,
1454.097,2817.0537,
1451.186,2766.053,
1448.276,2706.9572,
1445.365,2597.3711,
1442.455,2540.8555,
1439.544,2497.3572,
1436.633,2418.5145,
1433.723,2365.4981,
1430.812,2368.9884,
1427.902,2357.0181,
1424.991,2321.0031,
1422.081,2246.4768,
1419.170,2227.7782,
1416.259,2203.1932,
1413.349,2209.2036,
1410.438,2224.0715,
1407.528,2217.2876,
1404.617,2200.3067,
1401.707,2226.2613,
1398.796,2261.0673,
1395.885,2280.9302,
1392.975,2285.291,
1390.064,2210.6685,
1387.154,2084.2197,
1384.243,2019.9416,
1381.332,1971.2655,
1378.422,2083.8021,
1375.511,2179.3538,
1372.601,2318.189,
1369.690,2435.3134,
1366.780,2500.3971,
1363.869,2541.2076,
1360.958,2563.7589,
1358.048,2632.1727,
1355.137,2720.0838,
1352.227,2770.4829,
1349.316,2808.3154,
1346.406,2866.1599,
1343.495,2907.6015,
1340.584,2935.553,
1337.674,2970.875,
1334.763,2972.4276,
1331.853,3013.2257,
1328.942,3102.0425,
1326.032,3139.7905,
1323.121,3144.3931,
1320.210,3171.8437,
1317.300,3266.1466,
1314.389,3392.7931,
1311.479,3505.7484,
1308.568,3590.3776,
1305.657,3660.0373,
1302.747,3732.3889,
1299.836,3785.6687,
1296.926,3873.5924,
1294.015,3953.5736,
1291.105,4047.5708,
1288.194,4099.8122,
1285.283,4173.5993,
1282.373,4260.8904,
1279.462,4307.8552,
1276.552,4359.1508,
1273.641,4408.6342,
1270.731,4405.4645,
1267.820,4384.9035,
1264.909,4353.2822,
1261.999,4395.4477,
1259.088,4274.1356,
1256.178,4263.4492,
1253.267,4141.6581,
1250.356,4073.7213,
1247.446,4009.0032,
1244.535,3947.6117,
1241.625,3860.7233,
1238.714,3732.9548,
1235.804,3632.6761,
1232.893,3574.5114,
1229.982,3518.6741,
1227.072,3394.6463,
1224.161,3329.5612,
1221.251,3263.7813,
1218.340,3163.8985,
1215.430,3125.3804,
1212.519,3099.5401,
1209.608,3067.1275,
1206.698,3071.5558,
1203.787,3072.7795,
1200.877,3135.7197,
1197.966,3197.7617,
1195.055,3306.6778,
1192.145,3354.9287,
1189.234,3459.5987,
1186.324,3587.7915,
1183.413,3660.7075,
1180.503,3664.1181,
1177.592,3630.5211,
1174.681,3565.3134,
1171.771,3532.4532,
1168.860,3470.8301,
1165.950,3409.241,
1163.039,3316.9555,
1160.129,3324.1649,
1157.218,3399.5064,
1154.307,3467.3132,
1151.397,3510.1696,
1148.486,3557.316,
1145.576,3609.256,
1142.665,3571.9637,
1139.754,3539.5844,
1136.844,3543.3795,
1133.933,3506.2331,
1131.023,3434.3864,
1128.112,3365.8066,
1125.202,3339.9523,
1122.291,3370.9814,
1119.380,3323.5766,
1116.470,3395.0614,
1113.559,3380.6775,
1110.649,3360.7781,
1107.738,3309.9379,
1104.828,3261.4725,
1101.917,3237.703,
1099.006,3212.8957,
1096.096,3196.8324,
1093.185,3163.4683,
1090.275,3176.2511,
1087.364,3203.2032,
1084.453,3215.5624,
1081.543,3229.5834,
1078.632,3251.5161,
1075.722,3262.7466,
1072.811,3263.3976,
1069.901,3341.1179,
1066.990,3309.6918,
1064.079,3362.8018,
1061.169,3357.08,
1058.258,3297.5371,
1055.348,3286.9165,
1052.437,3350.9199,
1049.527,3286.1841,
1046.616,3320.0684,
1043.705,3256.0477,
1040.795,3251.8376,
1037.884,3260.3693,
1034.974,3228.2191,
1032.063,3192.9974,
1029.153,3252.0175,
1026.242,3261.532,
1023.331,3274.3742,
1020.421,3335.4315,
1017.510,3377.6833,
1014.600,3434.0139,
1011.689,3498.8615,
1008.778,3527.8031,
1005.868,3609.2843,
1002.957,3654.8831,
1000.047,3748.507,
997.136,3809.654,
994.226,3810.6907,
991.315,3741.5112,
988.404,3633.0111,
985.494,3606.7242,
982.583,3555.3308,
979.673,3496.6597,
976.762,3513.1011,
973.852,3521.5206,
970.941,3492.28,
968.030,3473.5282,
965.120,3483.0504,
962.209,3524.825,
959.299,3536.8327,
956.388,3563.5134,
953.477,3591.5066,
950.567,3602.8293,
947.656,3603.7744,
944.746,3633.5088,
941.835,3623.5376,
938.925,3640.6165,
936.014,3597.7633,
933.103,3556.1147,
930.193,3562.2903,
927.282,3510.7293,
924.372,3489.5891,
921.461,3418.3898,
918.551,3357.8571,
915.640,3327.6256,
912.729,3299.3331,
909.819,3243.324,
906.908,3284.6029,
903.998,3300.3962,
901.087,3289.8719,
898.176,3330.5489,
895.266,3392.1274,
892.355,3419.9268,
889.445,3473.6399,
886.534,3525.6371,
883.624,3500.2149,
880.713,3503.7996,
877.802,3521.0959,
874.892,3509.2565,
871.981,3479.9934,
869.071,3485.0058,
866.160,3467.936,
863.250,3483.4641,
860.339,3518.478,
857.428,3540.388,
854.518,3529.4176,
851.607,3513.6083,
848.697,3492.3039,
845.786,3463.6353,
842.875,3457.1092,
839.965,3500.1717,
837.054,3593.0704,
834.144,3610.4742,
831.233,3592.5432,
828.323,3606.109,
825.412,3622.504,
822.501,3597.577,
819.591,3557.0834,
816.680,3506.9967,
813.770,3514.2966,
810.859,3528.1312,
807.949,3512.6847,
805.038,3469.3551,
802.127,3506.3958,
799.217,3449.4983,
796.306,3435.1183,
793.396,3421.1878,
790.485,3388.7163,
787.574,3377.5289,
784.664,3394.7512,
781.753,3405.9268,
778.843,3424.0874,
775.932,3429.6159,
773.022,3416.99,
770.111,3469.3151,
767.200,3469.8298,
764.290,3483.8998,
761.379,3483.8467,
758.469,3456.2024,
755.558,3414.3676,
752.648,3363.8622,
749.737,3321.8883,
746.826,3239.1378,
743.916,3125.0627,
741.005,2996.8133,
738.095,2748.379,
735.184,2399.2433,
732.274,2323.4129,
729.363,2524.2048,
726.452,2876.2365,
723.542,3138.48,
720.631,3220.1544,
717.721,3294.7225,
714.810,3340.5852,
711.899,3339.9047,
708.989,3297.1376,
706.078,3320.1128,
703.168,3311.9089,
700.257,3292.9733,
697.347,3266.485,
694.436,3222.4424,
691.525,3243.3413,
688.615,3250.3906,
685.704,3260.5089,
682.794,3277.726,
679.883,3296.3704,
676.973,3285.1512,
674.062,3307.7602,
671.151,3323.6283,
668.241,3328.4957,
665.330,3337.0641,
662.420,3341.0577,
659.509,3386.3202,
656.598,3427.0212,
653.688,3440.8939,
650.777,3419.6599,
647.867,3383.8251,
644.956,3341.8217,
642.046,3347.8239,
639.135,3388.5999,
636.224,3398.692,
633.314,3362.1708,
630.403,3368.2465,
627.493,3385.4043,
624.582,3394.4624,
621.672,3388.1265,
618.761,3394.7145,
615.850,3393.0181,
612.940,3392.6073,
610.029,3407.7392,
607.119,3466.9615,
604.208,3460.0948,
601.297,3469.8305,
598.387,3475.7028,
595.476,3451.0923,
592.566,3432.2027,
589.655,3433.4102,
586.745,3437.1769,
583.834,3428.335,
580.923,3390.7944,
578.013,3377.454,
575.102,3411.1582,
572.192,3463.5276,
569.281,3520.1072,
566.371,3588.1955,
563.460,3604.7516,
560.549,3588.8966,
557.639,3579.6918,
554.728,3616.2109,
551.818,3684.8787,
548.907,3725.4704,
545.996,3730.9889,
543.086,3705.6546,
540.175,3667.501,
537.265,3690.2248,
534.354,3680.3091,
531.444,3687.0688,
528.533,3753.9921,
525.622,3741.5769,
522.712,3740.0885,
519.801,3752.3314,
516.891,3771.814,
513.980,3776.4598,
511.070,3776.875,
508.159,3773.0545,
505.248,3793.4105,
502.338,3867.6205,
499.427,3893.091,
496.517,3868.1983,
493.606,3858.3441,
490.695,3891.3683,
487.785,3923.6996,
484.874,3919.8279,
481.964,3894.5264,
479.053,3867.7136,
476.143,3875.3932,
473.232,3852.1347,
470.321,3825.8448,
467.411,3808.888,
464.500,3812.2435,
461.590,3826.7925,
458.679,3872.6974,
455.769,3909.7106,
452.858,3914.5229,
449.947,3901.5361,
447.037,3909.1899,
444.126,3929.1841,
441.216,3949.4938,
438.305,3935.779,
435.395,3915.5172,
432.484,3931.7136,
429.573,3970.1825,
426.663,3980.0644,
423.752,3925.7789,
420.842,3911.0087,
417.931,3931.5711,
415.020,3965.6972,
412.110,4114.6609,
409.199,4193.3249,
406.289,4206.0841,
403.378,4166.7597,
400.468,4132.74,
397.557,4129.0731,
394.646,4107.8631,
391.736,4029.0259,
388.825,3940.0266,
385.915,3839.9001,
383.004,3804.5715,
380.094,3885.4395,
377.183,4014.113,
374.272,4138.3482,
371.362,4228.4744,
368.451,4269.9326,
365.541,4336.7303,
362.630,4334.6641,
359.719,4313.4355,
356.809,4301.2439,
353.898,4274.2871,
350.988,4274.4698,
348.077,4263.1601,
345.167,4220.7075,
342.256,4237.143,
339.345,4244.5322,
336.435,4275.7446,
333.524,4350.4522,
330.614,4337.0394,
327.703,4351.3576,
324.793,4386.9204,
321.882,4438.8191,
318.971,4415.7724,
316.061,4477.2156,
313.150,4562.3464,
310.240,4602.4207,
307.329,4661.046,
304.418,4678.4036,
301.508,4648.2442,
298.597,4559.3941,
295.687,4477.3786,
292.776,4526.8755,
289.866,4706.2829,
286.955,4992.9084,
284.044,5258.4123,
281.134,5495.8882,
278.223,5695.3355,
275.313,5814.7061,
272.402,5972.9018,
269.492,6111.6501,
266.581,6212.5984,
263.670,6334.6383,
260.760,6483.2322,
257.849,6586.3617,
254.939,6584.894,
252.028,6674.6318,
249.117,6702.0226,
246.207,6695.5797,
243.296,6702.168,
240.386,6612.1091,
237.475,6498.179,
234.565,6382.9821,
231.654,6320.1691,
228.743,6297.0937,
225.833,6239.5671,
222.922,6123.0064,
220.012,6082.9359,
217.101,6004.6098,
214.191,5899.9383,
211.280,5776.9971,
208.369,5716.7412,
205.459,5703.054,
202.548,5718.7469,
199.638,5712.216,
196.727,5737.3809,
193.816,5741.5228,
190.906,5705.1385,
187.995,5684.1418,
185.085,5694.8435,
182.174,5727.2157,
179.264,5772.7499,
176.353,5811.1955,
173.442,5808.4841,
170.532,5762.7263,
167.621,5692.7917,
164.711,5618.1648,
161.800,5492.4253,
158.890,5271.4689,
155.979,5031.4965,
153.068,4642.9467,
150.158,4135.2188,
147.247,3608.2418,
144.337,2977.8468,
141.426,2335.3222,
138.516,1720.9464,
135.605,1241.6774,
132.694,855.73435,
129.784,558.66328,
126.873,367.72361,
123.963,245.22169,
121.052,169.69356,
118.141,138.99578,
115.231,111.16276,
112.320,83.776835,
109.410,61.738645,
106.499,61.02649,
103.589,55.83271,
100.678,49.430405,
97.767,43.031966,
94.857,39.410055,
91.946,37.068778,
89.036,34.746021,
86.125,27.653968,
83.215,29.060522,
80.304,30.198971,
77.393,25.241782,
74.483,26.840405,
71.572,26.425592,
68.662,23.667198,
65.751,21.547844,
62.840,20.393298,
59.930,18.563997,
57.019,13.628423,
54.109,18.249448,
51.198,20.366954,
48.288,16.863675,
45.377,15.456919,
42.466,18.172755,
39.556,22.644763,
36.645,21.240382,
33.735,19.836503,
30.824,20.200322,
27.914,24.407373,
25.003,29.233462,
22.092,33.812427,
19.182,38.309774,
16.271,51.600087,
13.361,191.32009,
10.450,499.18969,
7.539,1215.6613,
4.629,1772.5963,
1.718,2018.3119,
-1.192,1687.1682,
-4.103,997.707,
-7.013,402.93398,
-9.924,-2.125,
