,PLD703~1,
Raman shift [1/cm],Intensity,
3014.167,3.75,
3011.256,1.5000537,
3008.346,67.076492,
3005.435,93.67226,
3002.525,84.994966,
2999.614,105.32402,
2996.704,100.06856,
2993.793,86.60772,
2990.882,103.70418,
2987.972,115.68946,
2985.061,105.5234,
2982.151,124.48279,
2979.240,131.96577,
2976.329,123.22543,
2973.419,118.90404,
2970.508,119.38329,
2967.598,129.51466,
2964.687,139.4966,
2961.777,133.75,
2958.866,152.08581,
2955.955,148.75,
2953.045,136.76791,
2950.134,141.50509,
2947.224,145.77847,
2944.313,148.54772,
2941.403,152.48814,
2938.492,162.44105,
2935.581,155.27147,
2932.671,167.5526,
2929.760,168.45383,
2926.850,158.69774,
2923.939,158.51169,
2921.028,172.0149,
2918.118,159.55101,
2915.207,161.86385,
2912.297,171.69076,
2909.386,175.96168,
2906.476,179.94382,
2903.565,180.23445,
2900.654,164.63272,
2897.744,179.69971,
2894.833,165.85328,
2891.923,170.40071,
2889.012,177.21243,
2886.102,161.33379,
2883.191,177.73301,
2880.280,157.81221,
2877.370,153.05237,
2874.459,144.86947,
2871.549,161.11867,
2868.638,189.1603,
2865.727,180.38078,
2862.817,176.29278,
2859.906,180.83832,
2856.996,177.73189,
2854.085,194.07355,
2851.175,178.70182,
2848.264,175.75,
2845.353,161.46171,
2842.443,191.75348,
2839.532,187.97389,
2836.622,192.56446,
2833.711,167.38735,
2830.801,180.53383,
2827.890,182.4598,
2824.979,184.61404,
2822.069,183.93195,
2819.158,196.32951,
2816.248,190.75,
2813.337,174.09024,
2810.427,185.3533,
2807.516,189.69969,
2804.605,181.34135,
2801.695,180.31579,
2798.784,189.08469,
2795.874,187.45976,
2792.963,193.03574,
2790.052,169.75515,
2787.142,195.90785,
2784.231,182.23448,
2781.321,184.81286,
2778.410,184.92005,
2775.500,189.87689,
2772.589,204.05734,
2769.678,201.99913,
2766.768,206.56165,
2763.857,194.53998,
2760.947,190.69957,
2758.036,193.76281,
2755.126,208.56623,
2752.215,190.21818,
2749.304,198.47301,
2746.394,204.23184,
2743.483,205.90002,
2740.573,204.52434,
2737.662,188.53698,
2734.751,208.14786,
2731.841,211.61447,
2728.930,208.5677,
2726.020,217.85706,
2723.109,202.33783,
2720.199,197.84677,
2717.288,207.31204,
2714.377,207.97492,
2711.467,205.07748,
2708.556,218.5799,
2705.646,209.67956,
2702.735,227.58247,
2699.825,230.17365,
2696.914,229.70227,
2694.003,215.52073,
2691.093,226.10739,
2688.182,228.16778,
2685.272,213.6618,
2682.361,232.99127,
2679.450,220.25621,
2676.540,211.09551,
2673.629,225.09531,
2670.719,224.88864,
2667.808,240.11774,
2664.898,223.15273,
2661.987,228.78359,
2659.076,237.87716,
2656.166,236.75,
2653.255,232.41837,
2650.345,221.47777,
2647.434,233.09296,
2644.524,237.13609,
2641.613,230.20694,
2638.702,240.52907,
2635.792,235.50074,
2632.881,233.7916,
2629.971,244.6024,
2627.060,237.0825,
2624.149,244.66875,
2621.239,243.49555,
2618.328,231.59774,
2615.418,252.40909,
2612.507,242.71843,
2609.597,259.27096,
2606.686,243.03516,
2603.775,256.90873,
2600.865,256.57254,
2597.954,254.51043,
2595.044,251.40191,
2592.133,259.0303,
2589.223,250.15946,
2586.312,280.55403,
2583.401,263.52733,
2580.491,251.92788,
2577.580,254.75825,
2574.670,255.3222,
2571.759,252.55821,
2568.848,266.33567,
2565.938,260.65463,
2563.027,275.45684,
2560.117,256.40418,
2557.206,266.83118,
2554.296,257.46625,
2551.385,267.50202,
2548.474,273.97231,
2545.564,266.06656,
2542.653,273.3708,
2539.743,273.31777,
2536.832,277.56683,
2533.922,276.68692,
2531.011,271.10014,
2528.100,273.68033,
2525.190,282.12172,
2522.279,278.42171,
2519.369,273.86308,
2516.458,280.41785,
2513.548,287.41356,
2510.637,274.05741,
2507.726,277.18866,
2504.816,284.43884,
2501.905,283.82256,
2498.995,278.28747,
2496.084,280.61756,
2493.173,276.14503,
2490.263,294.91838,
2487.352,301.33267,
2484.442,293.17398,
2481.531,305.70204,
2478.621,299.16227,
2475.710,305.82668,
2472.799,313.77693,
2469.889,305.81094,
2466.978,290.03879,
2464.068,310.60723,
2461.157,292.98002,
2458.247,305.10312,
2455.336,311.90067,
2452.425,313.6651,
2449.515,312.22194,
2446.604,318.51962,
2443.694,307.84292,
2440.783,314.65653,
2437.872,316.93232,
2434.962,321.22466,
2432.051,316.33636,
2429.141,315.59702,
2426.230,320.48924,
2423.320,314.53561,
2420.409,321.77558,
2417.498,327.94663,
2414.588,340.19482,
2411.677,329.78586,
2408.767,328.22047,
2405.856,326.84759,
2402.946,341.27994,
2400.035,325.8697,
2397.124,345.17782,
2394.214,332.1012,
2391.303,337.18089,
2388.393,346.48257,
2385.482,366.86876,
2382.571,324.54704,
2379.661,332.79662,
2376.750,340.11442,
2373.840,370.79054,
2370.929,349.0424,
2368.019,352.0154,
2365.108,351.07461,
2362.197,353.58285,
2359.287,339.96838,
2356.376,363.70421,
2353.466,349.73457,
2350.555,363.62535,
2347.645,371.05332,
2344.734,353.14168,
2341.823,363.51783,
2338.913,359.39477,
2336.002,358.12081,
2333.092,371.14059,
2330.181,375.46868,
2327.270,363.35506,
2324.360,369.42216,
2321.449,379.88947,
2318.539,379.98239,
2315.628,381.0014,
2312.718,390.28304,
2309.807,378.61337,
2306.896,376.49804,
2303.986,387.49686,
2301.075,400.28192,
2298.165,387.57671,
2295.254,395.51303,
2292.344,379.90347,
2289.433,391.03954,
2286.522,386.42405,
2283.612,387.91964,
2280.701,389.21188,
2277.791,387.70993,
2274.880,390.60193,
2271.969,409.77881,
2269.059,412.72275,
2266.148,406.56135,
2263.238,428.24033,
2260.327,407.40513,
2257.417,405.12222,
2254.506,417.60472,
2251.595,427.03362,
2248.685,432.43268,
2245.774,437.35433,
2242.864,403.46321,
2239.953,416.2534,
2237.043,429.03607,
2234.132,423.08512,
2231.221,437.62092,
2228.311,438.18171,
2225.400,427.56622,
2222.490,452.96492,
2219.579,446.90427,
2216.669,466.71184,
2213.758,479.31602,
2210.847,489.81044,
2207.937,486.95359,
2205.026,501.63834,
2202.116,514.91455,
2199.205,514.28718,
2196.294,526.36998,
2193.384,549.22303,
2190.473,561.89789,
2187.563,573.83217,
2184.652,592.25612,
2181.742,608.13728,
2178.831,619.59433,
2175.920,622.82469,
2173.010,630.02494,
2170.099,621.08432,
2167.189,633.91504,
2164.278,660.85854,
2161.368,682.75024,
2158.457,695.54234,
2155.546,720.31058,
2152.636,712.38832,
2149.725,737.04528,
2146.815,736.95021,
2143.904,769.4526,
2140.993,777.14681,
2138.083,781.38526,
2135.172,770.83397,
2132.262,757.6206,
2129.351,750.46376,
2126.441,739.91502,
2123.530,700.7051,
2120.619,692.34652,
2117.709,660.79469,
2114.798,633.43443,
2111.888,605.70009,
2108.977,589.12747,
2106.067,586.81702,
2103.156,557.95577,
2100.245,544.7224,
2097.335,503.03795,
2094.424,516.63846,
2091.514,505.67741,
2088.603,499.00348,
2085.692,498.4786,
2082.782,484.78625,
2079.871,500.75116,
2076.961,491.71867,
2074.050,519.16818,
2071.140,503.72733,
2068.229,481.11719,
2065.318,483.63951,
2062.408,495.24244,
2059.497,495.14881,
2056.587,505.38936,
2053.676,484.43488,
2050.766,487.05717,
2047.855,497.92411,
2044.944,476.66665,
2042.034,512.2701,
2039.123,482.7702,
2036.213,491.38336,
2033.302,495.40224,
2030.391,477.58089,
2027.481,491.32297,
2024.570,481.8933,
2021.660,498.50829,
2018.749,487.24388,
2015.839,498.94291,
2012.928,491.91107,
2010.017,489.97042,
2007.107,494.98177,
2004.196,496.91669,
2001.286,469.91261,
1998.375,456.79626,
1995.465,470.18928,
1992.554,487.64987,
1989.643,464.64866,
1986.733,468.67982,
1983.822,457.0853,
1980.912,495.60099,
1978.001,471.9281,
1975.090,460.17137,
1972.180,461.40424,
1969.269,462.1264,
1966.359,450.85806,
1963.448,448.01948,
1960.538,439.6349,
1957.627,481.44044,
1954.716,460.52562,
1951.806,432.88616,
1948.895,469.79662,
1945.985,444.79248,
1943.074,445.17816,
1940.164,432.86554,
1937.253,449.62383,
1934.342,447.69011,
1931.432,437.86356,
1928.521,429.90544,
1925.611,439.72389,
1922.700,422.58978,
1919.790,444.31038,
1916.879,417.12148,
1913.968,461.69221,
1911.058,448.49474,
1908.147,431.54709,
1905.237,434.96322,
1902.326,433.55147,
1899.415,437.28413,
1896.505,406.26801,
1893.594,415.9208,
1890.684,424.84159,
1887.773,421.41357,
1884.863,427.75,
1881.952,438.2124,
1879.041,438.21106,
1876.131,418.01929,
1873.220,424.21022,
1870.310,430.39125,
1867.399,429.76599,
1864.489,423.6457,
1861.578,444.06881,
1858.667,430.09729,
1855.757,438.96718,
1852.846,432.81663,
1849.936,467.82008,
1847.025,449.22447,
1844.114,448.24653,
1841.204,456.51224,
1838.293,438.24751,
1835.383,458.33098,
1832.472,442.91174,
1829.562,466.46616,
1826.651,476.7069,
1823.740,476.30174,
1820.830,455.60019,
1817.919,460.96565,
1815.009,461.1813,
1812.098,455.36418,
1809.188,454.75,
1806.277,446.92705,
1803.366,474.81654,
1800.456,479.35453,
1797.545,488.45929,
1794.635,474.84699,
1791.724,471.06065,
1788.813,484.55231,
1785.903,487.76359,
1782.992,476.35954,
1780.082,468.6995,
1777.171,456.09155,
1774.261,487.11501,
1771.350,476.669,
1768.439,486.56226,
1765.529,509.5657,
1762.618,488.43561,
1759.708,481.72825,
1756.797,495.81061,
1753.887,521.72522,
1750.976,501.08771,
1748.065,498.18318,
1745.155,523.16281,
1742.244,524.79077,
1739.334,505.31706,
1736.423,528.83781,
1733.512,527.92476,
1730.602,531.7262,
1727.691,518.62913,
1724.781,531.84126,
1721.870,549.62627,
1718.960,521.50518,
1716.049,551.66489,
1713.138,553.62003,
1710.228,564.93416,
1707.317,553.48143,
1704.407,558.03878,
1701.496,562.39619,
1698.586,597.86141,
1695.675,547.41461,
1692.764,571.20493,
1689.854,541.17912,
1686.943,625.74842,
1684.033,599.49509,
1681.122,623.32519,
1678.211,630.68338,
1675.301,604.83017,
1672.390,612.85169,
1669.480,647.21527,
1666.569,704.54687,
1663.659,689.10931,
1660.748,711.54055,
1657.837,751.48756,
1654.927,740.21858,
1652.016,758.75374,
1649.106,719.82717,
1646.195,763.80496,
1643.285,805.99804,
1640.374,774.77438,
1637.463,824.01102,
1634.553,892.75,
1631.642,892.99973,
1628.732,916.4729,
1625.821,1037.7768,
1622.911,1078.519,
1620.000,1140.9563,
1617.089,1222.1182,
1614.179,1285.9451,
1611.268,1383.0694,
1608.358,1407.7199,
1605.447,1459.6647,
1602.536,1514.9357,
1599.626,1560.147,
1596.715,1512.0167,
1593.805,1492.4407,
1590.894,1477.5399,
1587.984,1496.5362,
1585.073,1425.7289,
1582.162,1448.6501,
1579.252,1423.8363,
1576.341,1390.3149,
1573.431,1356.3389,
1570.520,1309.7668,
1567.610,1280.6125,
1564.699,1297.2259,
1561.788,1295.1867,
1558.878,1248.4187,
1555.967,1208.2694,
1553.057,1152.4574,
1550.146,1150.1027,
1547.235,1125.7885,
1544.325,1096.4879,
1541.414,1077.4682,
1538.504,1084.3297,
1535.593,1093.0641,
1532.683,1064.2118,
1529.772,1044.3188,
1526.861,1045.3593,
1523.951,1051.1045,
1521.040,1067.3697,
1518.130,1063.1346,
1515.219,1039.5477,
1512.309,1096.4526,
1509.398,1036.4837,
1506.487,1057.6874,
1503.577,1017.8145,
1500.666,975.21967,
1497.756,1005.2673,
1494.845,1034.9095,
1491.934,1014.7091,
1489.024,1002.1966,
1486.113,959.09809,
1483.203,1009.9282,
1480.292,982.80954,
1477.382,967.05102,
1474.471,924.07891,
1471.560,880.54636,
1468.650,914.52934,
1465.739,918.45677,
1462.829,924.26725,
1459.918,913.20285,
1457.008,937.3813,
1454.097,965.27173,
1451.186,921.63975,
1448.276,882.22588,
1445.365,883.14258,
1442.455,846.67833,
1439.544,772.43489,
1436.633,813.28327,
1433.723,785.11783,
1430.812,797.90811,
1427.902,750.22354,
1424.991,770.12656,
1422.081,712.03147,
1419.170,686.01255,
1416.259,681.93994,
1413.349,672.68711,
1410.438,664.85154,
1407.528,671.11864,
1404.617,682.20841,
1401.707,701.05839,
1398.796,690.14866,
1395.885,699.30148,
1392.975,732.39511,
1390.064,667.49306,
1387.154,580.97384,
1384.243,541.50542,
1381.332,464.5046,
1378.422,516.83643,
1375.511,634.87083,
1372.601,708.63249,
1369.690,783.3278,
1366.780,789.20575,
1363.869,782.66466,
1360.958,846.11141,
1358.048,856.61084,
1355.137,889.63862,
1352.227,926.88721,
1349.316,935.08082,
1346.406,970.32936,
1343.495,989.50435,
1340.584,985.57144,
1337.674,990.11004,
1334.763,1035.1381,
1331.853,1045.3377,
1328.942,1067.0971,
1326.032,1095.8499,
1323.121,1100.2681,
1320.210,1139.0393,
1317.300,1194.7542,
1314.389,1207.4164,
1311.479,1181.7695,
1308.568,1217.9879,
1305.657,1316.4357,
1302.747,1333.6902,
1299.836,1393.2267,
1296.926,1454.8182,
1294.015,1477.8013,
1291.105,1479.6305,
1288.194,1580.3916,
1285.283,1615.774,
1282.373,1623.5469,
1279.462,1637.2792,
1276.552,1647.6791,
1273.641,1662.0362,
1270.731,1691.3948,
1267.820,1700.8172,
1264.909,1668.2007,
1261.999,1679.5156,
1259.088,1700.4944,
1256.178,1661.4965,
1253.267,1613.3214,
1250.356,1562.8238,
1247.446,1523.6278,
1244.535,1511.2277,
1241.625,1483.0686,
1238.714,1436.8159,
1235.804,1420.7695,
1232.893,1370.5004,
1229.982,1367.2168,
1227.072,1321.9512,
1224.161,1277.5653,
1221.251,1264.5384,
1218.340,1212.8685,
1215.430,1202.2661,
1212.519,1202.62,
1209.608,1189.2306,
1206.698,1189.6648,
1203.787,1185.3832,
1200.877,1228.756,
1197.966,1261.1257,
1195.055,1278.1085,
1192.145,1346.8682,
1189.234,1392.7553,
1186.324,1432.4798,
1183.413,1456.9581,
1180.503,1453.3421,
1177.592,1441.2147,
1174.681,1438.5685,
1171.771,1409.6264,
1168.860,1404.2678,
1165.950,1377.1424,
1163.039,1336.5283,
1160.129,1356.5515,
1157.218,1403.8253,
1154.307,1414.28,
1151.397,1394.1815,
1148.486,1412.8941,
1145.576,1446.7092,
1142.665,1422.7356,
1139.754,1406.9183,
1136.844,1383.4412,
1133.933,1392.3452,
1131.023,1382.0894,
1128.112,1352.4649,
1125.202,1346.9239,
1122.291,1351.8699,
1119.380,1339.1311,
1116.470,1377.9623,
1113.559,1378.1105,
1110.649,1362.3434,
1107.738,1327.4233,
1104.828,1322.0584,
1101.917,1335.6193,
1099.006,1310.6056,
1096.096,1327.0836,
1093.185,1299.8656,
1090.275,1342.2599,
1087.364,1339.7137,
1084.453,1321.3758,
1081.543,1344.6166,
1078.632,1385.183,
1075.722,1378.741,
1072.811,1364.9433,
1069.901,1353.5909,
1066.990,1351.9417,
1064.079,1376.929,
1061.169,1392.0638,
1058.258,1392.6326,
1055.348,1385.6346,
1052.437,1380.5057,
1049.527,1403.4073,
1046.616,1368.6542,
1043.705,1363.9792,
1040.795,1359.919,
1037.884,1365.3361,
1034.974,1380.9433,
1032.063,1382.112,
1029.153,1343.6195,
1026.242,1359.1887,
1023.331,1391.4146,
1020.421,1411.692,
1017.510,1442.4021,
1014.600,1470.2086,
1011.689,1476.3337,
1008.778,1469.4941,
1005.868,1508.7732,
1002.957,1511.3542,
1000.047,1556.158,
997.136,1569.8134,
994.226,1559.2732,
991.315,1545.401,
988.404,1532.724,
985.494,1506.7116,
982.583,1504.9985,
979.673,1509.8715,
976.762,1513.5113,
973.852,1497.9536,
970.941,1492.1618,
968.030,1529.3512,
965.120,1532.7178,
962.209,1525.0449,
959.299,1521.6253,
956.388,1530.8294,
953.477,1527.6523,
950.567,1521.9455,
947.656,1547.6305,
944.746,1523.8429,
941.835,1540.5659,
938.925,1556.5949,
936.014,1542.517,
933.103,1524.8686,
930.193,1524.1556,
927.282,1505.0167,
924.372,1491.487,
921.461,1468.3944,
918.551,1434.608,
915.640,1417.8747,
912.729,1413.236,
909.819,1395.6413,
906.908,1417.5444,
903.998,1406.0242,
901.087,1439.6674,
898.176,1452.6377,
895.266,1446.2892,
892.355,1461.0165,
889.445,1510.5333,
886.534,1531.6218,
883.624,1508.1639,
880.713,1507.5089,
877.802,1521.1396,
874.892,1524.1177,
871.981,1525.5527,
869.071,1517.1986,
866.160,1539.8986,
863.250,1523.4915,
860.339,1507.3414,
857.428,1520.4543,
854.518,1511.1111,
851.607,1523.5921,
848.697,1527.8135,
845.786,1508.5103,
842.875,1504.7806,
839.965,1530.0557,
837.054,1518.0942,
834.144,1548.7581,
831.233,1521.4191,
828.323,1534.4243,
825.412,1553.8033,
822.501,1537.7502,
819.591,1576.5909,
816.680,1532.8781,
813.770,1504.2079,
810.859,1491.4938,
807.949,1490.1281,
805.038,1492.9535,
802.127,1486.3685,
799.217,1506.6209,
796.306,1485.939,
793.396,1455.7957,
790.485,1451.6473,
787.574,1487.5979,
784.664,1457.2538,
781.753,1480.6023,
778.843,1471.2261,
775.932,1459.4041,
773.022,1485.214,
770.111,1468.8625,
767.200,1476.8857,
764.290,1482.6394,
761.379,1490.658,
758.469,1492.4257,
755.558,1464.9445,
752.648,1471.4613,
749.737,1438.1522,
746.826,1363.3372,
743.916,1276.412,
741.005,1194.9984,
738.095,984.72232,
735.184,764.5387,
732.274,726.19231,
729.363,881.44804,
726.452,1148.7396,
723.542,1320.331,
720.631,1366.4479,
717.721,1393.7897,
714.810,1417.1704,
711.899,1437.4431,
708.989,1444.7054,
706.078,1446.3526,
703.168,1426.1045,
700.257,1416.0506,
697.347,1428.1405,
694.436,1453.5716,
691.525,1410.1661,
688.615,1424.6486,
685.704,1433.138,
682.794,1424.1117,
679.883,1420.408,
676.973,1457.271,
674.062,1439.8648,
671.151,1447.2282,
668.241,1469.5085,
665.330,1453.0903,
662.420,1460.2789,
659.509,1473.1788,
656.598,1489.7032,
653.688,1487.5672,
650.777,1437.3981,
647.867,1456.5099,
644.956,1461.9883,
642.046,1473.115,
639.135,1478.9464,
636.224,1445.8017,
633.314,1456.1229,
630.403,1491.2666,
627.493,1503.38,
624.582,1483.7483,
621.672,1470.2844,
618.761,1483.4289,
615.850,1477.8322,
612.940,1481.3622,
610.029,1503.8815,
607.119,1504.6712,
604.208,1527.4704,
601.297,1514.3167,
598.387,1481.7179,
595.476,1460.3897,
592.566,1498.956,
589.655,1477.2428,
586.745,1453.5046,
583.834,1442.5304,
580.923,1441.4941,
578.013,1399.1185,
575.102,1433.0635,
572.192,1488.5444,
569.281,1524.7974,
566.371,1508.3623,
563.460,1544.8453,
560.549,1548.568,
557.639,1547.2982,
554.728,1578.8485,
551.818,1580.4092,
548.907,1591.7194,
545.996,1592.9182,
543.086,1589.4539,
540.175,1615.9279,
537.265,1617.0257,
534.354,1604.7094,
531.444,1589.6848,
528.533,1584.0125,
525.622,1615.8263,
522.712,1618.5027,
519.801,1619.9507,
516.891,1630.1931,
513.980,1647.2276,
511.070,1645.2283,
508.159,1657.5994,
505.248,1669.996,
502.338,1662.6311,
499.427,1692.7325,
496.517,1705.8409,
493.606,1707.3946,
490.695,1704.0338,
487.785,1713.2713,
484.874,1716.6887,
481.964,1684.1125,
479.053,1644.6559,
476.143,1677.6783,
473.232,1668.2395,
470.321,1669.5889,
467.411,1669.4185,
464.500,1650.4009,
461.590,1636.6176,
458.679,1646.5074,
455.769,1664.0513,
452.858,1679.2612,
449.947,1693.7759,
447.037,1686.4351,
444.126,1687.1439,
441.216,1702.7926,
438.305,1720.3171,
435.395,1707.6704,
432.484,1705.1678,
429.573,1711.5075,
426.663,1706.1865,
423.752,1712.7242,
420.842,1727.1671,
417.931,1743.982,
415.020,1755.3574,
412.110,1792.3307,
409.199,1801.349,
406.289,1788.6327,
403.378,1763.7602,
400.468,1766.7842,
397.557,1751.2972,
394.646,1714.741,
391.736,1655.6252,
388.825,1589.2529,
385.915,1562.8315,
383.004,1567.3151,
380.094,1595.5159,
377.183,1630.1298,
374.272,1720.6243,
371.362,1794.3422,
368.451,1808.7986,
365.541,1826.0609,
362.630,1823.1026,
359.719,1834.804,
356.809,1876.7532,
353.898,1860.2796,
350.988,1836.2205,
348.077,1822.0733,
345.167,1828.1284,
342.256,1835.5991,
339.345,1845.7215,
336.435,1851.0844,
333.524,1847.3607,
330.614,1866.7347,
327.703,1856.321,
324.793,1848.2259,
321.882,1869.869,
318.971,1918.9362,
316.061,1932.3318,
313.150,1925.5167,
310.240,1915.1271,
307.329,1940.4769,
304.418,1922.9369,
301.508,1877.7377,
298.597,1832.5722,
295.687,1788.1156,
292.776,1802.9169,
289.866,1875.3491,
286.955,1992.0677,
284.044,2146.0024,
281.134,2257.5948,
278.223,2330.2883,
275.313,2457.0274,
272.402,2498.2726,
269.492,2544.8712,
266.581,2627.1643,
263.670,2688.9194,
260.760,2715.1081,
257.849,2738.6609,
254.939,2784.1616,
252.028,2817.323,
249.117,2792.747,
246.207,2754.8111,
243.296,2778.2363,
240.386,2776.1791,
237.475,2738.789,
234.565,2676.4231,
231.654,2636.252,
228.743,2605.886,
225.833,2580.6031,
222.922,2557.7456,
220.012,2514.7608,
217.101,2470.8163,
214.191,2443.6841,
211.280,2456.7784,
208.369,2411.3259,
205.459,2359.2055,
202.548,2318.0091,
199.638,2336.8759,
196.727,2368.9846,
193.816,2387.3418,
190.906,2382.5626,
187.995,2405.7314,
185.085,2427.9357,
182.174,2444.1418,
179.264,2445.5873,
176.353,2475.8666,
173.442,2469.1837,
170.532,2426.2379,
167.621,2413.2603,
164.711,2370.858,
161.800,2308.9617,
158.890,2230.5114,
155.979,2054.2026,
153.068,1916.227,
150.158,1778.4481,
147.247,1476.9081,
144.337,1202.3082,
141.426,953.09392,
138.516,732.29142,
135.605,508.16403,
132.694,341.73471,
129.784,224.5587,
126.873,146.60955,
123.963,99.451143,
121.052,69.517637,
118.141,53.811793,
115.231,42.380874,
112.320,31.819097,
109.410,24.295421,
106.499,27.144042,
103.589,26.629491,
100.678,23.033783,
97.767,15.924407,
94.857,19.214945,
91.946,17.525113,
89.036,12.637102,
86.125,11.927897,
83.215,15.997363,
80.304,18.313404,
77.393,14.064384,
74.483,15.06027,
71.572,11.401775,
68.662,4.442675,
65.751,11.507186,
62.840,8.9329802,
59.930,5.9974344,
57.019,14.458418,
54.109,10.972713,
51.198,8.9564371,
48.288,11.721688,
45.377,8.2047975,
42.466,7.986658,
39.556,9.75,
36.645,9.75,
33.735,14.423236,
30.824,18.529113,
27.914,17.827938,
25.003,18.372637,
22.092,21.333236,
19.182,27.413603,
16.271,47.698817,
13.361,148.89221,
10.450,372.54124,
7.539,929.09858,
4.629,1471.8366,
1.718,1795.1444,
-1.192,1633.4069,
-4.103,1000.8268,
-7.013,419.99233,
-9.924,-5.25,
