,PLA276~1,
Wavenumbers [1/cm],Intensity,
3014.167,-6.25,
3011.256,0.79990337,
3008.346,56.994869,
3005.435,51.75,
3002.525,46.202461,
2999.614,60.462991,
2996.704,68.201544,
2993.793,59.483872,
2990.882,66.666058,
2987.972,78.69955,
2985.061,63.873146,
2982.151,72.721441,
2979.240,70.296556,
2976.329,97.015016,
2973.419,78.796471,
2970.508,80.549921,
2967.598,76.323494,
2964.687,93.003396,
2961.777,95.126032,
2958.866,94.084323,
2955.955,90.473454,
2953.045,80.951353,
2950.134,104.69755,
2947.224,84.774877,
2944.313,106.71652,
2941.403,102.91697,
2938.492,108.62264,
2935.581,101.66414,
2932.671,111.50965,
2929.760,104.40384,
2926.850,105.43647,
2923.939,114.42755,
2921.028,121.9794,
2918.118,111.55101,
2915.207,116.21831,
2912.297,113.75,
2909.386,116.35584,
2906.476,121.97471,
2903.565,110.63666,
2900.654,126.31419,
2897.744,134.66199,
2894.833,112.90491,
2891.923,99.048103,
2889.012,129.50144,
2886.102,131.99864,
2883.191,133.75283,
2880.280,125.27152,
2877.370,106.81393,
2874.459,106.86327,
2871.549,93.552345,
2868.638,123.48192,
2865.727,126.2269,
2862.817,124.36365,
2859.906,117.94087,
2856.996,142.25226,
2854.085,125.02518,
2851.175,129.89455,
2848.264,143.88733,
2845.353,128.18134,
2842.443,138.16671,
2839.532,121.42166,
2836.622,122.68815,
2833.711,125.69036,
2830.801,131.95147,
2827.890,124.91784,
2824.979,132.03399,
2822.069,117.19351,
2819.158,145.10848,
2816.248,132.97974,
2813.337,145.93537,
2810.427,131.27204,
2807.516,128.22484,
2804.605,141.05047,
2801.695,135.19739,
2798.784,145.67608,
2795.874,135.47032,
2792.963,134.89298,
2790.052,128.75193,
2787.142,143.46054,
2784.231,135.52486,
2781.321,145.49279,
2778.410,130.06979,
2775.500,133.98414,
2772.589,130.71253,
2769.678,148.53497,
2766.768,138.76357,
2763.857,139.38199,
2760.947,141.7437,
2758.036,144.98569,
2755.126,147.0812,
2752.215,141.04986,
2749.304,149.94063,
2746.394,150.36294,
2743.483,138.85,
2740.573,137.08848,
2737.662,154.84616,
2734.751,143.63351,
2731.841,142.75,
2728.930,162.178,
2726.020,152.30093,
2723.109,136.33783,
2720.199,141.76867,
2717.288,157.10037,
2714.377,157.26672,
2711.467,149.93022,
2708.556,165.17526,
2705.646,161.22884,
2702.735,166.90721,
2699.825,167.53186,
2696.914,159.13043,
2694.003,177.20854,
2691.093,161.39261,
2688.182,161.62333,
2685.272,159.14829,
2682.361,165.72052,
2679.450,165.91874,
2676.540,147.01421,
2673.629,161.40918,
2670.719,157.04205,
2667.808,191.75594,
2664.898,161.56809,
2661.987,167.88336,
2659.076,170.49569,
2656.166,150.78452,
2653.255,175.38095,
2650.345,170.96597,
2647.434,166.43591,
2644.524,167.95861,
2641.613,171.09318,
2638.702,172.81312,
2635.792,164.72108,
2632.881,161.18428,
2629.971,172.62249,
2627.060,163.91656,
2624.149,161.99375,
2621.239,174.53113,
2618.328,175.38581,
2615.418,189.08636,
2612.507,174.71843,
2609.597,193.08733,
2606.686,171.75,
2603.775,175.59127,
2600.865,177.45648,
2597.954,169.22914,
2595.044,178.75,
2592.133,172.63529,
2589.223,189.25633,
2586.312,202.89574,
2583.401,196.05656,
2580.491,195.65384,
2577.580,204.72194,
2574.670,189.68716,
2571.759,194.19949,
2568.848,195.39642,
2565.938,206.36907,
2563.027,200.55456,
2560.117,194.20794,
2557.206,195.46218,
2554.296,194.29462,
2551.385,199.55998,
2548.474,194.63885,
2545.564,203.43344,
2542.653,204.60235,
2539.743,194.45332,
2536.832,192.85281,
2533.922,209.60808,
2531.011,201.29995,
2528.100,207.01482,
2525.190,209.95943,
2522.279,199.50037,
2519.369,206.29768,
2516.458,194.53328,
2513.548,202.36816,
2510.637,213.3811,
2507.726,203.06597,
2504.816,203.43884,
2501.905,206.0689,
2498.995,204.80972,
2496.084,209.42946,
2493.173,220.51325,
2490.263,215.57033,
2487.352,204.41773,
2484.442,224.02193,
2481.531,226.85114,
2478.621,242.01548,
2475.710,204.84968,
2472.799,215.53029,
2469.889,217.47578,
2466.978,233.96643,
2464.068,245.36908,
2461.157,214.48246,
2458.247,214.92639,
2455.336,222.2373,
2452.425,219.16036,
2449.515,234.1741,
2446.604,225.26837,
2443.694,243.91283,
2440.783,245.55968,
2437.872,233.64061,
2434.962,232.58871,
2432.051,237.26234,
2429.141,233.90298,
2426.230,226.20634,
2423.320,253.27863,
2420.409,254.15378,
2417.498,253.76685,
2414.588,246.48005,
2411.677,249.17627,
2408.767,239.06201,
2405.856,241.14769,
2402.946,238.75625,
2400.035,231.26407,
2397.124,258.1992,
2394.214,252.66681,
2391.303,236.96545,
2388.393,236.01743,
2385.482,234.75,
2382.571,262.82685,
2379.661,247.63345,
2376.750,268.11949,
2373.840,251.41569,
2370.929,261.59838,
2368.019,253.09913,
2365.108,259.54058,
2362.197,252.98558,
2359.287,238.96838,
2356.376,252.72182,
2353.466,263.76543,
2350.555,255.40484,
2347.645,257.63078,
2344.734,265.32604,
2341.823,266.73342,
2338.913,275.0858,
2336.002,274.61592,
2333.092,284.04904,
2330.181,276.50447,
2327.270,273.91502,
2324.360,283.00238,
2321.449,271.42687,
2318.539,279.94268,
2315.628,288.05256,
2312.718,289.51652,
2309.807,274.66278,
2306.896,293.94717,
2303.986,270.70452,
2301.075,267.98404,
2298.165,265.55763,
2295.254,290.18988,
2292.344,284.54257,
2289.433,278.46046,
2286.522,292.83033,
2283.612,288.15943,
2280.701,298.59751,
2277.791,277.8721,
2274.880,304.964,
2271.969,305.36317,
2269.059,304.75,
2266.148,304.02045,
2263.238,307.34845,
2260.327,294.23282,
2257.417,297.90334,
2254.506,302.50505,
2251.595,322.75,
2248.685,321.27693,
2245.774,316.24458,
2242.864,322.86973,
2239.953,298.93615,
2237.043,302.73644,
2234.132,307.71876,
2231.221,322.88179,
2228.311,320.27062,
2225.400,322.00331,
2222.490,326.85089,
2219.579,312.14333,
2216.669,318.74046,
2213.758,328.57746,
2210.847,315.82307,
2207.937,321.34282,
2205.026,344.41588,
2202.116,362.3413,
2199.205,342.43823,
2196.294,329.99799,
2193.384,353.77553,
2190.473,356.74413,
2187.563,359.74517,
2184.652,358.44878,
2181.742,360.59139,
2178.831,375.46598,
2175.920,381.58424,
2173.010,382.92517,
2170.099,416.67958,
2167.189,412.89351,
2164.278,435.68467,
2161.368,456.74952,
2158.457,466.32637,
2155.546,478.08271,
2152.636,519.8031,
2149.725,531.25336,
2146.815,556.84904,
2143.904,564.15148,
2140.993,568.68121,
2138.083,572.47948,
2135.172,564.32977,
2132.262,592.9287,
2129.351,591.58434,
2126.441,584.6335,
2123.530,575.52552,
2120.619,550.79608,
2117.709,516.84944,
2114.798,502.53455,
2111.888,467.6386,
2108.977,445.65729,
2106.067,433.85758,
2103.156,441.18786,
2100.245,415.74812,
2097.335,410.94372,
2094.424,398.2287,
2091.514,392.24187,
2088.603,379.6993,
2085.692,378.97678,
2082.782,388.35234,
2079.871,384.5353,
2076.961,354.68734,
2074.050,376.18636,
2071.140,382.01458,
2068.229,377.00258,
2065.318,392.56399,
2062.408,378.73487,
2059.497,370.13094,
2056.587,348.85489,
2053.676,365.61527,
2050.766,368.90396,
2047.855,366.52217,
2044.944,361.27724,
2042.034,373.48405,
2039.123,376.07323,
2036.213,390.94548,
2033.302,362.68489,
2030.391,358.68215,
2027.481,370.90843,
2024.570,374.75,
2021.660,373.80913,
2018.749,393.26837,
2015.839,356.55709,
2012.928,368.87584,
2010.017,389.50353,
2007.107,380.23785,
2004.196,380.33335,
2001.286,394.62631,
1998.375,374.61121,
1995.465,359.60357,
1992.554,348.23244,
1989.643,379.57483,
1986.733,371.55263,
1983.822,383.77511,
1980.912,378.3545,
1978.001,396.98747,
1975.090,380.38205,
1972.180,373.54254,
1969.269,402.39375,
1966.359,399.64163,
1963.448,384.36691,
1960.538,392.48812,
1957.627,364.43419,
1954.716,368.52019,
1951.806,387.3029,
1948.895,373.39381,
1945.985,338.79248,
1943.074,362.73499,
1940.164,391.2978,
1937.253,366.59787,
1934.342,358.20294,
1931.432,372.37776,
1928.521,382.85363,
1925.611,357.6853,
1922.700,358.24724,
1919.790,378.8365,
1916.879,352.91223,
1913.968,378.71557,
1911.058,365.61787,
1908.147,365.07848,
1905.237,374.74265,
1902.326,370.0478,
1899.415,340.17316,
1896.505,352.24426,
1893.594,400.56102,
1890.684,390.99852,
1887.773,384.34443,
1884.863,404.67938,
1881.952,392.31267,
1879.041,369.62019,
1876.131,368.82189,
1873.220,354.93136,
1870.310,349.96525,
1867.399,351.71801,
1864.489,411.67211,
1861.578,404.14604,
1858.667,351.36376,
1855.757,362.94212,
1852.846,372.00128,
1849.936,371.54079,
1847.025,379.33393,
1844.114,389.0935,
1841.204,375.6521,
1838.293,384.7367,
1835.383,406.41249,
1832.472,398.17957,
1829.562,379.00078,
1826.651,401.73354,
1823.740,394.09479,
1820.830,380.57672,
1817.919,396.66628,
1815.009,399.89377,
1812.098,394.36418,
1809.188,394.68798,
1806.277,385.94919,
1803.366,396.08272,
1800.456,415.25539,
1797.545,408.50168,
1794.635,422.52495,
1791.724,403.22569,
1788.813,416.15051,
1785.903,425.01933,
1782.992,440.97054,
1780.082,421.55757,
1777.171,419.07976,
1774.261,408.67006,
1771.350,429.18426,
1768.439,431.04484,
1765.529,416.75282,
1762.618,439.58126,
1759.708,450.36962,
1756.797,454.67424,
1753.887,448.1086,
1750.976,428.41885,
1748.065,468.74845,
1745.155,436.24077,
1742.244,427.55974,
1739.334,436.27235,
1736.423,441.52195,
1733.512,467.30697,
1730.602,499.68654,
1727.691,480.11422,
1724.781,474.10973,
1721.870,445.7784,
1718.960,478.21714,
1716.049,480.0382,
1713.138,465.92506,
1710.228,453.30644,
1707.317,502.17057,
1704.407,495.27404,
1701.496,480.07678,
1698.586,509.24149,
1695.675,501.45721,
1692.764,484.65573,
1689.854,482.79331,
1686.943,498.21039,
1684.033,509.4768,
1681.122,525.47812,
1678.211,501.97842,
1675.301,560.56808,
1672.390,560.66925,
1669.480,533.83824,
1666.569,544.87696,
1663.659,554.65201,
1660.748,549.55983,
1657.837,590.35634,
1654.927,573.17172,
1652.016,590.7257,
1649.106,590.80268,
1646.195,632.29445,
1643.285,613.68164,
1640.374,611.27265,
1637.463,636.6147,
1634.553,683.85345,
1631.642,690.55456,
1628.732,673.26551,
1625.821,759.76243,
1622.911,778.64293,
1620.000,813.30904,
1617.089,857.85448,
1614.179,928.71953,
1611.268,917.27049,
1608.358,983.47238,
1605.447,1044.2648,
1602.536,1059.8645,
1599.626,1054.3105,
1596.715,1090.9616,
1593.805,1044.6674,
1590.894,1049.318,
1587.984,995.32011,
1585.073,1045.4564,
1582.162,1031.5383,
1579.252,990.74475,
1576.341,967.5298,
1573.431,960.6173,
1570.520,975.80192,
1567.610,951.69073,
1564.699,960.60077,
1561.788,938.17282,
1558.878,934.62592,
1555.967,928.17936,
1553.057,906.80189,
1550.146,892.2191,
1547.235,895.24359,
1544.325,859.59724,
1541.414,825.50966,
1538.504,826.86042,
1535.593,809.81268,
1532.683,813.93547,
1529.772,837.41886,
1526.861,799.98933,
1523.951,758.75,
1521.040,766.9717,
1518.130,782.75,
1515.219,768.75105,
1512.309,732.2545,
1509.398,720.86803,
1506.487,703.04036,
1503.577,775.90414,
1500.666,719.6454,
1497.756,728.04677,
1494.845,742.70943,
1491.934,717.7941,
1489.024,731.269,
1486.113,727.11392,
1483.203,735.63168,
1480.292,729.1134,
1477.382,666.32314,
1474.471,656.35427,
1471.560,699.11297,
1468.650,714.75,
1465.739,696.17579,
1462.829,684.55637,
1459.918,668.83274,
1457.008,661.31929,
1454.097,661.59058,
1451.186,651.75967,
1448.276,646.96382,
1445.365,642.39139,
1442.455,636.77606,
1439.544,671.66645,
1436.633,677.20581,
1433.723,662.60425,
1430.812,707.3514,
1427.902,665.0657,
1424.991,678.33437,
1422.081,666.8228,
1419.170,678.71091,
1416.259,664.54874,
1413.349,650.93187,
1410.438,653.34824,
1407.528,675.70599,
1404.617,643.88964,
1401.707,615.86976,
1398.796,638.04715,
1395.885,640.90731,
1392.975,630.45907,
1390.064,670.99066,
1387.154,668.55223,
1384.243,613.68436,
1381.332,695.21272,
1378.422,659.81271,
1375.511,680.42189,
1372.601,666.92644,
1369.690,721.46946,
1366.780,718.86947,
1363.869,755.70624,
1360.958,764.14784,
1358.048,777.36273,
1355.137,783.49316,
1352.227,806.20115,
1349.316,846.91541,
1346.406,867.7328,
1343.495,873.04091,
1340.584,840.96406,
1337.674,858.96603,
1334.763,885.00901,
1331.853,865.53716,
1328.942,928.79141,
1326.032,931.85628,
1323.121,954.46086,
1320.210,951.42935,
1317.300,948.11093,
1314.389,968.76426,
1311.479,1016.0216,
1308.568,1051.5949,
1305.657,1052.8072,
1302.747,1087.3844,
1299.836,1170.293,
1296.926,1153.8182,
1294.015,1176.8013,
1291.105,1165.4224,
1288.194,1222.857,
1285.283,1257.7981,
1282.373,1264.4844,
1279.462,1270.3381,
1276.552,1309.6635,
1273.641,1362.7954,
1270.731,1390.4545,
1267.820,1403.8274,
1264.909,1411.8709,
1261.999,1411.4518,
1259.088,1375.8791,
1256.178,1361.7596,
1253.267,1316.0199,
1250.356,1282.4324,
1247.446,1278.0305,
1244.535,1242.1073,
1241.625,1187.6204,
1238.714,1148.691,
1235.804,1108.9684,
1232.893,1108.6267,
1229.982,1099.5848,
1227.072,1065.1829,
1224.161,1027.4488,
1221.251,1038.6182,
1218.340,1031.1459,
1215.430,1008.8855,
1212.519,1003.9942,
1209.608,1002.4731,
1206.698,989.11183,
1203.787,1003.348,
1200.877,994.57986,
1197.966,975.69752,
1195.055,1016.5592,
1192.145,1029.7607,
1189.234,1066.136,
1186.324,1091.2961,
1183.413,1093.6586,
1180.503,1094.4716,
1177.592,1099.8004,
1174.681,1080.7945,
1171.771,1040.2445,
1168.860,1061.6787,
1165.950,1049.2368,
1163.039,1030.3851,
1160.129,1052.063,
1157.218,1060.2123,
1154.307,1046.2659,
1151.397,1033.3228,
1148.486,1007.4964,
1145.576,1027.902,
1142.665,1008.3679,
1139.754,1017.3272,
1136.844,1022.5512,
1133.933,1024.3365,
1131.023,1032.3035,
1128.112,1031.4656,
1125.202,1028.7596,
1122.291,1071.998,
1119.380,1066.5941,
1116.470,1050.7086,
1113.559,1087.4125,
1110.649,1077.7949,
1107.738,1078.0022,
1104.828,1087.3339,
1101.917,1067.8143,
1099.006,1023.1005,
1096.096,1024.6425,
1093.185,1022.8865,
1090.275,1038.1261,
1087.364,1047.239,
1084.453,1046.3752,
1081.543,1048.5704,
1078.632,1056.317,
1075.722,1060.8784,
1072.811,1068.4182,
1069.901,1105.9685,
1066.990,1092.5834,
1064.079,1104.4018,
1061.169,1112.3023,
1058.258,1109.3621,
1055.348,1117.3902,
1052.437,1147.914,
1049.527,1146.7024,
1046.616,1093.7039,
1043.705,1096.9992,
1040.795,1119.5436,
1037.884,1134.7959,
1034.974,1123.1083,
1032.063,1094.3655,
1029.153,1087.1654,
1026.242,1090.6253,
1023.331,1115.7484,
1020.421,1138.8746,
1017.510,1149.5514,
1014.600,1164.015,
1011.689,1189.8722,
1008.778,1216.8551,
1005.868,1240.4566,
1002.957,1207.7631,
1000.047,1268.998,
997.136,1283.1781,
994.226,1265.9348,
991.315,1272.9307,
988.404,1306.6979,
985.494,1255.1336,
982.583,1272.2647,
979.673,1266.7019,
976.762,1267.8597,
973.852,1268.0979,
970.941,1258.2296,
968.030,1239.143,
965.120,1218.9755,
962.209,1272.6857,
959.299,1285.9995,
956.388,1276.5507,
953.477,1267.339,
950.567,1268.58,
947.656,1274.0842,
944.746,1276.6329,
941.835,1303.4738,
938.925,1300.5373,
936.014,1281.5869,
933.103,1273.0464,
930.193,1277.9558,
927.282,1258.2459,
924.372,1248.9442,
921.461,1205.7752,
918.551,1215.1492,
915.640,1215.7523,
912.729,1194.6285,
909.819,1198.5267,
906.908,1189.2601,
903.998,1171.252,
901.087,1192.2102,
898.176,1201.978,
895.266,1206.9068,
892.355,1228.4359,
889.445,1226.7573,
886.534,1222.5756,
883.624,1243.2806,
880.713,1254.7707,
877.802,1236.6435,
874.892,1195.7861,
871.981,1173.7105,
869.071,1172.0397,
866.160,1189.689,
863.250,1202.992,
860.339,1211.3297,
857.428,1224.2545,
854.518,1250.402,
851.607,1203.8061,
848.697,1203.316,
845.786,1202.0793,
842.875,1222.5679,
839.965,1262.643,
837.054,1234.75,
834.144,1234.75,
831.233,1259.4149,
828.323,1276.6957,
825.412,1271.1252,
822.501,1249.0479,
819.591,1250.7007,
816.680,1257.9616,
813.770,1240.3284,
810.859,1219.7252,
807.949,1209.3012,
805.038,1211.2478,
802.127,1215.3634,
799.217,1188.9159,
796.306,1174.6419,
793.396,1180.4829,
790.485,1194.6971,
787.574,1189.2243,
784.664,1149.0388,
781.753,1169.2603,
778.843,1186.1806,
775.932,1193.4536,
773.022,1200.7356,
770.111,1194.195,
767.200,1193.75,
764.290,1193.75,
761.379,1197.6887,
758.469,1200.8203,
755.558,1189.9688,
752.648,1197.3002,
749.737,1203.9723,
746.826,1217.4731,
743.916,1211.3212,
741.005,1170.6279,
738.095,1231.5186,
735.184,1172.2494,
732.274,1131.0249,
729.363,1113.7152,
726.452,1114.0821,
723.542,1160.2175,
720.631,1155.1046,
717.721,1169.9354,
714.810,1176.6591,
711.899,1169.5718,
708.989,1181.6757,
706.078,1206.5904,
703.168,1192.7117,
700.257,1185.526,
697.347,1179.1863,
694.436,1127.8193,
691.525,1167.2057,
688.615,1183.9258,
685.704,1165.4385,
682.794,1143.1754,
679.883,1172.4801,
676.973,1210.9459,
674.062,1194.5029,
671.151,1189.5166,
668.241,1192.6496,
665.330,1166.7122,
662.420,1165.9135,
659.509,1177.1788,
656.598,1199.7617,
653.688,1222.1303,
650.777,1226.507,
647.867,1219.34,
644.956,1201.0329,
642.046,1184.531,
639.135,1168.4137,
636.224,1140.8534,
633.314,1161.4958,
630.403,1175.6182,
627.493,1190.1996,
624.582,1207.2814,
621.672,1223.1213,
618.761,1235.909,
615.850,1210.5476,
612.940,1208.6082,
610.029,1246.8043,
607.119,1223.1154,
604.208,1229.9802,
601.297,1220.29,
598.387,1218.2153,
595.476,1244.6702,
592.566,1222.6323,
589.655,1207.088,
586.745,1196.4103,
583.834,1194.9221,
580.923,1209.7026,
578.013,1201.8553,
575.102,1209.501,
572.192,1206.0315,
569.281,1201.7942,
566.371,1285.5349,
563.460,1245.0727,
560.549,1224.75,
557.639,1225.8243,
554.728,1229.6862,
551.818,1244.5122,
548.907,1236.7806,
545.996,1228.1948,
543.086,1226.5888,
540.175,1230.482,
537.265,1209.7459,
534.354,1215.2956,
531.444,1233.7658,
528.533,1248.3503,
525.622,1270.8528,
522.712,1270.2892,
519.801,1273.242,
516.891,1285.4716,
513.980,1293.9888,
511.070,1277.1413,
508.159,1296.0162,
505.248,1323.7486,
502.338,1322.0829,
499.427,1367.621,
496.517,1353.7298,
493.606,1352.5935,
490.695,1388.5732,
487.785,1380.1055,
484.874,1367.118,
481.964,1376.5306,
479.053,1393.602,
476.143,1372.099,
473.232,1366.4336,
470.321,1347.7198,
467.411,1322.6587,
464.500,1302.7003,
461.590,1340.2215,
458.679,1376.0636,
455.769,1398.6404,
452.858,1403.3067,
449.947,1408.6543,
447.037,1403.0756,
444.126,1410.2106,
441.216,1435.0415,
438.305,1465.5188,
435.395,1450.0809,
432.484,1439.75,
429.573,1435.49,
426.663,1417.2466,
423.752,1353.6797,
420.842,1317.1596,
417.931,1302.087,
415.020,1289.1949,
412.110,1350.9371,
409.199,1407.0018,
406.289,1448.1455,
403.378,1467.7602,
400.468,1470.7842,
397.557,1458.3821,
394.646,1464.3348,
391.736,1513.8325,
388.825,1485.1717,
385.915,1464.5095,
383.004,1476.0224,
380.094,1530.2912,
377.183,1501.6971,
374.272,1493.2072,
371.362,1507.4664,
368.451,1543.753,
365.541,1560.2648,
362.630,1545.6316,
359.719,1535.6694,
356.809,1550.0219,
353.898,1554.5146,
350.988,1550.8676,
348.077,1560.3992,
345.167,1591.9715,
342.256,1556.8592,
339.345,1556.3158,
336.435,1562.5293,
333.524,1557.6895,
330.614,1587.4957,
327.703,1593.6696,
324.793,1591.5234,
321.882,1593.6905,
318.971,1569.1569,
316.061,1598.3502,
313.150,1621.5834,
310.240,1569.6353,
307.329,1636.3551,
304.418,1647.7916,
301.508,1631.5069,
298.597,1641.8728,
295.687,1642.75,
292.776,1659.4168,
289.866,1694.1154,
286.955,1748.0424,
284.044,1740.57,
281.134,1727.3065,
278.223,1725.2468,
275.313,1762.8264,
272.402,1748.6757,
269.492,1731.4826,
266.581,1732.5336,
263.670,1785.4666,
260.760,1829.4811,
257.849,1853.697,
254.939,1847.8259,
252.028,1831.1016,
249.117,1825.6637,
246.207,1836.5994,
243.296,1874.6653,
240.386,1857.2013,
237.475,1824.6197,
234.565,1797.7671,
231.654,1842.3205,
228.743,1832.1875,
225.833,1810.1276,
222.922,1792.9878,
220.012,1798.0877,
217.101,1799.75,
214.191,1801.2799,
211.280,1806.3722,
208.369,1830.9713,
205.459,1816.7987,
202.548,1771.7333,
199.638,1736.9021,
196.727,1808.1154,
193.816,1851.6019,
190.906,1817.785,
187.995,1790.2721,
185.085,1819.5242,
182.174,1869.9977,
179.264,1896.74,
176.353,1898.4684,
173.442,1895.5747,
170.532,1889.9859,
167.621,1874.8454,
164.711,1810.3097,
161.800,1738.7922,
158.890,1689.131,
155.979,1581.3044,
153.068,1483.9136,
150.158,1376.4494,
147.247,1168.9612,
144.337,964.38044,
141.426,767.56193,
138.516,581.8871,
135.605,408.42794,
132.694,272.90628,
129.784,174.1579,
126.873,119.80803,
123.963,82.003704,
121.052,56.650794,
118.141,43.800558,
115.231,34.512585,
112.320,26.937277,
109.410,21.886355,
106.499,22.59851,
103.589,17.70771,
100.678,14.564865,
97.767,16.697678,
94.857,16.057011,
91.946,16.556222,
89.036,16.395225,
86.125,7.8847618,
83.215,3.6263186,
80.304,3.4260288,
77.393,8.3832184,
74.483,11.37054,
71.572,10.938239,
68.662,7.6807325,
65.751,6.9742814,
62.840,7.231702,
59.930,7.0008552,
57.019,4.1805273,
54.109,6.1386434,
51.198,7.75,
48.288,7.7273502,
45.377,4.913838,
42.466,4.1622193,
39.556,4.5197628,
36.645,3.1153824,
33.735,5.8654908,
30.824,9.1917739,
27.914,10.594124,
25.003,2.6557128,
22.092,1.3019501,
19.182,9.5051345,
16.271,32.588309,
13.361,102.86141,
10.450,222.80693,
7.539,432.30154,
4.629,578.65585,
1.718,547.36443,
-1.192,164.63208,
-4.103,54.983051,
-7.013,11.189664,
-9.924,0.75,
