,PL4073~1,
Wavenumbers [1/cm],Intensity,
3014.167,-8.375,
3011.256,1.7749248,
3008.346,102.72054,
3005.435,131.47306,
3002.525,132.69994,
2999.614,118.77304,
2996.704,122.57242,
2993.793,126.24424,
2990.882,130.625,
2987.972,136.65022,
2985.061,144.72845,
2982.151,145.10231,
2979.240,158.95578,
2976.329,162.85725,
2973.419,171.48688,
2970.508,166.87495,
2967.598,179.33825,
2964.687,173.14742,
2961.777,186.21488,
2958.866,176.29959,
2955.955,186.11391,
2953.045,190.74358,
2950.134,205.23142,
2947.224,200.10897,
2944.313,213.47899,
2941.403,218.31569,
2938.492,206.06132,
2935.581,214.55505,
2932.671,210.82673,
2929.760,209.46729,
2926.850,210.10244,
2923.939,219.5082,
2921.028,233.28407,
2918.118,237.9046,
2915.207,231.68193,
2912.297,225.64193,
2909.386,233.19435,
2906.476,248.03508,
2903.565,246.85167,
2900.654,224.67254,
2897.744,213.76329,
2894.833,220.50137,
2891.923,206.516,
2889.012,221.41113,
2886.102,226.93988,
2883.191,210.63255,
2880.280,159.50059,
2877.370,66.200805,
2874.459,58.625,
2871.549,99.362346,
2868.638,185.99403,
2865.727,228.4442,
2862.817,216.30951,
2859.906,233.47399,
2856.996,251.14538,
2854.085,245.74475,
2851.175,238.86592,
2848.264,250.41417,
2845.353,253.17209,
2842.443,234.62152,
2839.532,245.38615,
2836.622,238.01823,
2833.711,238.83223,
2830.801,250.71838,
2827.890,242.96068,
2824.979,270.03289,
2822.069,244.81833,
2819.158,258.58457,
2816.248,256.61342,
2813.337,260.92379,
2810.427,248.58092,
2807.516,247.09984,
2804.605,260.21635,
2801.695,261.45395,
2798.784,257.14246,
2795.874,258.47459,
2792.963,269.48223,
2790.052,246.63036,
2787.142,263.13812,
2784.231,257.20575,
2781.321,253.61924,
2778.410,245.26458,
2775.500,258.45431,
2772.589,252.54854,
2769.678,266.58742,
2766.768,253.52206,
2763.857,254.83695,
2760.947,269.64391,
2758.036,269.23644,
2755.126,264.38568,
2752.215,266.02953,
2749.304,259.39119,
2746.394,264.83669,
2743.483,262.32501,
2740.573,254.30197,
2737.662,259.625,
2734.751,265.76568,
2731.841,275.97665,
2728.930,280.45987,
2726.020,269.85475,
2723.109,281.83108,
2720.199,274.27186,
2717.288,284.78194,
2714.377,297.72074,
2711.467,288.85467,
2708.556,286.83763,
2705.646,289.93485,
2702.735,308.9291,
2699.825,284.04865,
2696.914,279.52953,
2694.003,315.88191,
2691.093,303.78507,
2688.182,301.89908,
2685.272,318.72174,
2682.361,284.26583,
2679.450,299.91718,
2676.540,282.97051,
2673.629,295.9748,
2670.719,295.04829,
2667.808,297.67364,
2664.898,304.66391,
2661.987,310.45839,
2659.076,314.37069,
2656.166,293.93231,
2653.255,308.47534,
2650.345,287.53607,
2647.434,319.625,
2644.524,314.2197,
2641.613,312.48232,
2638.702,300.86172,
2635.792,311.40765,
2632.881,306.97608,
2629.971,312.49749,
2627.060,318.12469,
2624.149,326.13749,
2621.239,334.87945,
2618.328,325.68468,
2615.418,343.32045,
2612.507,324.41949,
2609.597,333.33957,
2606.686,320.98846,
2603.775,324.2242,
2600.865,328.50557,
2597.954,334.85837,
2595.044,328.21491,
2592.133,341.95617,
2589.223,352.9987,
2586.312,353.84608,
2583.401,348.91327,
2580.491,348.49995,
2577.580,347.6283,
2574.670,351.28542,
2571.759,347.91781,
2568.848,351.5035,
2565.938,356.33931,
2563.027,355.45453,
2560.117,363.70912,
2557.206,353.96818,
2554.296,339.371,
2551.385,360.07107,
2548.474,371.03244,
2545.564,382.27679,
2542.653,370.25587,
2539.743,378.21742,
2536.832,362.31845,
2533.922,362.87731,
2531.011,378.625,
2528.100,376.49259,
2525.190,374.625,
2522.279,356.89125,
2519.369,377.7951,
2516.458,365.5131,
2513.548,373.52488,
2510.637,379.31759,
2507.726,368.6919,
2504.816,368.00156,
2501.905,370.32073,
2498.995,365.17769,
2496.084,384.71905,
2493.173,381.91474,
2490.263,384.63629,
2487.352,380.83367,
2484.442,387.04898,
2481.531,404.31635,
2478.621,422.7672,
2475.710,385.77069,
2472.799,408.57114,
2469.889,416.26211,
2466.978,414.51157,
2464.068,425.20175,
2461.157,401.8175,
2458.247,396.65434,
2455.336,403.79332,
2452.425,395.57781,
2449.515,434.80378,
2446.604,416.03513,
2443.694,415.71792,
2440.783,424.96059,
2437.872,434.26035,
2434.962,419.37155,
2432.051,411.93995,
2429.141,428.87782,
2426.230,438.23385,
2423.320,447.89665,
2420.409,435.59942,
2417.498,439.00141,
2414.588,447.07746,
2411.677,437.73257,
2408.767,437.58957,
2405.856,427.68691,
2402.946,430.73224,
2400.035,430.82688,
2397.124,474.94052,
2394.214,450.91981,
2391.303,432.37635,
2388.393,435.625,
2385.482,426.06562,
2382.571,432.80234,
2379.661,440.15968,
2376.750,462.51907,
2373.840,448.93757,
2370.929,455.50587,
2368.019,462.7814,
2365.108,461.69568,
2362.197,462.18121,
2359.287,465.43168,
2356.376,465.62324,
2353.466,473.83734,
2350.555,470.625,
2347.645,480.09783,
2344.734,486.625,
2341.823,486.625,
2338.913,482.38171,
2336.002,479.59148,
2333.092,471.108,
2330.181,489.295,
2327.270,492.01004,
2324.360,486.50705,
2321.449,496.36309,
2318.539,496.22134,
2315.628,499.92756,
2312.718,498.74174,
2309.807,500.28343,
2306.896,501.16804,
2303.986,500.22225,
2301.075,496.13557,
2298.165,501.24027,
2295.254,507.45266,
2292.344,511.20594,
2289.433,501.94545,
2286.522,516.08022,
2283.612,514.68365,
2280.701,509.22141,
2277.791,514.66882,
2274.880,564.05299,
2271.969,557.88837,
2269.059,540.59775,
2266.148,538.0841,
2263.238,559.3161,
2260.327,564.90063,
2257.417,540.67611,
2254.506,546.92988,
2251.595,561.76681,
2248.685,559.67886,
2245.774,559.52608,
2242.864,562.97663,
2239.953,556.81115,
2237.043,559.05287,
2234.132,546.72629,
2231.221,571.78533,
2228.311,554.65983,
2225.400,593.79387,
2222.490,595.54022,
2219.579,579.33452,
2216.669,577.64885,
2213.758,597.41196,
2210.847,596.92225,
2207.937,607.05495,
2205.026,610.51363,
2202.116,616.31396,
2199.205,611.38759,
2196.294,615.24498,
2193.384,629.57202,
2190.473,636.19894,
2187.563,648.58633,
2184.652,644.54091,
2181.742,671.94384,
2178.831,685.94407,
2175.920,689.95651,
2173.010,695.25028,
2170.099,737.35369,
2167.189,758.78286,
2164.278,786.05415,
2161.368,826.19539,
2158.457,865.41734,
2155.546,910.92696,
2152.636,936.68349,
2149.725,985.56456,
2146.815,990.75848,
2143.904,1043.8369,
2140.993,1077.5138,
2138.083,1091.4366,
2135.172,1092.0872,
2132.262,1113.5238,
2129.351,1116.8284,
2126.441,1089.0036,
2123.530,1053.6699,
2120.619,1048.9556,
2117.709,979.8585,
2114.798,928.52489,
2111.888,873.67671,
2108.977,837.89652,
2106.067,808.28989,
2103.156,759.03242,
2100.245,763.60555,
2097.335,731.17998,
2094.424,714.16256,
2091.514,694.69759,
2088.603,700.42222,
2085.692,689.25706,
2082.782,690.64099,
2079.871,691.51765,
2076.961,707.4626,
2074.050,694.33409,
2071.140,684.76324,
2068.229,667.61848,
2065.318,671.03199,
2062.408,669.04179,
2059.497,649.97615,
2056.587,668.38025,
2053.676,664.65943,
2050.766,656.0099,
2047.855,673.02694,
2044.944,657.67947,
2042.034,684.93706,
2039.123,674.10648,
2036.213,677.5694,
2033.302,671.77705,
2030.391,671.54045,
2027.481,674.32006,
2024.570,660.61114,
2021.660,697.14157,
2018.749,679.43505,
2015.839,674.89403,
2012.928,684.67031,
2010.017,704.8074,
2007.107,688.11285,
2004.196,697.42266,
2001.286,715.66739,
1998.375,688.31101,
1995.465,694.29018,
1992.554,682.09574,
1989.643,711.4844,
1986.733,688.23026,
1983.822,711.40565,
1980.912,684.17982,
1978.001,698.99791,
1975.090,691.64789,
1972.180,686.96941,
1969.269,690.49281,
1966.359,700.00351,
1963.448,700.51139,
1960.538,697.81349,
1957.627,719.0244,
1954.716,686.65917,
1951.806,694.76116,
1948.895,726.06037,
1945.985,661.85049,
1943.074,673.07508,
1940.164,683.22101,
1937.253,687.55075,
1934.342,691.98383,
1931.432,677.35686,
1928.521,694.21049,
1925.611,657.21638,
1922.700,698.19129,
1919.790,694.67724,
1916.879,673.01999,
1913.968,689.60287,
1911.058,724.85922,
1908.147,675.87613,
1905.237,707.39708,
1902.326,709.70355,
1899.415,666.40792,
1896.505,674.33612,
1893.594,701.44814,
1890.684,695.23936,
1887.773,696.89229,
1884.863,702.64095,
1881.952,712.20494,
1879.041,694.19976,
1876.131,695.76879,
1873.220,673.21782,
1870.310,690.97474,
1867.399,712.30513,
1864.489,729.39134,
1861.578,720.07582,
1858.667,686.35853,
1855.757,692.81712,
1852.846,707.40447,
1849.936,726.74111,
1847.025,732.3306,
1844.114,748.51211,
1841.204,753.93619,
1838.293,735.12251,
1835.383,742.08999,
1832.472,732.985,
1829.562,736.40104,
1826.651,755.93299,
1823.740,720.85864,
1820.830,736.49141,
1817.919,737.48124,
1815.009,727.06266,
1812.098,750.75884,
1809.188,738.61728,
1806.277,750.33729,
1803.366,761.625,
1800.456,761.73491,
1797.545,766.11424,
1794.635,784.1749,
1791.724,744.75116,
1788.813,774.63657,
1785.903,802.41769,
1782.992,764.3582,
1780.082,725.18965,
1777.171,703.29042,
1774.261,697.89499,
1771.350,732.24252,
1768.439,790.88091,
1765.529,784.34996,
1762.618,788.95004,
1759.708,811.15762,
1756.797,826.07197,
1753.887,816.18768,
1750.976,797.26636,
1748.065,825.73252,
1745.155,822.27032,
1742.244,823.52987,
1739.334,847.05794,
1736.423,858.15771,
1733.512,850.16562,
1730.602,874.30163,
1727.691,875.18073,
1724.781,856.10689,
1721.870,870.9394,
1718.960,882.20286,
1716.049,902.92142,
1713.138,926.2899,
1710.228,854.77946,
1707.317,894.04557,
1704.407,885.35225,
1701.496,926.46775,
1698.586,906.6014,
1695.675,899.94646,
1692.764,943.1742,
1689.854,938.92815,
1686.943,951.18657,
1684.033,935.04722,
1681.122,979.84335,
1678.211,989.53934,
1675.301,1026.5109,
1672.390,1028.6788,
1669.480,1046.3763,
1666.569,1016.1836,
1663.659,1059.478,
1660.748,1051.2999,
1657.837,1085.6687,
1654.927,1087.8359,
1652.016,1097.4269,
1649.106,1130.6042,
1646.195,1170.1285,
1643.285,1190.6478,
1640.374,1192.2731,
1637.463,1223.3456,
1634.553,1262.9797,
1631.642,1287.1896,
1628.732,1338.6961,
1625.821,1350.6839,
1622.911,1440.1178,
1620.000,1525.5415,
1617.089,1626.5951,
1614.179,1693.7355,
1611.268,1787.0931,
1608.358,1856.3942,
1605.447,1973.7116,
1602.536,2012.3092,
1599.626,1994.3865,
1596.715,2007.1466,
1593.805,1973.7461,
1590.894,1992.5224,
1587.984,1971.3744,
1585.073,1965.9234,
1582.162,1934.7342,
1579.252,1896.7113,
1576.341,1849.5718,
1573.431,1813.7803,
1570.520,1798.9812,
1567.610,1789.919,
1564.699,1760.7989,
1561.788,1783.7233,
1558.878,1766.9007,
1555.967,1759.2316,
1553.057,1706.4876,
1550.146,1674.625,
1547.235,1669.3121,
1544.325,1657.7076,
1541.414,1621.9219,
1538.504,1589.9456,
1535.593,1545.1588,
1532.683,1526.2165,
1529.772,1512.8131,
1526.861,1478.1205,
1523.951,1479.5163,
1521.040,1437.8844,
1518.130,1414.8645,
1515.219,1395.5035,
1512.309,1436.9628,
1509.398,1398.6023,
1506.487,1386.4507,
1503.577,1463.5784,
1500.666,1364.9608,
1497.756,1369.4557,
1494.845,1391.1848,
1491.934,1380.6439,
1489.024,1386.4189,
1486.113,1388.4794,
1483.203,1376.1907,
1480.292,1332.1994,
1477.382,1295.5281,
1474.471,1308.5769,
1471.560,1329.1383,
1468.650,1335.9915,
1465.739,1319.9723,
1462.829,1327.9327,
1459.918,1302.0556,
1457.008,1275.1789,
1454.097,1262.9116,
1451.186,1245.0409,
1448.276,1263.3355,
1445.365,1283.016,
1442.455,1270.4645,
1439.544,1288.5487,
1436.633,1264.8196,
1433.723,1285.2481,
1430.812,1289.7728,
1427.902,1292.324,
1424.991,1321.7047,
1422.081,1329.9648,
1419.170,1286.5579,
1416.259,1273.1445,
1413.349,1211.961,
1410.438,1245.8083,
1407.528,1283.4311,
1404.617,1241.132,
1401.707,1226.8226,
1398.796,1271.1144,
1395.885,1286.3965,
1392.975,1280.7297,
1390.064,1282.8461,
1387.154,1222.9142,
1384.243,1207.7993,
1381.332,1260.8303,
1378.422,1294.7216,
1375.511,1296.5952,
1372.601,1339.0172,
1369.690,1377.7711,
1366.780,1390.7533,
1363.869,1436.9401,
1360.958,1466.8293,
1358.048,1489.6444,
1355.137,1511.1387,
1352.227,1557.684,
1349.316,1591.1266,
1346.406,1584.5237,
1343.495,1599.3968,
1340.584,1589.1958,
1337.674,1629.9114,
1334.763,1642.2128,
1331.853,1683.9382,
1328.942,1737.2139,
1326.032,1675.1129,
1323.121,1746.3178,
1320.210,1772.6295,
1317.300,1796.5952,
1314.389,1821.3057,
1311.479,1875.246,
1308.568,1933.0331,
1305.657,1951.3493,
1302.747,2035.2484,
1299.836,2118.0992,
1296.926,2129.736,
1294.015,2153.6384,
1291.105,2178.3996,
1288.194,2247.1219,
1285.283,2267.205,
1282.373,2317.3514,
1279.462,2371.4284,
1276.552,2400.5227,
1273.641,2438.4751,
1270.731,2493.5638,
1267.820,2502.0303,
1264.909,2463.0757,
1261.999,2473.5584,
1259.088,2471.7342,
1256.178,2401.3956,
1253.267,2362.7732,
1250.356,2302.4765,
1247.446,2269.4108,
1244.535,2245.2902,
1241.625,2179.7955,
1238.714,2094.4342,
1235.804,2040.4941,
1232.893,1972.0056,
1229.982,1944.9998,
1227.072,1897.0183,
1224.161,1864.2074,
1221.251,1805.7648,
1218.340,1782.4425,
1215.430,1774.1196,
1212.519,1751.5146,
1209.608,1699.5031,
1206.698,1656.1146,
1203.787,1689.4692,
1200.877,1691.2996,
1197.966,1734.4592,
1195.055,1775.8744,
1192.145,1822.4462,
1189.234,1860.9279,
1186.324,1909.5374,
1183.413,1914.7773,
1180.503,1899.4642,
1177.592,1920.7258,
1174.681,1886.6421,
1171.771,1831.5014,
1168.860,1826.1428,
1165.950,1788.5357,
1163.039,1815.2435,
1160.129,1819.4178,
1157.218,1797.6837,
1154.307,1771.1232,
1151.397,1762.0522,
1148.486,1787.7287,
1145.576,1764.9311,
1142.665,1748.9487,
1139.754,1774.4747,
1136.844,1751.9126,
1133.933,1723.7893,
1131.023,1745.1996,
1128.112,1779.1254,
1125.202,1769.5526,
1122.291,1761.6466,
1119.380,1817.573,
1116.470,1812.2779,
1113.559,1841.0085,
1110.649,1833.2539,
1107.738,1824.0892,
1104.828,1812.8064,
1101.917,1775.1388,
1099.006,1732.4907,
1096.096,1780.2385,
1093.185,1724.9244,
1090.275,1783.7481,
1087.364,1781.4719,
1084.453,1772.5001,
1081.543,1789.1538,
1078.632,1797.8356,
1075.722,1779.8489,
1072.811,1829.8947,
1069.901,1791.4712,
1066.990,1837.1249,
1064.079,1849.986,
1061.169,1873.2694,
1058.258,1885.2727,
1055.348,1876.625,
1052.437,1876.953,
1049.527,1877.8865,
1046.616,1858.7723,
1043.705,1888.9971,
1040.795,1882.0239,
1037.884,1863.5217,
1034.974,1859.8389,
1032.063,1869.5788,
1029.153,1871.3787,
1026.242,1860.9992,
1023.331,1898.9559,
1020.421,1925.4467,
1017.510,1952.6744,
1014.600,1984.1193,
1011.689,2016.0323,
1008.778,2041.2377,
1005.868,2050.5323,
1002.957,2040.2081,
1000.047,2123.801,
997.136,2200.8491,
994.226,2228.6097,
991.315,2205.0532,
988.404,2160.6794,
985.494,2150.7209,
982.583,2155.0037,
979.673,2145.3819,
976.762,2147.496,
973.852,2134.8286,
970.941,2116.2924,
968.030,2128.6367,
965.120,2162.5928,
962.209,2154.9199,
959.299,2179.122,
956.388,2177.8658,
953.477,2178.4897,
950.567,2183.2137,
947.656,2160.3016,
944.746,2188.3369,
941.835,2192.8643,
938.925,2200.8636,
936.014,2191.4735,
933.103,2160.6172,
930.193,2124.6286,
927.282,2110.5169,
924.372,2071.619,
921.461,2056.3154,
918.551,2037.5207,
915.640,2001.5533,
912.729,1964.9414,
909.819,1964.2973,
906.908,2014.8428,
903.998,1961.9495,
901.087,1992.1804,
898.176,2012.3759,
895.266,2011.7034,
892.355,2026.7086,
889.445,2048.5295,
886.534,2068.6619,
883.624,2098.1926,
880.713,2105.5214,
877.802,2092.2876,
874.892,2057.8726,
871.981,1973.4413,
869.071,1923.3165,
866.160,1931.874,
863.250,1973.6982,
860.339,2035.7688,
857.428,2089.5206,
854.518,2077.6642,
851.607,1975.3196,
848.697,1987.2011,
845.786,1994.9164,
842.875,2021.0844,
839.965,2082.6785,
837.054,2096.8018,
834.144,2112.5481,
831.233,2100.9594,
828.323,2096.5924,
825.412,2094.7956,
822.501,2078.3695,
819.591,2043.6608,
816.680,2073.0738,
813.770,2064.3359,
810.859,2032.063,
807.949,2008.4836,
805.038,2014.4436,
802.127,1979.8722,
799.217,1943.0824,
796.306,1931.0574,
793.396,1932.9609,
790.485,1928.6229,
787.574,1898.2202,
784.664,1887.5588,
781.753,1913.1353,
778.843,1961.4208,
775.932,1982.1932,
773.022,1954.2185,
770.111,1996.7325,
767.200,1967.6499,
764.290,1955.8914,
761.379,1957.7759,
758.469,1960.3231,
755.558,1950.4337,
752.648,1910.5181,
749.737,1921.5559,
746.826,1914.3748,
743.916,1899.0926,
741.005,1908.6075,
738.095,1890.7462,
735.184,1806.3931,
732.274,1735.7604,
729.363,1735.9205,
726.452,1811.8109,
723.542,1857.137,
720.631,1866.5059,
717.721,1878.9362,
714.810,1918.9827,
711.899,1956.3873,
708.989,1891.0264,
706.078,1901.8432,
703.168,1893.695,
700.257,1897.7644,
697.347,1908.8429,
694.436,1890.2502,
691.525,1839.6105,
688.615,1855.6682,
685.704,1901.4119,
682.794,1936.4123,
679.883,1922.2646,
676.973,1914.2509,
674.062,1938.1483,
671.151,1956.1316,
668.241,1946.8066,
665.330,1902.209,
662.420,1893.423,
659.509,1913.8476,
656.598,1937.4437,
653.688,1940.3529,
650.777,1903.7051,
647.867,1935.5582,
644.956,1907.9526,
642.046,1861.3345,
639.135,1832.3325,
636.224,1857.8717,
633.314,1907.0959,
630.403,1955.0976,
627.493,1960.4213,
624.582,1931.9204,
621.672,1942.2164,
618.761,1947.9446,
615.850,1952.3799,
612.940,1953.9419,
610.029,1955.1239,
607.119,1970.1269,
604.208,1960.2648,
601.297,1972.0761,
598.387,1984.3255,
595.476,1971.2481,
592.566,1946.0619,
589.655,1952.6391,
586.745,1943.8701,
583.834,1932.9692,
580.923,1962.4639,
578.013,1935.7829,
575.102,1934.9345,
572.192,1955.3455,
569.281,1993.3264,
566.371,2047.3274,
563.460,2023.7008,
560.549,2006.2649,
557.639,1996.5966,
554.728,1985.7728,
551.818,1988.1138,
548.907,2009.345,
545.996,2017.1819,
543.086,2011.1414,
540.175,2022.8211,
537.265,2011.3123,
534.354,2002.1098,
531.444,2003.4768,
528.533,2021.053,
525.622,2055.1947,
522.712,2068.0858,
519.801,2073.9163,
516.891,2085.4502,
513.980,2124.165,
511.070,2098.7468,
508.159,2119.0995,
505.248,2161.3848,
502.338,2182.5287,
499.427,2213.402,
496.517,2221.0593,
493.606,2250.5728,
490.695,2305.6666,
487.785,2277.1843,
484.874,2264.8703,
481.964,2269.3458,
479.053,2268.0195,
476.143,2211.1903,
473.232,2245.034,
470.321,2248.9203,
467.411,2235.0924,
464.500,2228.4201,
461.590,2259.8155,
458.679,2296.69,
455.769,2320.5702,
452.858,2322.5455,
449.947,2321.7815,
447.037,2331.3332,
444.126,2336.1462,
441.216,2338.1228,
438.305,2364.0285,
435.395,2341.3995,
432.484,2353.0469,
429.573,2397.3226,
426.663,2434.5695,
423.752,2289.0747,
420.842,2183.9799,
417.931,2138.4261,
415.020,2148.2847,
412.110,2300.0689,
409.199,2407.4587,
406.289,2453.0157,
403.378,2426.7864,
400.468,2474.414,
397.557,2478.8279,
394.646,2488.2872,
391.736,2540.5868,
388.825,2508.1548,
385.915,2507.1401,
383.004,2518.6226,
380.094,2529.3928,
377.183,2544.4423,
374.272,2576.8496,
371.362,2602.9796,
368.451,2608.9897,
365.541,2614.994,
362.630,2640.6596,
359.719,2650.5621,
356.809,2627.6671,
353.898,2644.8895,
350.988,2646.3701,
348.077,2634.0415,
345.167,2613.3874,
342.256,2667.9234,
339.345,2678.3107,
336.435,2674.1802,
333.524,2676.0948,
330.614,2690.9979,
327.703,2699.2188,
324.793,2703.6562,
321.882,2706.6719,
318.971,2726.0014,
316.061,2743.3679,
313.150,2746.3107,
310.240,2719.5946,
307.329,2777.2252,
304.418,2787.4024,
301.508,2768.0804,
298.597,2754.7529,
295.687,2757.0112,
292.776,2769.4584,
289.866,2812.0265,
286.955,2942.0422,
284.044,2953.035,
281.134,2977.1372,
278.223,3028.9662,
275.313,3051.8087,
272.402,3044.426,
269.492,3053.6856,
266.581,3094.8321,
263.670,3125.7097,
260.760,3157.6099,
257.849,3189.4033,
254.939,3220.2264,
252.028,3229.3111,
249.117,3228.9704,
246.207,3232.7697,
243.296,3264.2472,
240.386,3235.6284,
237.475,3222.8511,
234.565,3228.0145,
231.654,3217.7892,
228.743,3168.4448,
225.833,3140.6376,
222.922,3157.8141,
220.012,3183.3135,
217.101,3205.8558,
214.191,3206.8557,
211.280,3161.0255,
208.369,3197.9938,
205.459,3205.6475,
202.548,3185.8701,
199.638,3175.711,
196.727,3208.7742,
193.816,3232.5178,
190.906,3229.0725,
187.995,3270.3419,
185.085,3301.175,
182.174,3313.7485,
179.264,3292.0655,
176.353,3383.1787,
173.442,3426.9236,
170.532,3412.8011,
167.621,3422.8948,
164.711,3313.6791,
161.800,3190.5062,
158.890,3125.7307,
155.979,2977.4661,
153.068,2754.0256,
150.158,2470.1016,
147.247,2161.3821,
144.337,1796.5185,
141.426,1425.0209,
138.516,1068.7259,
135.605,769.41301,
132.694,521.75189,
129.784,328.46521,
126.873,214.75957,
123.963,153.4973,
121.052,109.04409,
118.141,69.779483,
115.231,60.387585,
112.320,53.235913,
109.410,46.852382,
106.499,37.594364,
103.589,32.263473,
100.678,30.983109,
97.767,34.537796,
94.857,29.081088,
91.946,21.384559,
89.036,13.963694,
86.125,16.09131,
83.215,12.908558,
80.304,10.103865,
77.393,11.520205,
74.483,14.900675,
71.572,13.363831,
68.662,7.8328025,
65.751,9.9521557,
62.840,10.625,
59.930,10.250428,
57.019,8.8402636,
54.109,11.013643,
51.198,11.720172,
48.288,9.6080127,
45.377,7.4978785,
42.466,7.4494387,
39.556,8.3947628,
36.645,6.9903824,
33.735,7.1442485,
30.824,6.0787912,
27.914,1.1705645,
25.003,0.0023625246,
22.092,2.531141,
19.182,8.4419371,
16.271,2.846016,
13.361,-0.63937393,
10.450,-25.090864,
7.539,-157.07247,
4.629,-335.42967,
1.718,-486.19746,
-1.192,-537.78616,
-4.103,-345.66708,
-7.013,-150.7941,
-9.924,1.625,
