,PLED81~1,
Raman shift [1/cm],Intensity,
3014.167,4.625,
3011.256,0.57509663,
3008.346,71.143755,
3005.435,89.819349,
3002.525,105.17254,
2999.614,102.52631,
2996.704,107.94356,
2993.793,100.8727,
2990.882,107.70894,
2987.972,128.53419,
2985.061,124.81221,
2982.151,116.20481,
2979.240,125.74001,
2976.329,123.35452,
2973.419,123.73257,
2970.508,137.25829,
2967.598,140.67641,
2964.687,153.50611,
2961.777,146.43698,
2958.866,151.62648,
2955.955,145.07191,
2953.045,147.94494,
2950.134,165.56085,
2947.224,162.65347,
2944.313,161.37785,
2941.403,169.9229,
2938.492,169.71983,
2935.581,152.55505,
2932.671,180.66361,
2929.760,163.46729,
2926.850,175.47537,
2923.939,173.18575,
2921.028,178.33096,
2918.118,184.06581,
2915.207,175.32101,
2912.297,183.54461,
2909.386,184.6323,
2906.476,190.04354,
2903.565,194.36722,
2900.654,189.01327,
2897.744,185.56214,
2894.833,175.26427,
2891.923,178.9776,
2889.012,185.41691,
2886.102,188.24932,
2883.191,193.62217,
2880.280,174.11783,
2877.370,169.28202,
2874.459,161.625,
2871.549,173.50673,
2868.638,173.07862,
2865.727,189.1019,
2862.817,190.88169,
2859.906,191.53668,
2856.996,195.63859,
2854.085,183.82246,
2851.175,197.85999,
2848.264,188.04666,
2845.353,202.47403,
2842.443,192.03127,
2839.532,183.52054,
2836.622,188.92839,
2833.711,191.1509,
2830.801,208.71103,
2827.890,196.85755,
2824.979,191.15515,
2822.069,200.68186,
2819.158,204.10478,
2816.248,192.65974,
2813.337,189.85183,
2810.427,203.57403,
2807.516,199.79063,
2804.605,205.49518,
2801.695,190.67765,
2798.784,200.40323,
2795.874,203.625,
2792.963,194.62479,
2790.052,186.62564,
2787.142,205.75662,
2784.231,205.36724,
2781.321,209.18498,
2778.410,207.18971,
2775.500,199.83949,
2772.589,213.74044,
2769.678,220.19494,
2766.768,204.71041,
2763.857,207.73097,
2760.947,213.12185,
2758.036,210.08358,
2755.126,220.10363,
2752.215,204.05215,
2749.304,215.68793,
2746.394,227.96779,
2743.483,211.725,
2740.573,224.15824,
2737.662,220.17826,
2734.751,229.78988,
2731.841,212.75869,
2728.930,221.58669,
2726.020,234.50231,
2723.109,222.96525,
2720.199,234.84062,
2717.288,231.27463,
2714.377,240.6873,
2711.467,224.55907,
2708.556,243.23132,
2705.646,232.94891,
2702.735,235.64048,
2699.825,246.22316,
2696.914,233.52953,
2694.003,221.47865,
2691.093,249.85725,
2688.182,238.11463,
2685.272,248.58944,
2682.361,236.625,
2679.450,239.45626,
2676.540,230.90954,
2673.629,238.65194,
2670.719,235.61761,
2667.808,245.38182,
2664.898,245.17072,
2661.987,234.15842,
2659.076,242.86207,
2656.166,245.8674,
2653.255,254.99405,
2650.345,239.8083,
2647.434,249.28204,
2644.524,250.64421,
2641.613,255.88207,
2638.702,263.48297,
2635.792,241.09459,
2632.881,251.36877,
2629.971,250.53767,
2627.060,266.29125,
2624.149,270.54375,
2621.239,265.61314,
2618.328,253.15094,
2615.418,284.97045,
2612.507,272.79894,
2609.597,274.98229,
2606.686,268.96236,
2603.775,276.2242,
2600.865,271.33148,
2597.954,255.48745,
2595.044,270.31233,
2592.133,279.68884,
2589.223,287.73342,
2586.312,283.38375,
2583.401,299.38047,
2580.491,295.17308,
2577.580,291.59859,
2574.670,280.32953,
2571.759,288.22089,
2568.848,281.33217,
2565.938,288.57745,
2563.027,273.1364,
2560.117,284.59701,
2557.206,302.04935,
2554.296,290.82637,
2551.385,290.49294,
2548.474,292.47705,
2545.564,285.97321,
2542.653,291.47735,
2539.743,297.13116,
2536.832,290.58388,
2533.922,286.84577,
2531.011,296.22537,
2528.100,303.28359,
2525.190,310.13812,
2522.279,309.625,
2519.369,309.92687,
2516.458,310.625,
2513.548,301.72512,
2510.637,295.80945,
2507.726,301.12315,
2504.816,315.62613,
2501.905,304.77012,
2498.995,297.16247,
2496.084,303.17202,
2493.173,298.17765,
2490.263,306.60241,
2487.352,311.04073,
2484.442,301.61214,
2481.531,312.15159,
2478.621,308.01835,
2475.710,328.602,
2472.799,326.85817,
2469.889,330.625,
2466.978,324.85186,
2464.068,324.54035,
2461.157,320.77997,
2458.247,327.3309,
2455.336,328.30602,
2452.425,326.73349,
2449.515,333.37968,
2446.604,329.15728,
2443.694,327.53208,
2440.783,334.48311,
2437.872,328.39076,
2434.962,346.52362,
2432.051,340.13734,
2429.141,352.4366,
2426.230,348.27691,
2423.320,347.33868,
2420.409,364.30465,
2417.498,344.04353,
2414.588,354.33976,
2411.677,355.87601,
2408.767,355.28937,
2405.856,357.5463,
2402.946,371.61875,
2400.035,351.24001,
2397.124,353.0742,
2394.214,358.247,
2391.303,362.16091,
2388.393,360.38546,
2385.482,385.43533,
2382.571,366.1314,
2379.661,371.06673,
2376.750,382.46737,
2373.840,388.68434,
2370.929,376.77662,
2368.019,374.625,
2365.108,380.55432,
2362.197,386.04142,
2359.287,380.43168,
2356.376,376.63028,
2353.466,401.91447,
2350.555,379.02001,
2347.645,383.76937,
2344.734,379.53282,
2341.823,387.45917,
2338.913,400.33545,
2336.002,401.02933,
2333.092,399.44104,
2330.181,398.60711,
2327.270,412.74492,
2324.360,404.28068,
2321.449,403.38012,
2318.539,403.79316,
2315.628,404.66617,
2312.718,413.39152,
2309.807,383.56248,
2306.896,420.09761,
2303.986,407.01459,
2301.075,415.96538,
2298.165,414.0479,
2295.254,417.49574,
2292.344,411.19753,
2289.433,426.89136,
2286.522,422.45972,
2283.612,440.83547,
2280.701,428.04656,
2277.791,415.1441,
2274.880,413.89681,
2271.969,439.63323,
2269.059,436.82393,
2266.148,439.41131,
2263.238,452.71765,
2260.327,450.0732,
2257.417,442.86222,
2254.506,446.45692,
2251.595,444.34504,
2248.685,448.46343,
2245.774,461.53692,
2242.864,454.17114,
2239.953,453.76971,
2237.043,470.33893,
2234.132,470.23276,
2231.221,473.49321,
2228.311,485.67266,
2225.400,455.07533,
2222.490,474.15276,
2219.579,494.41166,
2216.669,499.64408,
2213.758,498.88644,
2210.847,518.35797,
2207.937,515.91003,
2205.026,537.40284,
2202.116,540.86915,
2199.205,562.637,
2196.294,572.063,
2193.384,594.36104,
2190.473,609.63087,
2187.563,611.73134,
2184.652,636.63724,
2181.742,658.64835,
2178.831,661.83119,
2175.920,669.85998,
2173.010,677.09949,
2170.099,674.625,
2167.189,701.79004,
2164.278,721.54359,
2161.368,712.19539,
2158.457,739.55578,
2155.546,757.15482,
2152.636,759.74735,
2149.725,793.41021,
2146.815,776.45922,
2143.904,822.72166,
2140.993,807.64096,
2138.083,795.93193,
2135.172,825.04523,
2132.262,823.35916,
2129.351,816.625,
2126.441,794.53755,
2123.530,768.10869,
2120.619,719.46,
2117.709,693.82387,
2114.798,670.24415,
2111.888,642.22572,
2108.977,613.90976,
2106.067,613.4504,
2103.156,590.10978,
2100.245,569.60555,
2097.335,539.10667,
2094.424,541.1889,
2091.514,541.27289,
2088.603,551.52361,
2085.692,544.16781,
2082.782,542.57276,
2079.871,529.01707,
2076.961,520.01247,
2074.050,524.17652,
2071.140,548.83236,
2068.229,518.89713,
2065.318,513.88374,
2062.408,520.38293,
2059.497,522.7976,
2056.587,529.93869,
2053.676,520.29266,
2050.766,521.2401,
2047.855,534.11238,
2044.944,518.35416,
2042.034,528.20302,
2039.123,523.96507,
2036.213,534.35393,
2033.302,527.60355,
2030.391,527.72626,
2027.481,545.55175,
2024.570,541.88232,
2021.660,523.68933,
2018.749,513.19486,
2015.839,524.26214,
2012.928,504.0042,
2010.017,509.59894,
2007.107,510.78762,
2004.196,505.01784,
2001.286,490.95717,
1998.375,489.49607,
1995.465,500.27768,
1992.554,493.86037,
1989.643,526.41527,
1986.733,503.76886,
1983.822,493.42116,
1980.912,518.98114,
1978.001,500.35412,
1975.090,494.99295,
1972.180,503.28059,
1969.269,486.17094,
1966.359,490.89545,
1963.448,486.93675,
1960.538,468.82934,
1957.627,492.37425,
1954.716,473.28572,
1951.806,475.37017,
1948.895,486.69185,
1945.985,465.80801,
1943.074,473.28166,
1940.164,489.24013,
1937.253,470.3467,
1934.342,463.04372,
1931.432,466.32532,
1928.521,461.3383,
1925.611,429.83953,
1922.700,446.7424,
1919.790,442.42859,
1916.879,466.67201,
1913.968,464.62992,
1911.058,441.48386,
1908.147,453.3593,
1905.237,449.0441,
1902.326,447.85461,
1899.415,456.89449,
1896.505,419.49243,
1893.594,436.42996,
1890.684,449.20025,
1887.773,432.00443,
1884.863,427.34937,
1881.952,438.48238,
1879.041,435.30361,
1876.131,425.29559,
1873.220,425.36837,
1870.310,435.83574,
1867.399,431.70497,
1864.489,426.07979,
1861.578,416.54778,
1858.667,456.53217,
1855.757,461.04863,
1852.846,439.65063,
1849.936,463.39176,
1847.025,479.39143,
1844.114,474.44148,
1841.204,466.89773,
1838.293,458.61502,
1835.383,482.65948,
1832.472,475.68239,
1829.562,478.51146,
1826.651,480.41967,
1823.740,493.36833,
1820.830,494.22338,
1817.919,482.85248,
1815.009,486.61864,
1812.098,479.54626,
1809.188,474.87307,
1806.277,493.20449,
1803.366,465.97436,
1800.456,487.61423,
1797.545,504.25622,
1794.635,500.625,
1791.724,502.60556,
1788.813,514.42731,
1785.903,525.37691,
1782.992,534.94243,
1780.082,510.7543,
1777.171,484.96548,
1774.261,503.59484,
1771.350,495.1655,
1768.439,510.43446,
1765.529,509.16849,
1762.618,495.17562,
1759.708,501.79899,
1756.797,512.85227,
1753.887,542.13957,
1750.976,545.52487,
1748.065,524.40841,
1745.155,526.28946,
1742.244,555.78619,
1739.334,530.96619,
1736.423,563.08288,
1733.512,545.05985,
1730.602,557.55361,
1727.691,579.67523,
1724.781,564.74716,
1721.870,595.03473,
1718.960,568.26902,
1716.049,557.2691,
1713.138,583.98487,
1710.228,587.7547,
1707.317,556.665,
1704.407,539.14904,
1701.496,595.96406,
1698.586,597.92906,
1695.675,571.42516,
1692.764,604.65371,
1689.854,570.27065,
1686.943,610.1748,
1684.033,600.8982,
1681.122,620.28515,
1678.211,652.32044,
1675.301,641.65892,
1672.390,670.78351,
1669.480,723.48863,
1666.569,706.73926,
1663.659,716.27829,
1660.748,755.72141,
1657.837,761.01866,
1654.927,778.50785,
1652.016,773.5521,
1649.106,771.26151,
1646.195,798.20744,
1643.285,861.12109,
1640.374,798.0675,
1637.463,866.84999,
1634.553,933.74322,
1631.642,941.77701,
1628.732,956.17607,
1625.821,1048.6728,
1622.911,1121.2136,
1620.000,1168.0329,
1617.089,1280.3563,
1614.179,1353.5663,
1611.268,1438.4277,
1608.358,1483.5648,
1605.447,1494.1108,
1602.536,1601.792,
1599.626,1607.7851,
1596.715,1576.7666,
1593.805,1555.7384,
1590.894,1565.9544,
1587.984,1592.7417,
1585.073,1509.8417,
1582.162,1485.4413,
1579.252,1440.255,
1576.341,1437.8346,
1573.431,1432.5764,
1570.520,1394.6993,
1567.610,1370.213,
1564.699,1367.0751,
1561.788,1345.7942,
1558.878,1290.8799,
1555.967,1253.1084,
1553.057,1226.1252,
1550.146,1188.5851,
1547.235,1149.1926,
1544.325,1138.7148,
1541.414,1126.4233,
1538.504,1114.1664,
1535.593,1106.8605,
1532.683,1076.0335,
1529.772,1068.7372,
1526.861,1096.246,
1523.951,1100.5068,
1521.040,1084.5796,
1518.130,1061.6756,
1515.219,1081.8242,
1512.309,1097.7421,
1509.398,1070.87,
1506.487,1100.7754,
1503.577,1024.8078,
1500.666,984.03401,
1497.756,1064.9468,
1494.845,1043.7045,
1491.934,1021.6533,
1489.024,1030.3158,
1486.113,980.55536,
1483.203,1007.7109,
1480.292,992.95775,
1477.382,956.48682,
1474.471,967.80947,
1471.560,947.50102,
1468.650,912.34387,
1465.739,949.30225,
1462.829,979.01227,
1459.918,967.36522,
1457.008,967.79437,
1454.097,952.28199,
1451.186,907.06988,
1448.276,894.74232,
1445.365,886.76402,
1442.455,824.22582,
1439.544,785.56053,
1436.633,807.51874,
1433.723,822.52452,
1430.812,767.98924,
1427.902,796.47496,
1424.991,748.13908,
1422.081,710.84339,
1419.170,674.79071,
1416.259,675.29544,
1413.349,685.68789,
1410.438,683.72654,
1407.528,679.05003,
1404.617,665.88244,
1401.707,693.13101,
1398.796,697.71948,
1395.885,710.61749,
1392.975,752.14502,
1390.064,678.65911,
1387.154,571.73607,
1384.243,512.38228,
1381.332,482.60494,
1378.422,526.53771,
1375.511,602.41697,
1372.601,697.62517,
1369.690,814.49225,
1366.780,807.27987,
1363.869,820.96636,
1360.958,849.75192,
1358.048,846.97883,
1355.137,912.27213,
1352.227,966.81446,
1349.316,970.67762,
1346.406,998.0705,
1343.495,1003.5867,
1340.584,1038.0535,
1337.674,1042.5882,
1334.763,1028.7654,
1331.853,1111.289,
1328.942,1110.1777,
1326.032,1134.0936,
1323.121,1158.8901,
1320.210,1176.2797,
1317.300,1230.6143,
1314.389,1260.5138,
1311.479,1296.8189,
1308.568,1354.3721,
1305.657,1390.754,
1302.747,1458.636,
1299.836,1466.1877,
1296.926,1496.7098,
1294.015,1606.1093,
1291.105,1552.5092,
1288.194,1613.3169,
1285.283,1670.0052,
1282.373,1711.5702,
1279.462,1762.8596,
1276.552,1791.6959,
1273.641,1784.1717,
1270.731,1783.622,
1267.820,1797.238,
1264.909,1759.801,
1261.999,1775.5251,
1259.088,1772.7888,
1256.178,1727.2328,
1253.267,1692.006,
1250.356,1641.6353,
1247.446,1604.6099,
1244.535,1579.2456,
1241.625,1544.2288,
1238.714,1515.4273,
1235.804,1505.4601,
1232.893,1448.8731,
1229.982,1456.4291,
1227.072,1421.1219,
1224.161,1355.5872,
1221.251,1327.9903,
1218.340,1288.291,
1215.430,1267.9734,
1212.519,1253.9477,
1209.608,1265.5575,
1206.698,1305.4333,
1203.787,1282.831,
1200.877,1305.5693,
1197.966,1304.6701,
1195.055,1360.9394,
1192.145,1447.262,
1189.234,1485.6008,
1186.324,1527.5374,
1183.413,1549.1174,
1180.503,1530.5191,
1177.592,1513.7866,
1174.681,1518.6387,
1171.771,1525.1511,
1168.860,1504.61,
1165.950,1475.2112,
1163.039,1449.0697,
1160.129,1441.8047,
1157.218,1464.7389,
1154.307,1494.1904,
1151.397,1507.2745,
1148.486,1518.9737,
1145.576,1525.854,
1142.665,1508.0958,
1139.754,1509.8795,
1136.844,1488.9156,
1133.933,1481.971,
1131.023,1477.9598,
1128.112,1478.7668,
1125.202,1482.4463,
1122.291,1453.3743,
1119.380,1451.703,
1116.470,1459.6457,
1113.559,1487.6887,
1110.649,1479.2539,
1107.738,1448.1206,
1104.828,1416.142,
1101.917,1396.8498,
1099.006,1394.2023,
1096.096,1402.0013,
1093.185,1408.1473,
1090.275,1402.1508,
1087.364,1417.7781,
1084.453,1425.0625,
1081.543,1441.2774,
1078.632,1455.4169,
1075.722,1441.8817,
1072.811,1450.1978,
1069.901,1430.1128,
1066.990,1482.7832,
1064.079,1510.5963,
1061.169,1516.5204,
1058.258,1508.4257,
1055.348,1494.2156,
1052.437,1485.2649,
1049.527,1491.7788,
1046.616,1443.9932,
1043.705,1447.8742,
1040.795,1448.7095,
1037.884,1485.5553,
1034.974,1523.7423,
1032.063,1511.5563,
1029.153,1470.2602,
1026.242,1500.5337,
1023.331,1512.4576,
1020.421,1516.7163,
1017.510,1554.6032,
1014.600,1591.2377,
1011.689,1612.1726,
1008.778,1639.2114,
1005.868,1643.1269,
1002.957,1699.05,
1000.047,1721.457,
997.136,1695.4967,
994.226,1682.1018,
991.315,1687.1448,
988.404,1663.2759,
985.494,1604.3181,
982.583,1590.6132,
979.673,1610.5744,
976.762,1619.7992,
973.852,1610.9008,
970.941,1598.0322,
968.030,1600.8332,
965.120,1624.736,
962.209,1651.1648,
959.299,1641.46,
956.388,1645.1444,
953.477,1663.7227,
950.567,1672.0437,
947.656,1648.9538,
944.746,1636.2105,
941.835,1638.0544,
938.925,1668.2373,
936.014,1673.0027,
933.103,1657.3286,
930.193,1640.6335,
927.282,1610.9752,
924.372,1580.5333,
921.461,1564.8426,
918.551,1544.9398,
915.640,1525.1261,
912.729,1515.5035,
909.819,1525.6292,
906.908,1563.5383,
903.998,1540.1733,
901.087,1545.0821,
898.176,1551.1478,
895.266,1559.8296,
892.355,1588.7345,
889.445,1637.412,
886.534,1645.1388,
883.624,1649.9892,
880.713,1638.8661,
877.802,1636.0046,
874.892,1656.9342,
871.981,1671.1121,
869.071,1649.3913,
866.160,1663.564,
863.250,1657.9957,
860.339,1648.1308,
857.428,1645.5466,
854.518,1615.9861,
851.607,1628.4671,
848.697,1642.3179,
845.786,1656.4474,
842.875,1655.5367,
839.965,1638.0861,
837.054,1636.2948,
834.144,1695.965,
831.233,1684.96,
828.323,1678.0761,
825.412,1664.2731,
822.501,1633.9656,
819.591,1680.244,
816.680,1647.1698,
813.770,1604.1674,
810.859,1600.7721,
807.949,1617.2152,
805.038,1609.3086,
802.127,1639.7644,
799.217,1597.9015,
796.306,1600.2197,
793.396,1612.457,
790.485,1605.9922,
787.574,1587.3172,
784.664,1552.8725,
781.753,1584.2001,
778.843,1614.8771,
775.932,1631.3286,
773.022,1638.1034,
770.111,1628.2925,
767.200,1631.4316,
764.290,1632.625,
761.379,1616.4764,
758.469,1592.4621,
755.558,1595.236,
752.648,1582.2023,
749.737,1561.9997,
746.826,1523.7193,
743.916,1458.2349,
741.005,1346.2882,
738.095,1095.4182,
735.184,930.47872,
732.274,897.135,
729.363,1024.8999,
726.452,1271.1761,
723.542,1440.3393,
720.631,1516.1399,
717.721,1553.8104,
714.810,1571.9545,
711.899,1579.6844,
708.989,1575.6498,
706.078,1601.2667,
703.168,1559.6545,
700.257,1547.1907,
697.347,1566.6692,
694.436,1540.9922,
691.525,1517.6818,
688.615,1547.844,
685.704,1564.3081,
682.794,1553.4761,
679.883,1537.8865,
676.973,1565.9345,
674.062,1570.3488,
671.151,1576.6383,
668.241,1581.0983,
665.330,1568.1376,
662.420,1600.0869,
659.509,1586.3072,
656.598,1598.4262,
653.688,1619.7332,
650.777,1586.922,
647.867,1595.6816,
644.956,1576.5739,
642.046,1577.7213,
639.135,1607.0574,
636.224,1642.5574,
633.314,1629.0604,
630.403,1624.4426,
627.493,1619.4002,
624.582,1616.333,
621.672,1632.9649,
618.761,1650.3437,
615.850,1649.0131,
612.940,1631.6713,
610.029,1612.0446,
607.119,1632.575,
604.208,1644.5652,
601.297,1639.6517,
598.387,1631.4849,
595.476,1629.9853,
592.566,1591.419,
589.655,1607.949,
586.745,1596.7567,
583.834,1566.9425,
580.923,1571.4781,
578.013,1547.1513,
575.102,1597.9838,
572.192,1636.6949,
569.281,1635.3896,
566.371,1667.4772,
563.460,1722.8296,
560.549,1706.6173,
557.639,1686.4987,
554.728,1739.8859,
551.818,1728.1812,
548.907,1734.1568,
545.996,1736.1259,
543.086,1735.6579,
540.175,1759.0173,
537.265,1762.7978,
534.354,1758.1064,
531.444,1745.1012,
528.533,1726.8942,
525.622,1744.741,
522.712,1788.6707,
519.801,1777.9645,
516.891,1729.1108,
513.980,1780.9887,
511.070,1784.2163,
508.159,1764.5223,
505.248,1752.8884,
502.338,1781.4835,
499.427,1810.8131,
496.517,1823.7159,
493.606,1843.4401,
490.695,1875.2669,
487.785,1879.8857,
484.874,1852.1911,
481.964,1823.3361,
479.053,1814.5533,
476.143,1856.0233,
473.232,1801.0727,
470.321,1789.8163,
467.411,1797.3196,
464.500,1784.4892,
461.590,1779.1291,
458.679,1798.5362,
455.769,1820.0359,
452.858,1831.9315,
449.947,1854.0855,
447.037,1825.8599,
444.126,1816.825,
441.216,1842.652,
438.305,1871.6054,
435.395,1850.7108,
432.484,1865.5474,
429.573,1893.6199,
426.663,1846.4912,
423.752,1881.6805,
420.842,1930.593,
417.931,1946.4317,
415.020,1868.3208,
412.110,1901.474,
409.199,1922.9379,
406.289,1929.9031,
403.378,1924.5533,
400.468,1903.3854,
397.557,1890.4552,
394.646,1874.6592,
391.736,1845.621,
388.825,1783.0198,
385.915,1717.792,
383.004,1688.6178,
380.094,1721.1971,
377.183,1771.613,
374.272,1833.9325,
371.362,1895.5222,
368.451,1946.5824,
365.541,1962.3437,
362.630,1954.6077,
359.719,1960.0153,
356.809,1995.1298,
353.898,1970.4195,
350.988,1970.6773,
348.077,1968.4936,
345.167,1950.0251,
342.256,1977.6667,
339.345,1996.7851,
336.435,1991.635,
333.524,1953.8229,
330.614,1991.8258,
327.703,1997.9775,
324.793,2003.1944,
321.882,2033.6593,
318.971,2047.7847,
316.061,2047.7419,
313.150,2045.6274,
310.240,2055.2749,
307.329,2104.2203,
304.418,2098.0916,
301.508,2055.2188,
298.597,2008.5726,
295.687,1961.9589,
292.776,1961.2084,
289.866,2027.7033,
286.955,2213.1234,
284.044,2329.4399,
281.134,2446.7957,
278.223,2562.6907,
275.313,2597.3229,
272.402,2679.5615,
269.492,2749.4676,
266.581,2788.6699,
263.670,2859.2472,
260.760,2893.207,
257.849,2923.0756,
254.939,2972.9797,
252.028,3011.2649,
249.117,3000.4995,
246.207,2959.8286,
243.296,2918.1025,
240.386,2914.278,
237.475,2872.3644,
234.565,2803.0145,
231.654,2792.7892,
228.743,2758.9798,
225.833,2713.6725,
222.922,2662.4019,
220.012,2636.174,
217.101,2591.8027,
214.191,2546.9754,
211.280,2521.5142,
208.369,2522.3163,
205.459,2505.6587,
202.548,2482.6362,
199.638,2505.8569,
196.727,2520.4207,
193.816,2511.0688,
190.906,2474.9105,
187.995,2540.0727,
185.085,2548.4393,
182.174,2534.1921,
179.264,2539.9742,
176.353,2530.3725,
173.442,2555.805,
170.532,2599.116,
167.621,2500.3424,
164.711,2401.6222,
161.800,2303.4468,
158.890,2206.2836,
155.979,2068.1062,
153.068,1940.8371,
150.158,1795.7432,
147.247,1514.3059,
144.337,1219.0894,
141.426,956.01578,
138.516,750.98489,
135.605,512.88018,
132.694,347.39075,
129.784,237.34315,
126.873,148.66705,
123.963,104.44777,
121.052,78.675926,
118.141,63.683984,
115.231,47.281882,
112.320,37.659549,
109.410,33.352289,
106.499,31.927979,
103.589,28.823728,
100.678,23.908783,
97.767,16.799407,
94.857,22.861901,
91.946,24.415667,
89.036,21.496021,
86.125,14.403968,
83.215,17.403283,
80.304,19.709539,
77.393,14.044179,
74.483,14.93527,
71.572,12.726183,
68.662,8.45621,
65.751,16.933623,
62.840,12.39947,
59.930,5.7487172,
57.019,9.9792091,
54.109,10.625,
51.198,10.926609,
48.288,11.613675,
45.377,10.206919,
42.466,9.2127807,
39.556,8.8552372,
36.645,10.259618,
33.735,15.817485,
30.824,20.404113,
27.914,19.702938,
25.003,21.492912,
22.092,21.010477,
19.182,18.494549,
16.271,45.075174,
13.361,159.30366,
10.450,401.62288,
7.539,982.62126,
4.629,1534.2932,
1.718,1835.8581,
-1.192,1595.3432,
-4.103,989.162,
-7.013,429.13113,
-9.924,-2.375,
