,PL1C01~1,
Raman shift [1/cm],Intensity,
3014.167,0.375,
3011.256,-0.72502147,
3008.346,219.739,
3005.435,261.49161,
3002.525,247.56236,
2999.614,281.81005,
2996.704,281.95953,
2993.793,307.26958,
2990.882,297.45894,
2987.972,311.41536,
2985.061,311.83804,
2982.151,302.375,
2979.240,332.28848,
2976.329,356.13729,
2973.419,357.34445,
2970.508,359.47494,
2967.598,376.04046,
2964.687,381.31454,
2961.777,404.34091,
2958.866,402.03919,
2955.955,397.02767,
2953.045,403.10878,
2950.134,423.96104,
2947.224,457.00491,
2944.313,431.34152,
2941.403,467.51915,
2938.492,472.38585,
2935.581,473.14924,
2932.671,487.09171,
2929.760,479.99809,
2926.850,484.58402,
2923.939,501.37029,
2921.028,509.66904,
2918.118,513.61682,
2915.207,526.60916,
2912.297,527.36654,
2909.386,532.33122,
2906.476,516.79354,
2903.565,534.08314,
2900.654,545.30525,
2897.744,535.52587,
2894.833,540.36482,
2891.923,537.6731,
2889.012,529.91835,
2886.102,534.64391,
2883.191,536.37972,
2880.280,516.38935,
2877.370,491.52619,
2874.459,476.72101,
2871.549,522.36221,
2868.638,552.05747,
2865.727,561.26733,
2862.817,567.21857,
2859.906,561.42628,
2856.996,573.39311,
2854.085,567.61449,
2851.175,574.01659,
2848.264,569.3015,
2845.353,574.98679,
2842.443,554.18057,
2839.532,552.47946,
2836.622,550.46484,
2833.711,542.21958,
2830.801,542.07279,
2827.890,531.81382,
2824.979,544.15296,
2822.069,559.38637,
2819.158,548.97337,
2816.248,560.25921,
2813.337,574.51892,
2810.427,551.54442,
2807.516,559.375,
2804.605,581.85816,
2801.695,562.63816,
2798.784,574.56185,
2795.874,548.67053,
2792.963,538.73213,
2790.052,561.37007,
2787.142,561.00638,
2784.231,527.60172,
2781.321,569.48919,
2778.410,550.9194,
2775.500,563.60914,
2772.589,541.76032,
2769.678,560.72991,
2766.768,586.60803,
2763.857,586.2671,
2760.947,565.88446,
2758.036,569.91642,
2755.126,578.60791,
2752.215,591.31135,
2749.304,600.84261,
2746.394,581.30235,
2743.483,600.07501,
2740.573,587.61611,
2737.662,596.93861,
2734.751,609.63217,
2731.841,585.04898,
2728.930,614.43444,
2726.020,598.48727,
2723.109,584.30309,
2720.199,620.14071,
2717.288,602.39324,
2714.377,616.53304,
2711.467,614.34204,
2708.556,627.58763,
2705.646,642.51587,
2702.735,613.71521,
2699.825,627.2223,
2696.914,619.80316,
2694.003,643.60427,
2691.093,638.82145,
2688.182,637.08389,
2685.272,644.81739,
2682.361,648.22762,
2679.450,649.21868,
2676.540,651.43597,
2673.629,646.07908,
2670.719,645.43324,
2667.808,647.71545,
2664.898,647.15418,
2661.987,647.10829,
2659.076,653.2306,
2656.166,666.21477,
2653.255,688.03827,
2650.345,689.53471,
2647.434,667.20352,
2644.524,672.32467,
2641.613,679.26061,
2638.702,692.13828,
2635.792,670.65616,
2632.881,678.30345,
2629.971,678.14007,
2627.060,688.70501,
2624.149,705.26876,
2621.239,696.38093,
2618.328,695.78158,
2615.418,688.34773,
2612.507,717.75043,
2609.597,720.20135,
2606.686,693.1923,
2603.775,722.33532,
2600.865,727.96205,
2597.954,718.90205,
2595.044,727.06233,
2592.133,735.21589,
2589.223,745.15816,
2586.312,754.22926,
2583.401,761.96625,
2580.491,757.66349,
2577.580,751.40801,
2574.670,767.22394,
2571.759,754.17295,
2568.848,749.90537,
2565.938,749.47009,
2563.027,760.22733,
2560.117,741.19742,
2557.206,787.29012,
2554.296,773.77775,
2551.385,779.24294,
2548.474,773.48615,
2545.564,795.67858,
2542.653,785.21728,
2539.743,783.84419,
2536.832,780.33388,
2533.922,798.48538,
2531.011,806.74988,
2528.100,810.375,
2525.190,802.46926,
2522.279,827.54598,
2519.369,793.69555,
2516.458,799.1512,
2513.548,819.22015,
2510.637,785.66614,
2507.726,796.94375,
2504.816,801.4404,
2501.905,812.88232,
2498.995,799.39022,
2496.084,818.74784,
2493.173,820.29586,
2490.263,838.5095,
2487.352,843.20807,
2484.442,846.49489,
2481.531,857.00273,
2478.621,839.62615,
2475.710,866.25232,
2472.799,856.54085,
2469.889,874.89023,
2466.978,857.77722,
2464.068,877.23223,
2461.157,865.71759,
2458.247,848.6691,
2455.336,865.50027,
2452.425,883.39859,
2449.515,889.12968,
2446.604,890.19526,
2443.694,904.67766,
2440.783,908.13626,
2437.872,888.77611,
2434.962,903.57776,
2432.051,919.76397,
2429.141,908.71638,
2426.230,919.20156,
2423.320,931.57472,
2420.409,939.97122,
2417.498,924.80195,
2414.588,937.1772,
2411.677,941.12802,
2408.767,955.55709,
2405.856,948.22495,
2402.946,938.83881,
2400.035,916.78814,
2397.124,939.63167,
2394.214,966.3482,
2391.303,969.44682,
2388.393,954.69822,
2385.482,962.75813,
2382.571,991.04594,
2379.661,990.11917,
2376.750,982.11397,
2373.840,984.78746,
2370.929,1004.1909,
2368.019,1005.2913,
2365.108,990.39856,
2362.197,1010.071,
2359.287,1013.4001,
2356.376,1022.3539,
2353.466,1014.7226,
2350.555,1029.56,
2347.645,1029.0068,
2344.734,1041.5594,
2341.823,1036.5242,
2338.913,1022.6109,
2336.002,1059.0712,
2333.092,1052.8807,
2330.181,1074.4824,
2327.270,1061.4751,
2324.360,1056.9622,
2321.449,1092.2661,
2318.539,1064.6074,
2315.628,1076.088,
2312.718,1074.0094,
2309.807,1106.282,
2306.896,1082.0526,
2303.986,1077.8687,
2301.075,1092.9495,
2298.165,1092.154,
2295.254,1104.1596,
2292.344,1092.4248,
2289.433,1109.0855,
2286.522,1106.5135,
2283.612,1105.7959,
2280.701,1150.3211,
2277.791,1133.6154,
2274.880,1140.017,
2271.969,1145.8565,
2269.059,1154.7265,
2266.148,1162.4818,
2263.238,1172.4715,
2260.327,1170.065,
2257.417,1201.8678,
2254.506,1191.8252,
2251.595,1189.2405,
2248.685,1182.375,
2245.774,1209.4075,
2242.864,1210.3201,
2239.953,1227.6786,
2237.043,1202.285,
2234.132,1208.3621,
2231.221,1225.6671,
2228.311,1225.9369,
2225.400,1255.6565,
2222.490,1261.8472,
2219.579,1249.4521,
2216.669,1259.8535,
2213.758,1278.0731,
2210.847,1299.8838,
2207.937,1324.4792,
2205.026,1361.5975,
2202.116,1364.2901,
2199.205,1400.9242,
2196.294,1412.317,
2193.384,1436.0845,
2190.473,1470.5405,
2187.563,1473.5055,
2184.652,1511.3697,
2181.742,1578.9893,
2178.831,1615.6786,
2175.920,1650.038,
2173.010,1717.18,
2170.099,1786.4365,
2167.189,1831.0854,
2164.278,1930.8423,
2161.368,1972.5139,
2158.457,2086.2998,
2155.546,2179.3876,
2152.636,2254.9121,
2149.725,2304.4958,
2146.815,2372.2728,
2143.904,2423.0813,
2140.993,2438.8406,
2138.083,2448.3993,
2135.172,2456.9212,
2132.262,2460.7632,
2129.351,2393.1228,
2126.441,2365.841,
2123.530,2305.1291,
2120.619,2180.3756,
2117.709,2065.0163,
2114.798,1979.7363,
2111.888,1894.277,
2108.977,1805.6001,
2106.067,1729.3221,
2103.156,1679.9413,
2100.245,1615.3436,
2097.335,1566.0975,
2094.424,1562.5191,
2091.514,1525.0792,
2088.603,1497.9326,
2085.692,1499.9697,
2082.782,1474.7407,
2079.871,1487.4835,
2076.961,1462.5061,
2074.050,1486.5326,
2071.140,1454.2368,
2068.229,1467.8438,
2065.318,1454.5853,
2062.408,1436.2608,
2059.497,1433.2203,
2056.587,1442.7007,
2053.676,1424.8593,
2050.766,1416.7599,
2047.855,1401.5744,
2044.944,1406.7789,
2042.034,1405.3809,
2039.123,1438.7959,
2036.213,1443.395,
2033.302,1431.8534,
2030.391,1403.8332,
2027.481,1426.3381,
2024.570,1430.7895,
2021.660,1462.3055,
2018.749,1411.8186,
2015.839,1448.7785,
2012.928,1449.7659,
2010.017,1439.8299,
2007.107,1417.8142,
2004.196,1408.0536,
2001.286,1411.1453,
1998.375,1433.4262,
1995.465,1446.7348,
1992.554,1426.3399,
1989.643,1430.1331,
1986.733,1406.9636,
1983.822,1414.5537,
1980.912,1402.3853,
1978.001,1409.6551,
1975.090,1390.3674,
1972.180,1412.2008,
1969.269,1418.2227,
1966.359,1413.8616,
1963.448,1419.5665,
1960.538,1423.621,
1957.627,1422.5917,
1954.716,1445.6856,
1951.806,1424.2324,
1948.895,1407.4761,
1945.985,1433.3881,
1943.074,1408.4708,
1940.164,1424.0575,
1937.253,1406.2359,
1934.342,1416.452,
1931.432,1401.7062,
1928.521,1396.0641,
1925.611,1397.3296,
1922.700,1358.9689,
1919.790,1392.4381,
1916.879,1368.6767,
1913.968,1388.3479,
1911.058,1351.9996,
1908.147,1412.3268,
1905.237,1377.7868,
1902.326,1372.4298,
1899.415,1375.375,
1896.505,1379.2907,
1893.594,1383.1037,
1890.684,1378.826,
1887.773,1390.6591,
1884.863,1416.9581,
1881.952,1384.5254,
1879.041,1370.9139,
1876.131,1377.2613,
1873.220,1388.8352,
1870.310,1375.523,
1867.399,1416.6873,
1864.489,1397.9341,
1861.578,1363.5892,
1858.667,1379.1893,
1855.757,1407.5528,
1852.846,1420.0622,
1849.936,1404.5361,
1847.025,1432.9127,
1844.114,1410.2621,
1841.204,1440.9449,
1838.293,1447.8808,
1835.383,1449.84,
1832.472,1489.3646,
1829.562,1498.0437,
1826.651,1453.1348,
1823.740,1465.4938,
1820.830,1507.2414,
1817.919,1491.1293,
1815.009,1479.3814,
1812.098,1486.4537,
1809.188,1472.3673,
1806.277,1486.043,
1803.366,1492.4083,
1800.456,1494.1002,
1797.545,1492.694,
1794.635,1520.4729,
1791.724,1503.0544,
1788.813,1582.5753,
1785.903,1581.499,
1782.992,1553.9144,
1780.082,1517.9697,
1777.171,1556.034,
1774.261,1535.0402,
1771.350,1560.6433,
1768.439,1564.0537,
1765.529,1560.1963,
1762.618,1566.8475,
1759.708,1556.462,
1756.797,1556.6098,
1753.887,1584.9668,
1750.976,1559.8436,
1748.065,1591.12,
1745.155,1613.2138,
1742.244,1595.7536,
1739.334,1631.4032,
1736.423,1605.5695,
1733.512,1645.5865,
1730.602,1662.8869,
1727.691,1649.0924,
1724.781,1678.4112,
1721.870,1634.2604,
1718.960,1663.3088,
1716.049,1710.1289,
1713.138,1698.5651,
1710.228,1723.2245,
1707.317,1741.5281,
1704.407,1728.1022,
1701.496,1733.6674,
1698.586,1737.147,
1695.675,1764.5105,
1692.764,1784.3627,
1689.854,1811.2057,
1686.943,1822.0377,
1684.033,1856.5057,
1681.122,1833.7828,
1678.211,1908.6517,
1675.301,1947.2578,
1672.390,1914.5664,
1669.480,1978.8082,
1666.569,2032.9082,
1663.659,2074.8486,
1660.748,2103.4714,
1657.837,2110.2339,
1654.927,2195.8116,
1652.016,2296.5488,
1649.106,2264.5991,
1646.195,2314.9335,
1643.285,2377.4408,
1640.374,2338.6921,
1637.463,2401.654,
1634.553,2472.2765,
1631.642,2533.9603,
1628.732,2678.8194,
1625.821,2753.4928,
1622.911,2932.3607,
1620.000,3028.1655,
1617.089,3237.1561,
1614.179,3419.2142,
1611.268,3581.315,
1608.358,3731.3047,
1605.447,3832.6615,
1602.536,3934.3594,
1599.626,4020.4892,
1596.715,3999.2394,
1593.805,3976.6997,
1590.894,3946.1936,
1587.984,3861.8284,
1585.073,3828.9554,
1582.162,3862.11,
1579.252,3786.7266,
1576.341,3725.1176,
1573.431,3733.1712,
1570.520,3718.5012,
1567.610,3742.9245,
1564.699,3713.4984,
1561.788,3675.1358,
1558.878,3534.2845,
1555.967,3453.5551,
1553.057,3406.3754,
1550.146,3363.866,
1547.235,3307.8715,
1544.325,3273.2852,
1541.414,3232.6511,
1538.504,3192.1266,
1535.593,3116.1808,
1532.683,3053.1847,
1529.772,3046.8502,
1526.861,2999.419,
1523.951,2971.6748,
1521.040,2967.0248,
1518.130,2905.2884,
1515.219,2871.6154,
1512.309,2861.6047,
1509.398,2860.6413,
1506.487,2835.9969,
1503.577,2848.1134,
1500.666,2816.7714,
1497.756,2770.0198,
1494.845,2834.5329,
1491.934,2742.4474,
1489.024,2764.5848,
1486.113,2706.9604,
1483.203,2660.6311,
1480.292,2638.4048,
1477.382,2587.6884,
1474.471,2546.4472,
1471.560,2556.2423,
1468.650,2508.7131,
1465.739,2495.5443,
1462.829,2502.9718,
1459.918,2479.0654,
1457.008,2466.4828,
1454.097,2499.718,
1451.186,2549.0887,
1448.276,2532.5746,
1445.365,2462.9113,
1442.455,2488.9607,
1439.544,2518.4085,
1436.633,2454.4435,
1433.723,2470.773,
1430.812,2418.2616,
1427.902,2427.6387,
1424.991,2354.661,
1422.081,2335.8604,
1419.170,2336.1031,
1416.259,2328.2744,
1413.349,2299.1863,
1410.438,2292.4743,
1407.528,2316.5497,
1404.617,2315.8711,
1401.707,2278.2882,
1398.796,2264.7036,
1395.885,2326.1549,
1392.975,2362.7903,
1390.064,2305.1409,
1387.154,2286.7099,
1384.243,2212.5474,
1381.332,2212.4897,
1378.422,2211.6063,
1375.511,2332.4511,
1372.601,2461.5517,
1369.690,2535.8095,
1366.780,2646.9635,
1363.869,2681.3662,
1360.958,2743.7945,
1358.048,2783.2747,
1355.137,2847.7259,
1352.227,2920.0483,
1349.316,2967.0936,
1346.406,3037.9028,
1343.495,3117.5963,
1340.584,3150.7673,
1337.674,3197.4151,
1334.763,3265.7158,
1331.853,3300.9506,
1328.942,3343.2903,
1326.032,3380.9998,
1323.121,3459.5076,
1320.210,3501.6889,
1317.300,3505.6531,
1314.389,3566.0985,
1311.479,3611.5207,
1308.568,3627.5757,
1305.657,3714.2564,
1302.747,3789.1239,
1299.836,3853.8174,
1296.926,3931.2806,
1294.015,3993.7946,
1291.105,4066.8183,
1288.194,4226.5387,
1285.283,4293.0151,
1282.373,4343.6092,
1279.462,4407.0017,
1276.552,4471.9657,
1273.641,4497.746,
1270.731,4491.5481,
1267.820,4516.0899,
1264.909,4500.8469,
1261.999,4455.6053,
1259.088,4516.7174,
1256.178,4433.8729,
1253.267,4421.6766,
1250.356,4315.3689,
1247.446,4221.5439,
1244.535,4154.7055,
1241.625,4077.4084,
1238.714,3989.4183,
1235.804,3918.8216,
1232.893,3888.885,
1229.982,3842.2711,
1227.072,3809.6799,
1224.161,3760.3068,
1221.251,3685.8582,
1218.340,3579.1594,
1215.430,3523.4654,
1212.519,3492.737,
1209.608,3460.0594,
1206.698,3446.5451,
1203.787,3444.0986,
1200.877,3497.4486,
1197.966,3595.4569,
1195.055,3640.4777,
1192.145,3706.7311,
1189.234,3810.0692,
1186.324,3883.7414,
1183.413,3929.4562,
1180.503,3944.8965,
1177.592,3924.5569,
1174.681,3927.8579,
1171.771,3853.0054,
1168.860,3750.3001,
1165.950,3712.9612,
1163.039,3658.8836,
1160.129,3617.7301,
1157.218,3577.896,
1154.307,3545.9227,
1151.397,3530.5546,
1148.486,3502.5306,
1145.576,3469.1052,
1142.665,3462.8898,
1139.754,3443.6615,
1136.844,3382.6505,
1133.933,3374.2107,
1131.023,3387.7355,
1128.112,3385.0186,
1125.202,3382.3798,
1122.291,3406.0044,
1119.380,3417.5482,
1116.470,3435.1988,
1113.559,3459.026,
1110.649,3481.0913,
1107.738,3475.9795,
1104.828,3472.2809,
1101.917,3473.0195,
1099.006,3459.5912,
1096.096,3508.6123,
1093.185,3447.1521,
1090.275,3515.2093,
1087.364,3464.4488,
1084.453,3456.9985,
1081.543,3488.9598,
1078.632,3516.0902,
1075.722,3536.4347,
1072.811,3531.5063,
1069.901,3519.2806,
1066.990,3527.2666,
1064.079,3579.0525,
1061.169,3629.9901,
1058.258,3692.6061,
1055.348,3733.265,
1052.437,3703.6387,
1049.527,3725.8449,
1046.616,3738.0085,
1043.705,3737.8335,
1040.795,3765.4692,
1037.884,3781.8807,
1034.974,3764.8711,
1032.063,3747.0592,
1029.153,3783.5441,
1026.242,3776.6245,
1023.331,3803.04,
1020.421,3822.317,
1017.510,3850.786,
1014.600,3873.0272,
1011.689,3896.1941,
1008.778,3954.3556,
1005.868,4048.3403,
1002.957,4155.8846,
1000.047,4331.8071,
997.136,4441.2977,
994.226,4464.329,
991.315,4419.5384,
988.404,4334.8377,
985.494,4248.6462,
982.583,4216.097,
979.673,4146.9901,
976.762,4114.5685,
973.852,4100.4188,
970.941,4088.5967,
968.030,4082.1206,
965.120,4069.4931,
962.209,4097.627,
959.299,4132.1215,
956.388,4119.7366,
953.477,4106.1294,
950.567,4113.3293,
947.656,4116.3912,
944.746,4162.2672,
941.835,4202.4362,
938.925,4172.55,
936.014,4150.8575,
933.103,4170.5607,
930.193,4193.9937,
927.282,4130.9085,
924.372,4103.8491,
921.461,4053.9818,
918.551,4000.7762,
915.640,3981.1741,
912.729,3973.7369,
909.819,3931.7111,
906.908,3956.9839,
903.998,3914.63,
901.087,3913.5591,
898.176,3973.298,
895.266,4033.6446,
892.355,4042.5003,
889.445,4075.2318,
886.534,4154.6878,
883.624,4191.2328,
880.713,4217.196,
877.802,4230.638,
874.892,4221.4919,
871.981,4195.2961,
869.071,4191.9544,
866.160,4192.065,
863.250,4203.3833,
860.339,4209.0793,
857.428,4198.5054,
854.518,4185.3158,
851.607,4148.7048,
848.697,4110.0476,
845.786,4125.475,
842.875,4144.2867,
839.965,4140.6666,
837.054,4201.0401,
834.144,4171.205,
831.233,4202.7056,
828.323,4222.8587,
825.412,4217.6138,
822.501,4194.4386,
819.591,4144.8547,
816.680,4043.2146,
813.770,3996.4474,
810.859,3978.4114,
807.949,3974.5799,
805.038,3975.0984,
802.127,3931.4727,
799.217,3962.4084,
796.306,3936.9153,
793.396,3918.1079,
790.485,3932.1115,
787.574,3927.8732,
784.664,3940.995,
781.753,3936.6652,
778.843,3936.8056,
775.932,3946.5477,
773.022,3962.7842,
770.111,3978.3181,
767.200,3969.4779,
764.290,3972.1538,
761.379,3968.8915,
758.469,3958.8399,
755.558,3962.819,
752.648,3910.6843,
749.737,3887.972,
746.826,3869.2533,
743.916,3808.4652,
741.005,3666.3746,
738.095,3480.4548,
735.184,3305.3522,
732.274,3292.7576,
729.363,3415.3892,
726.452,3606.1653,
723.542,3798.8009,
720.631,3849.8956,
717.721,3846.9082,
714.810,3879.9145,
711.899,3950.87,
708.989,3944.4146,
706.078,3892.2903,
703.168,3861.1584,
700.257,3856.8013,
697.347,3853.6808,
694.436,3804.1568,
691.525,3796.1187,
688.615,3826.4495,
685.704,3831.9925,
682.794,3818.5877,
679.883,3830.3205,
676.973,3784.6424,
674.062,3836.6309,
671.151,3842.8835,
668.241,3807.8045,
665.330,3814.0011,
662.420,3848.3466,
659.509,3851.5654,
656.598,3855.0007,
653.688,3859.1544,
650.777,3847.862,
647.867,3832.7317,
644.956,3867.7623,
642.046,3876.4495,
639.135,3864.1786,
636.224,3897.4745,
633.314,3917.3229,
630.403,3924.7398,
627.493,3923.3024,
624.582,3928.6161,
621.672,3974.5518,
618.761,3992.3337,
615.850,3999.579,
612.940,4021.5255,
610.029,4055.7717,
607.119,4028.1346,
604.208,4030.3451,
601.297,4040.3513,
598.387,4056.4007,
595.476,4073.0324,
592.566,4037.6144,
589.655,4054.699,
586.745,4052.1861,
583.834,4022.0545,
580.923,3985.1902,
578.013,3954.5856,
575.102,3991.6885,
572.192,4031.0916,
569.281,4047.9832,
566.371,4084.7665,
563.460,4119.4156,
560.549,4139.1969,
557.639,4164.6373,
554.728,4210.2362,
551.818,4144.6897,
548.907,4169.9869,
545.996,4186.4328,
543.086,4171.5362,
540.175,4167.643,
537.265,4197.7947,
534.354,4224.4257,
531.444,4242.4402,
528.533,4248.6092,
525.622,4223.7789,
522.712,4240.8249,
519.801,4304.2557,
516.891,4380.7144,
513.980,4367.5514,
511.070,4420.6097,
508.159,4465.8206,
505.248,4500.8902,
502.338,4534.4309,
499.427,4604.6676,
496.517,4660.1426,
493.606,4665.1571,
490.695,4622.3706,
487.785,4643.9247,
484.874,4684.856,
481.964,4703.2986,
479.053,4685.1148,
476.143,4621.3739,
473.232,4646.8706,
470.321,4666.1602,
467.411,4659.6859,
464.500,4615.5217,
461.590,4581.8291,
458.679,4618.5997,
455.769,4631.8,
452.858,4586.4876,
449.947,4664.4086,
447.037,4719.2077,
444.126,4707.4053,
441.216,4645.1687,
438.305,4649.7403,
435.395,4672.6666,
432.484,4673.9562,
429.573,4662.925,
426.663,4678.1279,
423.752,4638.9247,
420.842,4579.8166,
417.931,4557.7395,
415.020,4654.051,
412.110,4757.606,
409.199,4799.754,
406.289,4801.9313,
403.378,4791.3801,
400.468,4792.8921,
397.557,4759.9553,
394.646,4719.7559,
391.736,4694.8056,
388.825,4645.7805,
385.915,4579.7522,
383.004,4563.2149,
380.094,4641.7476,
377.183,4766.6587,
374.272,4865.9659,
371.362,4948.9248,
368.451,5018.1956,
365.541,5031.7053,
362.630,5055.0397,
359.719,5080.254,
356.809,5101.8281,
353.898,5109.3161,
350.988,5064.7211,
348.077,5050.6406,
345.167,5112.4885,
342.256,5114.7297,
339.345,5146.7295,
336.435,5174.6526,
333.524,5176.5964,
330.614,5215.3445,
327.703,5211.9728,
324.793,5212.0691,
321.882,5254.4868,
318.971,5300.5802,
316.061,5313.4451,
313.150,5329.0821,
310.240,5389.1935,
307.329,5419.2458,
304.418,5434.9345,
301.508,5434.8611,
298.597,5414.1295,
295.687,5470.6177,
292.776,5577.1254,
289.866,5722.2497,
286.955,5887.7242,
284.044,6121.3648,
281.134,6307.0645,
278.223,6446.2003,
275.313,6656.9409,
272.402,6815.232,
269.492,6948.0714,
266.581,7064.8897,
263.670,7170.0205,
260.760,7310.0755,
257.849,7424.7461,
254.939,7465.8435,
252.028,7553.2364,
249.117,7608.3027,
246.207,7616.7598,
243.296,7548.6804,
240.386,7556.3938,
237.475,7514.4307,
234.565,7421.9513,
231.654,7343.0699,
228.743,7307.9632,
225.833,7217.2362,
222.922,7039.8462,
220.012,7007.0612,
217.101,6947.3034,
214.191,6877.3602,
211.280,6814.071,
208.369,6802.6469,
205.459,6776.6177,
202.548,6742.6257,
199.638,6744.077,
196.727,6767.4236,
193.816,6785.8801,
190.906,6787.4958,
187.995,6733.918,
185.085,6772.1177,
182.174,6815.0031,
179.264,6739.8355,
176.353,6799.9383,
173.442,6824.9604,
170.532,6798.6028,
167.621,6774.8106,
164.711,6653.8012,
161.800,6453.0522,
158.890,6168.0401,
155.979,5793.5319,
153.068,5284.7129,
150.158,4669.053,
147.247,4026.4858,
144.337,3329.0815,
141.426,2619.1902,
138.516,1914.4861,
135.605,1361.9673,
132.694,918.26254,
129.784,583.58139,
126.873,394.78711,
123.963,279.55053,
121.052,198.42857,
118.141,140.60251,
115.231,106.97819,
112.320,93.375,
109.410,89.966119,
106.499,72.162238,
103.589,62.212201,
100.678,53.572296,
97.767,43.61917,
94.857,45.453967,
91.946,38.312783,
89.036,27.955571,
86.125,37.884445,
83.215,37.720398,
80.304,32.980673,
77.393,25.898974,
74.483,27.340405,
71.572,28.737352,
68.662,29.028663,
65.751,25.496407,
62.840,27.265212,
59.930,28.502138,
57.019,21.451318,
54.109,19.180678,
51.198,18.375,
48.288,18.448612,
45.377,27.592527,
42.466,28.077245,
39.556,23.375,
36.645,23.375,
33.735,23.375,
30.824,24.037661,
27.914,26.141187,
25.003,28.242912,
22.092,27.114668,
19.182,23.267432,
16.271,50.547547,
13.361,222.79341,
10.450,546.77667,
7.539,1141.7414,
4.629,1520.9764,
1.718,1568.4464,
-1.192,1037.2223,
-4.103,567.70547,
-7.013,215.04013,
-9.924,1.375,
