,PLA8D8~1,
Raman shift [1/cm],Intensity,
3014.167,-1.5,
3011.256,-1.1500322,
3008.346,151.53751,
3005.435,190.65548,
3002.525,203.25503,
2999.614,214.68832,
2996.704,211.68557,
2993.793,225.12846,
2990.882,227.01906,
2987.972,214.65639,
2985.061,233.97289,
2982.151,243.27817,
2979.240,256.55038,
2976.329,250.74317,
2973.419,266.34596,
2970.508,278.19998,
2967.598,276.35663,
2964.687,273.97758,
2961.777,260.91012,
2958.866,283.15528,
2955.955,293.94691,
2953.045,301.60068,
2950.134,304.68075,
2947.224,307.81316,
2944.313,317.60114,
2941.403,329.53604,
2938.492,322.80895,
2935.581,331.38712,
2932.671,327.37983,
2929.760,336.12309,
2926.850,349.23872,
2923.939,359.21492,
2921.028,353.38212,
2918.118,343.16373,
2915.207,368.20247,
2912.297,368.48307,
2909.386,362.5,
2906.476,366.53089,
2903.565,368.33852,
2900.654,371.5,
2897.744,359.44971,
2894.833,350.964,
2891.923,358.28531,
2889.012,353.2052,
2886.102,356.25136,
2883.191,367.4849,
2880.280,325.93062,
2877.370,289.75011,
2874.459,289.20442,
2871.549,321.35562,
2868.638,352.09175,
2865.727,371.63459,
2862.817,388.05748,
2859.906,379.09544,
2856.996,384.03397,
2854.085,387.9433,
2851.175,374.33432,
2848.264,381.4265,
2845.353,371.73724,
2842.443,381.30209,
2839.532,377.17166,
2836.622,364.16862,
2833.711,375.60361,
2830.801,384.69412,
2827.890,376.39686,
2824.979,375.72204,
2822.069,387.64784,
2819.158,398.21967,
2816.248,399.72974,
2813.337,383.95366,
2810.427,388.93388,
2807.516,392.18344,
2804.605,406.72596,
2801.695,410.36842,
2798.784,411.35215,
2795.874,408.52114,
2792.963,391.07149,
2790.052,403.49764,
2787.142,393.30258,
2784.231,392.46739,
2781.321,406.05998,
2778.410,396.18021,
2775.500,412.17827,
2772.589,414.53747,
2769.678,405.99826,
2766.768,409.44174,
2763.857,412.44798,
2760.947,413.97794,
2758.036,433.37275,
2755.126,427.45726,
2752.215,416.6273,
2749.304,411.52159,
2746.394,428.61691,
2743.483,438.69999,
2740.573,428.96676,
2737.662,429.82988,
2734.751,435.87366,
2731.841,443.39194,
2728.930,437.05086,
2726.020,437.72454,
2723.109,439.5,
2720.199,442.08744,
2717.288,446.60584,
2714.377,429.4377,
2711.467,447.27033,
2708.556,453.97874,
2705.646,439.97884,
2702.735,457.19074,
2699.825,473.6527,
2696.914,468.11909,
2694.003,450.39918,
2691.093,453.37485,
2688.182,468.59259,
2685.272,454.01351,
2682.361,471.5,
2679.450,485.65632,
2676.540,469.4187,
2673.629,472.13673,
2670.719,475.22273,
2667.808,467.59727,
2664.898,488.94164,
2661.987,484.5,
2659.076,488.86422,
2656.166,490.96754,
2653.255,488.98129,
2650.345,486.36388,
2647.434,496.15704,
2644.524,497.9053,
2641.613,501.69987,
2638.702,519.18438,
2635.792,503.25074,
2632.881,506.73794,
2629.971,493.43276,
2627.060,509.83313,
2624.149,505.52813,
2621.239,499.25148,
2618.328,520.58477,
2615.418,523.16364,
2612.507,510.84788,
2609.597,537.01098,
2606.686,528.96786,
2603.775,512.25793,
2600.865,525.3772,
2597.954,542.54172,
2595.044,525.15191,
2592.133,534.00324,
2589.223,544.63264,
2586.312,539.20852,
2583.401,543.90875,
2580.491,545.30768,
2577.580,578.43729,
2574.670,544.65106,
2571.759,538.43409,
2568.848,550.84268,
2565.938,552.69046,
2563.027,548.64549,
2560.117,546.12618,
2557.206,553.21218,
2554.296,549.61899,
2551.385,568.18599,
2548.474,569.31487,
2545.564,585.02517,
2542.653,582.1745,
2539.743,572.89526,
2536.832,576.96916,
2533.922,572.31077,
2531.011,565.99953,
2528.100,584.23172,
2525.190,574.85082,
2522.279,570.14143,
2519.369,595.04768,
2516.458,586.61898,
2513.548,587.4092,
2510.637,597.56148,
2507.726,598.18773,
2504.816,596.93743,
2501.905,590.8189,
2498.995,596.85831,
2496.084,602.80662,
2493.173,603.5,
2490.263,604.29774,
2487.352,615.08427,
2484.442,628.5,
2481.531,630.07977,
2478.621,621.51892,
2475.710,637.36198,
2472.799,620.73317,
2469.889,616.74375,
2466.978,622.93285,
2464.068,611.26184,
2461.157,616.85234,
2458.247,644.35295,
2455.336,640.22406,
2452.425,647.30661,
2449.515,633.21726,
2446.604,642.67974,
2443.694,658.43097,
2440.783,652.4482,
2437.872,645.37516,
2434.962,660.09448,
2432.051,649.17925,
2429.141,671.04107,
2426.230,676.36962,
2423.320,664.74231,
2420.409,685.23081,
2417.498,680.90168,
2414.588,679.68251,
2411.677,687.71515,
2408.767,692.23524,
2405.856,681.93337,
2402.946,682.71448,
2400.035,682.00469,
2397.124,687.76735,
2394.214,714.68761,
2391.303,689.78184,
2388.393,702.8954,
2385.482,693.29311,
2382.571,686.9936,
2379.661,700.66259,
2376.750,715.4483,
2373.840,715.63749,
2370.929,735.29424,
2368.019,727.72907,
2365.108,730.42932,
2362.197,730.54106,
2359.287,732.48329,
2356.376,732.50352,
2353.466,746.66606,
2350.555,746.41467,
2347.645,739.60463,
2344.734,750.80416,
2341.823,767.25125,
2338.913,758.69704,
2336.002,773.12919,
2333.092,763.48866,
2330.181,773.09842,
2327.270,768.10506,
2324.360,790.75238,
2321.449,784.34695,
2318.539,788.88225,
2315.628,800.93606,
2312.718,807.61674,
2309.807,794.82266,
2306.896,819.69717,
2303.986,797.32466,
2301.075,797.5851,
2298.165,797.90382,
2295.254,785.75852,
2292.344,800.44604,
2289.433,804.82818,
2286.522,813.76777,
2283.612,831.78062,
2280.701,830.30719,
2277.791,829.62022,
2274.880,828.86207,
2271.969,822.46297,
2269.059,850.8161,
2266.148,861.5818,
2263.238,844.30696,
2260.327,864.63822,
2257.417,887.33223,
2254.506,878.82768,
2251.595,888.64913,
2248.685,868.76928,
2245.774,884.22492,
2242.864,889.5,
2239.953,888.13451,
2237.043,887.00678,
2234.132,899.10776,
2231.221,901.65761,
2228.311,898.76031,
2225.400,923.58444,
2222.490,927.7997,
2219.579,939.65427,
2216.669,944.53339,
2213.758,961.63467,
2210.847,986.59066,
2207.937,1007.7264,
2205.026,1000.3866,
2202.116,1065.0732,
2199.205,1082.2866,
2196.294,1110.616,
2193.384,1141.9465,
2190.473,1188.3932,
2187.563,1197.6933,
2184.652,1240.9641,
2181.742,1276.161,
2178.831,1295.033,
2175.920,1294.2323,
2173.010,1329.3515,
2170.099,1341.6994,
2167.189,1369.7942,
2164.278,1405.6578,
2161.368,1403.2112,
2158.457,1462.4165,
2155.546,1463.9087,
2152.636,1503.9467,
2149.725,1495.198,
2146.815,1568.7971,
2143.904,1600.0241,
2140.993,1644.7647,
2138.083,1602.7827,
2135.172,1601.5588,
2132.262,1581.9824,
2129.351,1548.0688,
2126.441,1544.801,
2123.530,1488.0959,
2120.619,1441.7665,
2117.709,1371.5994,
2114.798,1338.6382,
2111.888,1272.3387,
2108.977,1231.8775,
2106.067,1203.0238,
2103.156,1131.3922,
2100.245,1125.5,
2097.335,1117.5524,
2094.424,1059.0213,
2091.514,1073.2313,
2088.603,1079.1913,
2085.692,1054.5,
2082.782,1043.8977,
2079.871,1047.7147,
2076.961,1056.048,
2074.050,1052.3545,
2071.140,1046.6037,
2068.229,1039.9362,
2065.318,1055.2277,
2062.408,1040.053,
2059.497,1038.9048,
2056.587,1036.2443,
2053.676,1044.2994,
2050.766,1045.577,
2047.855,1004.7278,
2044.944,1015.2933,
2042.034,1025.9161,
2039.123,1011.702,
2036.213,1038.5756,
2033.302,1046.4131,
2030.391,1035.1952,
2027.481,1023.5488,
2024.570,1035.8282,
2021.660,1014.9782,
2018.749,1034.538,
2015.839,1034.2894,
2012.928,1032.9362,
2010.017,1053.8507,
2007.107,1044.5448,
2004.196,1053.4644,
2001.286,1069.4788,
1998.375,1052.8868,
1995.465,1007.1696,
1992.554,1018.4116,
1989.643,1032.1198,
1986.733,1060.7342,
1983.822,1030.7696,
1980.912,1036.4503,
1978.001,1032.949,
1975.090,1027.7488,
1972.180,1002.2247,
1969.269,1041.9197,
1966.359,1065.1755,
1963.448,1054.8474,
1960.538,993.44828,
1957.627,1034.7818,
1954.716,1026.9309,
1951.806,1006.5368,
1948.895,1046.2652,
1945.985,1044.964,
1943.074,1022.5848,
1940.164,1025.5191,
1937.253,1021.6651,
1934.342,1024.9701,
1931.432,1015.1498,
1928.521,1017.6434,
1925.611,1014.2923,
1922.700,1014.6657,
1919.790,1012.055,
1916.879,1015.221,
1913.968,1009.5074,
1911.058,1004.2748,
1908.147,1037.9204,
1905.237,1005.4706,
1902.326,1011.4793,
1899.415,992.35733,
1896.505,1001.1023,
1893.594,1003.308,
1890.684,1003.8792,
1887.773,996.47386,
1884.863,1007.6891,
1881.952,1015.0799,
1879.041,1019.7695,
1876.131,1009.0987,
1873.220,1009.9867,
1870.310,1001.2175,
1867.399,1045.7643,
1864.489,1040.6043,
1861.578,1019.5274,
1858.667,1035.2215,
1855.757,1064.1158,
1852.846,1047.7564,
1849.936,1049.9885,
1847.025,1048.6168,
1844.114,1059.34,
1841.204,1066.3427,
1838.293,1057.5083,
1835.383,1059.058,
1832.472,1060.3487,
1829.562,1051.112,
1826.651,1063.9107,
1823.740,1087.5154,
1820.830,1071.8935,
1817.919,1087.4882,
1815.009,1063.388,
1812.098,1059.3976,
1809.188,1093.2674,
1806.277,1123.8582,
1803.366,1070.1987,
1800.456,1112.5991,
1797.545,1126.2449,
1794.635,1079.7891,
1791.724,1119.4611,
1788.813,1144.3062,
1785.903,1155.2927,
1782.992,1114.5506,
1780.082,1084.0316,
1777.171,1096.4973,
1774.261,1096.3552,
1771.350,1126.5598,
1768.439,1152.4583,
1765.529,1147.3157,
1762.618,1150.3419,
1759.708,1167.9456,
1756.797,1162.8106,
1753.887,1147.5248,
1750.976,1157.5484,
1748.065,1194.2343,
1745.155,1186.784,
1742.244,1187.7427,
1739.334,1174.6435,
1736.423,1193.7616,
1733.512,1202.5894,
1730.602,1232.1687,
1727.691,1242.5,
1724.781,1274.7496,
1721.870,1241.6521,
1718.960,1261.9226,
1716.049,1277.7287,
1713.138,1265.8201,
1710.228,1283.5168,
1707.317,1301.5377,
1704.407,1328.6551,
1701.496,1295.0381,
1698.586,1284.1081,
1695.675,1354.6139,
1692.764,1350.9795,
1689.854,1357.1969,
1686.943,1379.7243,
1684.033,1346.3693,
1681.122,1432.0047,
1678.211,1453.3097,
1675.301,1441.537,
1672.390,1459.7632,
1669.480,1548.2541,
1666.569,1640.5478,
1663.659,1567.9209,
1660.748,1654.0592,
1657.837,1683.178,
1654.927,1715.7492,
1652.016,1808.6981,
1649.106,1777.1365,
1646.195,1802.8836,
1643.285,1821.1205,
1640.374,1934.3571,
1637.463,1975.5989,
1634.553,2037.0221,
1631.642,2139.5098,
1628.732,2232.6377,
1625.821,2423.5419,
1622.911,2487.1394,
1620.000,2663.2574,
1617.089,2806.6343,
1614.179,2961.1006,
1611.268,3105.1092,
1608.358,3221.0685,
1605.447,3345.301,
1602.536,3387.9117,
1599.626,3403.3791,
1596.715,3377.272,
1593.805,3388.8093,
1590.894,3375.5286,
1587.984,3345.7851,
1585.073,3341.5,
1582.162,3275.544,
1579.252,3166.7588,
1576.341,3147.1021,
1573.431,3122.4384,
1570.520,3091.0399,
1567.610,3029.8521,
1564.699,2966.5482,
1561.788,2899.5005,
1558.878,2862.7964,
1555.967,2810.5748,
1553.057,2753.69,
1550.146,2693.3256,
1547.235,2635.032,
1544.325,2588.1821,
1541.414,2543.5773,
1538.504,2505.5721,
1535.593,2492.9346,
1532.683,2510.2006,
1529.772,2522.3251,
1526.861,2506.2464,
1523.951,2489.1455,
1521.040,2465.6863,
1518.130,2440.536,
1515.219,2465.2596,
1512.309,2477.7477,
1509.398,2486.0189,
1506.487,2499.0126,
1503.577,2440.2598,
1500.666,2471.5533,
1497.756,2411.3224,
1494.845,2445.5,
1491.934,2445.3142,
1489.024,2388.5271,
1486.113,2422.6614,
1483.203,2375.7626,
1480.292,2339.8021,
1477.382,2327.2258,
1474.471,2296.3396,
1471.560,2246.137,
1468.650,2237.3327,
1465.739,2230.2522,
1462.829,2291.9404,
1459.918,2346.8923,
1457.008,2363.6386,
1454.097,2339.6868,
1451.186,2295.678,
1448.276,2254.2928,
1445.365,2185.2836,
1442.455,2150.4805,
1439.544,2103.8414,
1436.633,2022.0045,
1433.723,2001.0136,
1430.812,1971.0515,
1427.902,1989.5529,
1424.991,1949.7469,
1422.081,1914.5533,
1419.170,1892.4907,
1416.259,1890.3101,
1413.349,1888.9895,
1410.438,1864.0077,
1407.528,1860.5812,
1404.617,1886.8109,
1401.707,1889.7814,
1398.796,1900.2132,
1395.885,1906.3109,
1392.975,1862.7909,
1390.064,1807.8382,
1387.154,1728.2646,
1384.243,1637.2226,
1381.332,1601.2626,
1378.422,1636.7652,
1375.511,1738.8744,
1372.601,1892.5591,
1369.690,2004.9378,
1366.780,2098.3274,
1363.869,2125.0383,
1360.958,2192.2012,
1358.048,2243.2994,
1355.137,2278.6301,
1352.227,2303.1602,
1349.316,2327.7191,
1346.406,2368.1214,
1343.495,2418.1395,
1340.584,2508.3218,
1337.674,2481.82,
1334.763,2463.6989,
1331.853,2574.0394,
1328.942,2545.5898,
1326.032,2570.0467,
1323.121,2617.994,
1320.210,2601.8676,
1317.300,2670.313,
1314.389,2770.1258,
1311.479,2827.4125,
1308.568,2873.4882,
1305.657,2934.7289,
1302.747,2998.227,
1299.836,3051.9939,
1296.926,3111.2257,
1294.015,3234.415,
1291.105,3302.0185,
1288.194,3363.217,
1285.283,3454.5443,
1282.373,3538.0232,
1279.462,3549.8337,
1276.552,3567.0198,
1273.641,3598.8059,
1270.731,3592.1463,
1267.820,3597.0458,
1264.909,3592.7089,
1261.999,3599.2031,
1259.088,3536.2668,
1256.178,3494.8159,
1253.267,3394.135,
1250.356,3326.2193,
1247.446,3265.2556,
1244.535,3213.6965,
1241.625,3147.0927,
1238.714,3055.0342,
1235.804,2990.1651,
1232.893,2950.027,
1229.982,2827.2547,
1227.072,2820.0122,
1224.161,2758.9837,
1221.251,2665.604,
1218.340,2585.675,
1215.430,2574.0161,
1212.519,2555.3541,
1209.608,2512.2475,
1206.698,2516.245,
1203.787,2547.0729,
1200.877,2532.902,
1197.966,2603.9355,
1195.055,2704.7703,
1192.145,2761.3212,
1189.234,2846.516,
1186.324,2958.0524,
1183.413,3032.632,
1180.503,3042.7431,
1177.592,3022.3888,
1174.681,2997.5171,
1171.771,2940.357,
1168.860,2847.4757,
1165.950,2819.9553,
1163.039,2773.5958,
1160.129,2757.8594,
1157.218,2786.4212,
1154.307,2831.8251,
1151.397,2873.0553,
1148.486,2912.6989,
1145.576,2917.7268,
1142.665,2876.8828,
1139.754,2897.9089,
1136.844,2866.3839,
1133.933,2843.4619,
1131.023,2816.3115,
1128.112,2768.6462,
1125.202,2729.4324,
1122.291,2737.2547,
1119.380,2749.8031,
1116.470,2780.6916,
1113.559,2773.6745,
1110.649,2756.7482,
1107.738,2725.3882,
1104.828,2693.2653,
1101.917,2660.3395,
1099.006,2614.7682,
1096.096,2592.07,
1093.185,2585.046,
1090.275,2636.2933,
1087.364,2622.4273,
1084.453,2623.4367,
1081.543,2661.9844,
1078.632,2696.3062,
1075.722,2686.0462,
1072.811,2668.7673,
1069.901,2756.9666,
1066.990,2740.0584,
1064.079,2774.6503,
1061.169,2755.3912,
1058.258,2711.7954,
1055.348,2716.5469,
1052.437,2756.7089,
1049.527,2690.9294,
1046.616,2676.1593,
1043.705,2702.2475,
1040.795,2683.0443,
1037.884,2666.4885,
1034.974,2653.5825,
1032.063,2648.9995,
1029.153,2693.6185,
1026.242,2652.9655,
1023.331,2683.1646,
1020.421,2736.2058,
1017.510,2808.0454,
1014.600,2868.3777,
1011.689,2890.0837,
1008.778,2886.3229,
1005.868,2943.7548,
1002.957,2972.1465,
1000.047,3071.14,
997.136,3112.3733,
994.226,3113.377,
991.315,3080.8812,
988.404,2998.152,
985.494,2908.5575,
982.583,2911.1272,
979.673,2893.9405,
976.762,2878.6935,
973.852,2880.8982,
970.941,2892.6855,
968.030,2897.0029,
965.120,2905.3819,
962.209,2877.248,
959.299,2891.6227,
956.388,2920.2187,
953.477,2939.3772,
950.567,2945.5914,
947.656,2956.9591,
944.746,2998.5874,
941.835,2993.2117,
938.925,2974.3907,
936.014,2972.5816,
933.103,2965.0231,
930.193,2926.7143,
927.282,2878.171,
924.372,2853.6484,
921.461,2779.8056,
918.551,2751.0144,
915.640,2760.8234,
912.729,2757.1049,
909.819,2701.6112,
906.908,2702.4536,
903.998,2727.9517,
901.087,2734.5,
898.176,2743.0895,
895.266,2769.6395,
892.355,2814.1959,
889.445,2855.32,
886.534,2849.6559,
883.624,2867.3393,
880.713,2921.9217,
877.802,2943.6143,
874.892,2895.1461,
871.981,2861.4939,
869.071,2818.8878,
866.160,2858.4173,
863.250,2884.742,
860.339,2900.2392,
857.428,2916.2477,
854.518,2900.9353,
851.607,2846.8508,
848.697,2854.0076,
845.786,2838.6655,
842.875,2835.6765,
839.965,2880.4566,
837.054,2930.7605,
834.144,2953.9656,
831.233,2959.1666,
828.323,2939.7171,
825.412,2929.8028,
822.501,2944.3509,
819.591,2904.6837,
816.680,2892.282,
813.770,2903.9096,
810.859,2897.6091,
807.949,2876.4683,
805.038,2869.4956,
802.127,2877.7269,
799.217,2838.2489,
796.306,2809.1756,
793.396,2800.6145,
790.485,2802.1307,
787.574,2787.8497,
784.664,2744.3838,
781.753,2760.6554,
778.843,2772.9901,
775.932,2782.7591,
773.022,2812.5026,
770.111,2870.5507,
767.200,2856.2285,
764.290,2837.2088,
761.379,2835.3774,
758.469,2835.7811,
755.558,2790.9165,
752.648,2771.366,
749.737,2710.0546,
746.826,2619.8237,
743.916,2514.9215,
741.005,2386.6609,
738.095,2087.0783,
735.184,1725.4328,
732.274,1634.4164,
729.363,1845.3485,
726.452,2242.9313,
723.542,2522.172,
720.631,2598.6631,
717.721,2670.2018,
714.810,2721.3011,
711.899,2731.2821,
708.989,2691.7428,
706.078,2728.3599,
703.168,2733.8567,
700.257,2708.396,
697.347,2666.5879,
694.436,2635.4383,
691.525,2670.002,
688.615,2674.3554,
685.704,2667.3197,
682.794,2659.3298,
679.883,2656.5092,
676.973,2678.9476,
674.062,2689.2427,
671.151,2693.3767,
668.241,2704.5064,
665.330,2738.5043,
662.420,2780.837,
659.509,2782.5158,
656.598,2781.962,
653.688,2791.1009,
650.777,2805.1499,
647.867,2765.3335,
644.956,2760.2149,
642.046,2754.6226,
639.135,2752.7228,
636.224,2787.5716,
633.314,2801.8625,
630.403,2825.6012,
627.493,2817.6078,
624.582,2779.3217,
621.672,2765.0658,
618.761,2750.0612,
615.850,2757.0707,
612.940,2771.2815,
610.029,2789.8381,
607.119,2845.9019,
604.208,2840.8498,
601.297,2810.0786,
598.387,2800.4113,
595.476,2839.5288,
592.566,2808.0461,
589.655,2794.7253,
586.745,2805.6889,
583.834,2806.8354,
580.923,2740.5426,
578.013,2747.6053,
575.102,2786.2097,
572.192,2827.7914,
569.281,2864.8886,
566.371,2928.2811,
563.460,2938.7328,
560.549,2939.5254,
557.639,2955.1509,
554.728,3001.2883,
551.818,3013.7734,
548.907,3015.8906,
545.996,3008.5018,
543.086,3002.7006,
540.175,3026.8387,
537.265,3051.6769,
534.354,3051.9713,
531.444,3042.1067,
528.533,3036.5686,
525.622,3009.4105,
522.712,3006.5338,
519.801,3019.5745,
516.891,3047.2033,
513.980,3095.2097,
511.070,3100.2043,
508.159,3080.4422,
505.248,3074.2728,
502.338,3123.3074,
499.427,3185.0539,
496.517,3174.9142,
493.606,3165.2677,
490.695,3187.9978,
487.785,3198.7749,
484.874,3172.7124,
481.964,3181.1709,
479.053,3201.2622,
476.143,3145.9689,
473.232,3198.6135,
470.321,3195.6846,
467.411,3158.8631,
464.500,3127.6551,
461.590,3133.7811,
458.679,3141.0029,
455.769,3150.541,
452.858,3165.7949,
449.947,3207.0472,
447.037,3211.2527,
444.126,3218.1121,
441.216,3234.3677,
438.305,3233.6058,
435.395,3229.5662,
432.484,3241.6696,
429.573,3259.5475,
426.663,3251.1859,
423.752,3295.1348,
420.842,3284.8154,
417.931,3252.3011,
415.020,3262.1597,
412.110,3370.7787,
409.199,3459.3997,
406.289,3499.6769,
403.378,3466.3053,
400.468,3408.8498,
397.557,3400.2688,
394.646,3363.4419,
391.736,3236.7133,
388.825,3180.9002,
385.915,3118.7313,
383.004,3108.7676,
380.094,3189.4906,
377.183,3287.3125,
374.272,3412.2005,
371.362,3512.7483,
368.451,3556.1809,
365.541,3550.9271,
362.630,3554.4162,
359.719,3576.554,
356.809,3618.0501,
353.898,3594.0886,
350.988,3553.8658,
348.077,3529.8561,
345.167,3542.2785,
342.256,3577.3908,
339.345,3532.7624,
336.435,3502.8211,
333.524,3551.8388,
330.614,3594.3127,
327.703,3607.5,
324.793,3601.5708,
321.882,3584.6659,
318.971,3653.0626,
316.061,3725.3314,
313.150,3768.8786,
310.240,3744.3888,
307.329,3797.0978,
304.418,3833.5465,
301.508,3826.2938,
298.597,3731.5204,
295.687,3663.9028,
292.776,3679.6669,
289.866,3803.9319,
286.955,4100.1608,
284.044,4355.6523,
281.134,4576.1451,
278.223,4761.3017,
275.313,4903.5148,
272.402,5070.0123,
269.492,5208.4235,
266.581,5305.0101,
263.670,5452.0462,
260.760,5534.2011,
257.849,5598.2157,
254.939,5677.4751,
252.028,5713.9684,
249.117,5726.1295,
246.207,5713.1354,
243.296,5669.2131,
240.386,5571.1222,
237.475,5500.3697,
234.565,5458.1025,
231.654,5404.7845,
228.743,5321.0036,
225.833,5215.9725,
222.922,5098.534,
220.012,5099.2625,
217.101,5056.317,
214.191,4973.6891,
211.280,4847.838,
208.369,4784.6749,
205.459,4720.5712,
202.548,4671.0209,
199.638,4714.5599,
196.727,4721.7714,
193.816,4717.4898,
190.906,4711.0587,
187.995,4726.9872,
185.085,4769.8556,
182.174,4801.1182,
179.264,4762.8116,
176.353,4801.4322,
173.442,4833.4763,
170.532,4841.7875,
167.621,4792.7612,
164.711,4737.9802,
161.800,4642.7453,
158.890,4473.6093,
155.979,4178.6057,
153.068,3842.275,
150.158,3469.1659,
147.247,3049.8818,
144.337,2521.5413,
141.426,1981.0764,
138.516,1471.3667,
135.605,1070.4681,
132.694,736.70248,
129.784,472.30559,
126.873,307.1106,
123.963,210.90229,
121.052,143.38647,
118.141,92.699423,
115.231,88.236578,
112.320,72.520014,
109.410,53.363645,
106.499,52.65149,
103.589,49.138473,
100.678,42.968918,
97.767,33.726729,
94.857,35.578967,
91.946,37.306222,
89.036,36.35494,
86.125,22.88004,
83.215,21.623681,
80.304,22.302837,
77.393,18.761987,
74.483,17.844865,
71.572,17.5,
68.662,17.430733,
65.751,16.724281,
62.840,18.90851,
59.930,21.125428,
57.019,19.715264,
54.109,26.66593,
51.198,26.372642,
48.288,14.471688,
45.377,10.954797,
42.466,14.034413,
39.556,19.69417,
36.645,14.778838,
33.735,20.769479,
30.824,27.279113,
27.914,26.577938,
25.003,27.745275,
22.092,32.374855,
19.182,41.369549,
16.271,67.950174,
13.361,280.37837,
10.450,738.14521,
7.539,1787.7132,
4.629,2704.8736,
1.718,3161.6077,
-1.192,2682.6694,
-4.103,1618.2377,
-7.013,676.81439,
-9.924,4.5,
