,PL1EBD~1,
Raman shift [1/cm],Intensity,
3014.167,0.5,
3011.256,-1.3999785,
3008.346,206.97464,
3005.435,241.53887,
3002.525,236.36745,
2999.614,271.26234,
2996.704,280.0402,
2993.793,283.5,
2990.882,289.71371,
2987.972,309.40919,
2985.061,289.7266,
2982.151,310.3975,
2979.240,329.33461,
2976.329,330.01365,
2973.419,335.3154,
2970.508,345.59994,
2967.598,374.06626,
2964.687,360.78261,
2961.777,379.31198,
2958.866,387.49703,
2955.955,393.77655,
2953.045,400.90271,
2950.134,435.05397,
2947.224,439.75622,
2944.313,447.15171,
2941.403,457.66697,
2938.492,469.5,
2935.581,457.52702,
2932.671,480.74035,
2929.760,470.73844,
2926.850,478.50714,
2923.939,509.93454,
2921.028,503.07033,
2918.118,520.2204,
2915.207,527.6203,
2912.297,525.52116,
2909.386,538.67519,
2906.476,529.30618,
2903.565,526.43481,
2900.654,533.82963,
2897.744,516.9526,
2894.833,535.18073,
2891.923,508.8782,
2889.012,511.66185,
2886.102,522.66757,
2883.191,502.51605,
2880.280,501.23683,
2877.370,467.43607,
2874.459,467.72653,
2871.549,506.73708,
2868.638,545.36596,
2865.727,543.5,
2862.817,539.12835,
2859.906,547.18376,
2856.996,561.45924,
2854.085,542.33188,
2851.175,537.54818,
2848.264,543.06867,
2845.353,554.39216,
2842.443,545.90627,
2839.532,532.73885,
2836.622,518.77539,
2833.711,530.9741,
2830.801,526.90294,
2827.890,520.2098,
2824.979,541.6239,
2822.069,531.45451,
2819.158,522.93935,
2816.248,541.64868,
2813.337,538.86097,
2810.427,541.37466,
2807.516,534.18344,
2804.605,519.36058,
2801.695,528.80263,
2798.784,546.02154,
2795.874,526.50528,
2792.963,535.64319,
2790.052,525.50386,
2787.142,525.36838,
2784.231,525.04813,
2781.321,530.99135,
2778.410,511.40482,
2775.500,507.84138,
2772.589,535.65291,
2769.678,530.78323,
2766.768,551.23982,
2763.857,551.65607,
2760.947,539.01576,
2758.036,529.64006,
2755.126,555.82479,
2752.215,574.77723,
2749.304,576.73381,
2746.394,548.73382,
2743.483,562.30001,
2740.573,562.27434,
2737.662,558.62721,
2734.751,570.05824,
2731.841,558.01282,
2728.930,598.70343,
2726.020,588.60706,
2723.109,557.12934,
2720.199,575.5781,
2717.288,589.83213,
2714.377,582.82524,
2711.467,586.82748,
2708.556,603.45747,
2705.646,598.27464,
2702.735,597.68816,
2699.825,606.76177,
2696.914,592.88091,
2694.003,605.5,
2691.093,601.48195,
2688.182,598.79111,
2685.272,588.01351,
2682.361,610.22926,
2679.450,618.91563,
2676.540,604.60162,
2673.629,610.82735,
2670.719,617.35398,
2667.808,612.84045,
2664.898,615.43482,
2661.987,624.3999,
2659.076,617.00862,
2656.166,614.53452,
2653.255,649.71939,
2650.345,638.6833,
2647.434,635.55687,
2644.524,633.60795,
2641.613,633.47109,
2638.702,647.18438,
2635.792,640.68545,
2632.881,650.14892,
2629.971,656.84235,
2627.060,647.83437,
2624.149,645.47187,
2621.239,650.24555,
2618.328,678.35555,
2615.418,653.82727,
2612.507,665.18771,
2609.597,668.68363,
2606.686,678.11044,
2603.775,673.13889,
2600.865,675.61606,
2597.954,678.21871,
2595.044,690.18733,
2592.133,700.17531,
2589.223,706.82526,
2586.312,707.32915,
2583.401,698.86859,
2580.491,707.64899,
2577.580,705.50165,
2574.670,705.94653,
2571.759,708.35359,
2568.848,709.85358,
2565.938,701.83324,
2563.027,711.57275,
2560.117,716.03273,
2557.206,726.92435,
2554.296,726.52975,
2551.385,721.8639,
2548.474,732.72268,
2545.564,749.27841,
2542.653,725.34228,
2539.743,729.89526,
2536.832,757.37851,
2533.922,738.97308,
2531.011,762.17554,
2528.100,760.42688,
2525.190,765.59426,
2522.279,751.53176,
2519.369,771.89626,
2516.458,761.04887,
2513.548,764.01803,
2510.637,763.27035,
2507.726,747.62268,
2504.816,766.87656,
2501.905,761.07988,
2498.995,770.90281,
2496.084,767.32582,
2493.173,779.3947,
2490.263,782.48871,
2487.352,800.20787,
2484.442,795.77837,
2481.531,807.2925,
2478.621,808.66112,
2475.710,815.60735,
2472.799,819.14137,
2469.889,817.07069,
2466.978,821.79922,
2464.068,800.0079,
2461.157,824.3075,
2458.247,812.83811,
2455.336,824.22019,
2452.425,795.59901,
2449.515,826.0759,
2446.604,825.11074,
2443.694,811.01239,
2440.783,841.07433,
2437.872,834.19283,
2434.962,846.98388,
2432.051,851.00653,
2429.141,851.57084,
2426.230,846.30443,
2423.320,890.78632,
2420.409,860.20523,
2417.498,878.42419,
2414.588,871.97539,
2411.677,876.71515,
2408.767,882.75295,
2405.856,898.0404,
2402.946,889.85657,
2400.035,863.21595,
2397.124,886.30747,
2394.214,902.33641,
2391.303,898.61043,
2388.393,897.54184,
2385.482,891.63219,
2382.571,926.63891,
2379.661,940.84878,
2376.750,927.97795,
2373.840,918.42186,
2370.929,924.44585,
2368.019,913.83807,
2365.108,920.63613,
2362.197,954.5,
2359.287,960.0883,
2356.376,945.52818,
2353.466,938.07532,
2350.555,947.2651,
2347.645,945.57948,
2344.734,934.40782,
2341.823,950.2015,
2338.913,963.05226,
2336.002,983.2081,
2333.092,984.43112,
2330.181,995.58947,
2327.270,977.82013,
2324.360,977.6674,
2321.449,999.97618,
2318.539,988.96789,
2315.628,1007.0284,
2312.718,973.1035,
2309.807,1008.9099,
2306.896,1012.9883,
2303.986,1010.6753,
2301.075,1006.0958,
2298.165,993.51908,
2295.254,1029.6598,
2292.344,1024.8111,
2289.433,1036.1177,
2286.522,1018.3661,
2283.612,1034.2016,
2280.701,1033.9798,
2277.791,1050.4599,
2274.880,1062.1258,
2271.969,1097.6687,
2269.059,1068.2112,
2266.148,1079.6569,
2263.238,1088.3996,
2260.327,1099.0864,
2257.417,1109.825,
2254.506,1092.4915,
2251.595,1120.3545,
2248.685,1101.877,
2245.774,1099.0054,
2242.864,1116.4726,
2239.953,1127.0863,
2237.043,1121.3446,
2234.132,1128.8481,
2231.221,1114.7092,
2228.311,1137.335,
2225.400,1148.6126,
2222.490,1153.7997,
2219.579,1163.6028,
2216.669,1176.9738,
2213.758,1180.5431,
2210.847,1227.8627,
2207.937,1241.4186,
2205.026,1247.2764,
2202.116,1298.3482,
2199.205,1318.0012,
2196.294,1327.0959,
2193.384,1346.1055,
2190.473,1365.8075,
2187.563,1373.7417,
2184.652,1431.4824,
2181.742,1475.0225,
2178.831,1509.7531,
2175.920,1558.5,
2173.010,1615.0544,
2170.099,1653.8314,
2167.189,1725.9808,
2164.278,1798.5161,
2161.368,1848.9267,
2158.457,1920.1193,
2155.546,1980.7568,
2152.636,2072.2391,
2149.725,2137.2919,
2146.815,2201.4979,
2143.904,2265.1878,
2140.993,2247.3729,
2138.083,2287.2295,
2135.172,2291.4748,
2132.262,2306.3917,
2129.351,2274.2308,
2126.441,2223.5096,
2123.530,2147.6133,
2120.619,2061.2435,
2117.709,1972.3201,
2114.798,1845.969,
2111.888,1766.9394,
2108.977,1676.5463,
2106.067,1582.5211,
2103.156,1582.616,
2100.245,1448.4975,
2097.335,1439.9241,
2094.424,1405.3033,
2091.514,1399.7123,
2088.603,1379.4125,
2085.692,1374.0947,
2082.782,1393.3955,
2079.871,1358.8909,
2076.961,1355.1771,
2074.050,1350.7727,
2071.140,1337.6263,
2068.229,1337.7852,
2065.318,1322.1172,
2062.408,1321.5,
2059.497,1319.6964,
2056.587,1320.6279,
2053.676,1318.2335,
2050.766,1313.8079,
2047.855,1290.3259,
2044.944,1317.4359,
2042.034,1306.945,
2039.123,1317.9444,
2036.213,1340.7155,
2033.302,1305.261,
2030.391,1285.9071,
2027.481,1309.2558,
2024.570,1313.6002,
2021.660,1320.9678,
2018.749,1310.3615,
2015.839,1358.5761,
2012.928,1360.4429,
2010.017,1335.7085,
2007.107,1326.6178,
2004.196,1327.2857,
2001.286,1311.2491,
1998.375,1308.5876,
1995.465,1311.0732,
1992.554,1292.2178,
1989.643,1325.2211,
1986.733,1290.393,
1983.822,1287.3715,
1980.912,1285.9658,
1978.001,1302.9323,
1975.090,1297.5076,
1972.180,1291.6037,
1969.269,1292.4627,
1966.359,1318.203,
1963.448,1313.6981,
1960.538,1309.9345,
1957.627,1283.7508,
1954.716,1314.4946,
1951.806,1293.1394,
1948.895,1320.6741,
1945.985,1297.768,
1943.074,1298.4412,
1940.164,1273.904,
1937.253,1288.513,
1934.342,1296.0299,
1931.432,1267.7492,
1928.521,1286.0613,
1925.611,1286.8768,
1922.700,1277.7086,
1919.790,1289.5577,
1916.879,1262.6622,
1913.968,1322.4238,
1911.058,1259.8033,
1908.147,1305.9686,
1905.237,1301.3088,
1902.326,1296.5,
1899.415,1282.3939,
1896.505,1256.6326,
1893.594,1254.686,
1890.684,1271.8005,
1887.773,1311.0944,
1884.863,1302.7278,
1881.952,1291.5,
1879.041,1286.9611,
1876.131,1256.1824,
1873.220,1293.9559,
1870.310,1265.2265,
1867.399,1267.42,
1864.489,1275.8894,
1861.578,1284.3792,
1858.667,1281.5688,
1855.757,1326.1086,
1852.846,1311.4744,
1849.936,1299.2207,
1847.025,1303.0304,
1844.114,1304.133,
1841.204,1316.5594,
1838.293,1331.9825,
1835.383,1323.919,
1832.472,1352.3852,
1829.562,1370.3628,
1826.651,1327.2598,
1823.740,1336.7069,
1820.830,1338.0117,
1817.919,1362.3744,
1815.009,1372.7812,
1812.098,1367.2165,
1809.188,1359.9341,
1806.277,1364.3893,
1803.366,1354.5,
1800.456,1354.555,
1797.545,1359.0956,
1794.635,1387.7919,
1791.724,1354.8785,
1788.813,1414.2959,
1785.903,1405.2519,
1782.992,1414.0127,
1780.082,1402.6924,
1777.171,1390.1622,
1774.261,1390.2903,
1771.350,1431.3725,
1768.439,1451.2024,
1765.529,1437.5879,
1762.618,1436.3757,
1759.708,1445.7934,
1756.797,1436.5,
1753.887,1464.707,
1750.976,1444.6342,
1748.065,1476.9439,
1745.155,1495.7001,
1742.244,1460.0009,
1739.334,1497.4835,
1736.423,1521.9131,
1733.512,1496.3048,
1730.602,1515.6727,
1727.691,1506.3085,
1724.781,1510.7255,
1721.870,1519.1334,
1718.960,1588.7453,
1716.049,1551.4836,
1713.138,1579.1198,
1710.228,1581.1485,
1707.317,1577.8463,
1704.407,1572.1096,
1701.496,1628.9275,
1698.586,1602.1605,
1695.675,1584.5287,
1692.764,1649.7705,
1689.854,1721.4252,
1686.943,1682.9502,
1684.033,1725.3824,
1681.122,1694.0607,
1678.211,1762.8338,
1675.301,1772.4722,
1672.390,1782.5628,
1669.480,1803.9813,
1666.569,1864.4395,
1663.659,1939.1822,
1660.748,2040.018,
1657.837,2015.7624,
1654.927,2028.9995,
1652.016,2091.3542,
1649.106,2087.6543,
1646.195,2174.7707,
1643.285,2227.9583,
1640.374,2289.4338,
1637.463,2241.3555,
1634.553,2344.1847,
1631.642,2457.3035,
1628.732,2530.737,
1625.821,2570.6387,
1622.911,2781.3054,
1620.000,2937.522,
1617.089,3069.8532,
1614.179,3272.6906,
1611.268,3475.8785,
1608.358,3561.6605,
1605.447,3641.872,
1602.536,3803.057,
1599.626,3771.2632,
1596.715,3792.9128,
1593.805,3756.1494,
1590.894,3702.1825,
1587.984,3658.258,
1585.073,3689.0851,
1582.162,3644.572,
1579.252,3636.1366,
1576.341,3566.0064,
1573.431,3531.2702,
1570.520,3571.5982,
1567.610,3533.3423,
1564.699,3477.0734,
1561.788,3414.6131,
1558.878,3312.5684,
1555.967,3255.3407,
1553.057,3214.8796,
1550.146,3163.7001,
1547.235,3091.1416,
1544.325,3073.597,
1541.414,3057.7969,
1538.504,3012.4617,
1535.593,2990.0916,
1532.683,2963.5303,
1529.772,2908.4692,
1526.861,2857.0162,
1523.951,2835.5,
1521.040,2811.52,
1518.130,2747.1164,
1515.219,2698.9406,
1512.309,2691.3919,
1509.398,2705.373,
1506.487,2624.5,
1503.577,2631.2598,
1500.666,2666.5826,
1497.756,2638.2461,
1494.845,2669.4589,
1491.934,2620.2701,
1489.024,2550.0081,
1486.113,2498.3576,
1483.203,2482.9538,
1480.292,2468.7723,
1477.382,2480.2402,
1474.471,2427.4813,
1471.560,2406.146,
1468.650,2387.4182,
1465.739,2355.1614,
1462.829,2347.4682,
1459.918,2353.71,
1457.008,2351.9461,
1454.097,2338.3325,
1451.186,2334.8172,
1448.276,2350.5587,
1445.365,2349.1414,
1442.455,2346.5326,
1439.544,2379.321,
1436.633,2347.1594,
1433.723,2314.6186,
1430.812,2327.2835,
1427.902,2297.8088,
1424.991,2226.7266,
1422.081,2169.4514,
1419.170,2219.7999,
1416.259,2191.2371,
1413.349,2166.6399,
1410.438,2139.1071,
1407.528,2146.881,
1404.617,2161.197,
1401.707,2157.0808,
1398.796,2136.8112,
1395.885,2149.1971,
1392.975,2185.6665,
1390.064,2176.3797,
1387.154,2156.9199,
1384.243,2119.292,
1381.332,2092.488,
1378.422,2121.7652,
1375.511,2223.8744,
1372.601,2317.657,
1369.690,2424.9378,
1366.780,2522.2876,
1363.869,2568.9267,
1360.958,2616.1323,
1358.048,2634.9067,
1355.137,2689.6968,
1352.227,2731.7222,
1349.316,2741.5526,
1346.406,2802.7926,
1343.495,2883.9495,
1340.584,2926.9643,
1337.674,2932.0041,
1334.763,2996.8288,
1331.853,3058.0261,
1328.942,3126.3203,
1326.032,3148.3656,
1323.121,3170.0241,
1320.210,3217.1212,
1317.300,3278.226,
1314.389,3330.1394,
1311.479,3349.8787,
1308.568,3380.264,
1305.657,3463.8195,
1302.747,3535.6314,
1299.836,3599.9621,
1296.926,3719.2946,
1294.015,3757.9062,
1291.105,3841.3904,
1288.194,3955.5379,
1285.283,3997.2521,
1282.373,4080.07,
1279.462,4154.1465,
1276.552,4165.0275,
1273.641,4173.7948,
1270.731,4202.9149,
1267.820,4186.4328,
1264.909,4212.0376,
1261.999,4150.1671,
1259.088,4141.0459,
1256.178,4065.9883,
1253.267,4084.1878,
1250.356,3981.7531,
1247.446,3880.9751,
1244.535,3808.8483,
1241.625,3745.6815,
1238.714,3654.7662,
1235.804,3539.364,
1232.893,3559.5123,
1229.982,3500.5256,
1227.072,3412.7103,
1224.161,3356.0698,
1221.251,3295.1289,
1218.340,3217.9013,
1215.430,3183.2979,
1212.519,3140.2989,
1209.608,3080.9319,
1206.698,3064.7766,
1203.787,3076.6005,
1200.877,3123.5647,
1197.966,3173.0184,
1195.055,3223.2819,
1192.145,3323.1639,
1189.234,3379.4517,
1186.324,3440.9591,
1183.413,3524.2209,
1180.503,3551.5078,
1177.592,3499.2879,
1174.681,3500.137,
1171.771,3440.048,
1168.860,3333.7703,
1165.950,3335.5943,
1163.039,3250.5012,
1160.129,3214.2696,
1157.218,3177.5219,
1154.307,3127.2244,
1151.397,3105.7651,
1148.486,3086.5029,
1145.576,3069.5385,
1142.665,3070.4265,
1139.754,3072.1273,
1136.844,3043.0873,
1133.933,3007.6263,
1131.023,3000.9419,
1128.112,2998.2876,
1125.202,2974.2585,
1122.291,2975.8814,
1119.380,2992.7512,
1116.470,3018.3445,
1113.559,3052.43,
1110.649,3041.8546,
1107.738,3026.1418,
1104.828,3017.339,
1101.917,3015.6422,
1099.006,3030.7576,
1096.096,3054.9087,
1093.185,3045.2507,
1090.275,3078.4893,
1087.364,3053.5661,
1084.453,3023.3135,
1081.543,3036.4786,
1078.632,3059.4116,
1075.722,3039.8761,
1072.811,3041.1897,
1069.901,3036.8234,
1066.990,3088.2332,
1064.079,3114.1103,
1061.169,3149.2197,
1058.258,3187.322,
1055.348,3219.2583,
1052.437,3241.2684,
1049.527,3210.507,
1046.616,3236.5719,
1043.705,3263.3937,
1040.795,3280.0776,
1037.884,3263.2475,
1034.974,3250.0657,
1032.063,3263.3077,
1029.153,3258.773,
1026.242,3252.7183,
1023.331,3287.4978,
1020.421,3279.1638,
1017.510,3306.1166,
1014.600,3357.0299,
1011.689,3415.5862,
1008.778,3484.2178,
1005.868,3518.4112,
1002.957,3619.933,
1000.047,3798.5721,
997.136,3908.248,
994.226,3922.4234,
991.315,3867.0545,
988.404,3786.7994,
985.494,3730.0423,
982.583,3664.944,
979.673,3656.2316,
976.762,3616.5771,
973.852,3574.7977,
970.941,3565.7987,
968.030,3580.5404,
965.120,3552.4964,
962.209,3551.6439,
959.299,3593.2867,
956.388,3598.1808,
953.477,3586.0338,
950.567,3584.8528,
947.656,3598.9645,
944.746,3655.8848,
941.835,3596.9542,
938.925,3619.3508,
936.014,3653.6748,
933.103,3667.7938,
930.193,3659.109,
927.282,3627.1169,
924.372,3583.1454,
921.461,3518.588,
918.551,3463.8059,
915.640,3419.9526,
912.729,3389.4747,
909.819,3375.8311,
906.908,3355.6129,
903.998,3419.7199,
901.087,3449.2301,
898.176,3435.9806,
895.266,3439.2093,
892.355,3501.2536,
889.445,3537.3421,
886.534,3595.1062,
883.624,3614.574,
880.713,3641.466,
877.802,3652.7309,
874.892,3617.7923,
871.981,3552.6578,
869.071,3559.3411,
866.160,3586.7185,
863.250,3602.1694,
860.339,3618.3871,
857.428,3623.517,
854.518,3547.7648,
851.607,3556.9176,
848.697,3529.6117,
845.786,3522.2086,
842.875,3525.7523,
839.965,3525.5535,
837.054,3540.1885,
834.144,3601.5161,
831.233,3582.1689,
828.323,3564.0271,
825.412,3560.8561,
822.501,3555.0318,
819.591,3530.2398,
816.680,3478.2179,
813.770,3429.1628,
810.859,3388.0966,
807.949,3364.7756,
805.038,3369.4823,
802.127,3402.4074,
799.217,3395.8099,
796.306,3335.7428,
793.396,3324.424,
790.485,3361.0229,
787.574,3311.0293,
784.664,3324.9712,
781.753,3292.6088,
778.843,3297.5537,
775.932,3332.2282,
773.022,3359.8948,
770.111,3368.8881,
767.200,3316.9694,
764.290,3331.1275,
761.379,3344.441,
758.469,3332.3834,
755.558,3338.26,
752.648,3296.7153,
749.737,3256.5133,
746.826,3231.5742,
743.916,3186.2008,
741.005,3075.8097,
738.095,2928.0481,
735.184,2744.6061,
732.274,2690.5956,
729.363,2806.4039,
726.452,3038.0578,
723.542,3174.0359,
720.631,3227.3723,
717.721,3263.841,
714.810,3269.841,
711.899,3253.8168,
708.989,3259.4653,
706.078,3253.0896,
703.168,3224.7823,
700.257,3213.6886,
697.347,3209.2405,
694.436,3162.6566,
691.525,3205.2582,
688.615,3183.6834,
685.704,3174.5656,
682.794,3179.7128,
679.883,3157.0675,
676.973,3147.451,
674.062,3188.8896,
671.151,3220.5133,
668.241,3230.9295,
665.330,3235.3487,
662.420,3232.1538,
659.509,3219.4363,
656.598,3215.962,
653.688,3221.1901,
650.777,3223.338,
647.867,3218.56,
644.956,3234.8362,
642.046,3236.7934,
639.135,3224.7096,
636.224,3225.8859,
633.314,3302.898,
630.403,3305.3549,
627.493,3283.8981,
624.582,3276.9754,
621.672,3314.9911,
618.761,3326.3792,
615.850,3328.398,
612.940,3344.2352,
610.029,3375.7109,
607.119,3370.9731,
604.208,3386.1203,
601.297,3371.5623,
598.387,3372.8573,
595.476,3425.7517,
592.566,3396.6301,
589.655,3411.5846,
586.745,3395.16,
583.834,3354.0104,
580.923,3334.2631,
578.013,3295.0264,
575.102,3275.8962,
572.192,3313.446,
569.281,3385.3294,
566.371,3345.4156,
563.460,3387.3554,
560.549,3436.224,
557.639,3454.3404,
554.728,3420.323,
551.818,3449.1947,
548.907,3472.5636,
545.996,3481.1673,
543.086,3478.1711,
540.175,3481.2856,
537.265,3507.5741,
534.354,3531.5473,
531.444,3541.5988,
528.533,3533.3762,
525.622,3559.7584,
522.712,3584.3094,
519.801,3612.1571,
516.891,3644.2297,
513.980,3677.5244,
511.070,3746.0043,
508.159,3790.6924,
505.248,3807.2467,
502.338,3802.8496,
499.427,3883.1201,
496.517,3906.7626,
493.606,3898.0688,
490.695,3879.7467,
487.785,3895.9123,
484.874,3923.0565,
481.964,3938.9917,
479.053,3934.4102,
476.143,3900.6199,
473.232,3926.5567,
470.321,3915.1175,
467.411,3897.5782,
464.500,3913.9291,
461.590,3851.9042,
458.679,3869.1686,
455.769,3894.3494,
452.858,3891.4767,
449.947,3929.6733,
447.037,3955.0961,
444.126,3940.2515,
441.216,3899.9978,
438.305,3925.9035,
435.395,3932.1225,
432.484,3925.5817,
429.573,3911.66,
426.663,3899.4977,
423.752,3898.5,
420.842,3852.3747,
417.931,3829.8203,
415.020,3943.574,
412.110,3950.4265,
409.199,3980.3508,
406.289,4035.8359,
403.378,4113.3694,
400.468,4074.8137,
397.557,4030.6227,
394.646,3988.9181,
391.736,3955.834,
388.825,3903.792,
385.915,3910.3199,
383.004,3948.3459,
380.094,3999.4157,
377.183,4076.1683,
374.272,4147.4358,
371.362,4183.6135,
368.451,4175.5636,
365.541,4275.3849,
362.630,4284.4741,
359.719,4277.4911,
356.809,4299.3092,
353.898,4345.7346,
350.988,4326.4933,
348.077,4311.1164,
345.167,4340.3704,
342.256,4357.5529,
339.345,4358.2485,
336.435,4366.4365,
333.524,4397.7819,
330.614,4406.7237,
327.703,4425.4156,
324.793,4446.9448,
321.882,4465.6767,
318.971,4538.5341,
316.061,4575.2195,
313.150,4608.5166,
310.240,4676.0492,
307.329,4675.6415,
304.418,4691.3703,
301.508,4707.9554,
298.597,4694.6279,
295.687,4700.9496,
292.776,4800.3338,
289.866,4980.1173,
286.955,5196.5639,
284.044,5399.5398,
281.134,5600.9589,
278.223,5791.9305,
275.313,5917.9328,
272.402,6085.0786,
269.492,6241.6324,
266.581,6367.1739,
263.670,6460.5418,
260.760,6595.6333,
257.849,6734.0206,
254.939,6847.0385,
252.028,6913.646,
249.117,6884.5944,
246.207,6810.8401,
243.296,6773.5062,
240.386,6819.7804,
237.475,6804.6236,
234.565,6723.2358,
231.654,6632.6682,
228.743,6471.9595,
225.833,6338.5348,
222.922,6273.1115,
220.012,6286.2255,
217.101,6182.5425,
214.191,6064.5989,
211.280,6044.9574,
208.369,5992.3662,
205.459,5941.1495,
202.548,5903.2549,
199.638,5913.414,
196.727,5926.4481,
193.816,5922.1581,
190.906,5894.3888,
187.995,5919.7297,
185.085,5956.3985,
182.174,5983.9741,
179.264,5970.9643,
176.353,6064.9761,
173.442,6069.9173,
170.532,5986.7682,
167.621,6006.2345,
164.711,5930.037,
161.800,5778.8384,
158.890,5551.4045,
155.979,5204.3065,
153.068,4767.3789,
150.158,4255.8357,
147.247,3699.4227,
144.337,3037.9357,
141.426,2388.3158,
138.516,1806.2001,
135.605,1288.3656,
132.694,882.54501,
129.784,578.89458,
126.873,380.80362,
123.963,261.96832,
121.052,183.80291,
118.141,136.68538,
115.231,110.2089,
112.320,88.909102,
109.410,72.863737,
106.499,64.317874,
103.589,58.578219,
100.678,51.968918,
97.767,42.726729,
94.857,39.728044,
91.946,35.678224,
89.036,32.06449,
86.125,35.610516,
83.215,32.252637,
80.304,28.021135,
77.393,26.604795,
74.483,24.534595,
71.572,24.949408,
68.662,26.66879,
65.751,18.191377,
62.840,19.835318,
59.930,23.563569,
57.019,20.038159,
54.109,15.319874,
51.198,12.801609,
48.288,13.567949,
45.377,22.008486,
42.466,23.438903,
39.556,20.5,
36.645,20.5,
33.735,19.461503,
30.824,17.616452,
27.914,14.811751,
25.003,18.235825,
22.092,18.562573,
19.182,15.026306,
16.271,31.114579,
13.361,139.49283,
10.450,326.61439,
7.539,600.35401,
4.629,656.01025,
1.718,519.83809,
-1.192,123.16285,
-4.103,-5.8893639,
-7.013,-39.474747,
-9.924,-0.5,
