,PLE689~1,
Raman shift [1/cm],Intensity,
3014.167,0.625,
3011.256,-2.5251396,
3008.346,378.62264,
3005.435,451.4766,
3002.525,491.0976,
2999.614,485.68341,
2996.704,489.11262,
2993.793,515.12039,
2990.882,527.66312,
2987.972,523.93779,
2985.061,576.75799,
2982.151,573.55106,
2979.240,602.0423,
2976.329,610.64684,
2973.419,642.25581,
2970.508,657.27491,
2967.598,678.38604,
2964.687,677.92323,
2961.777,677.18905,
2958.866,726.94893,
2955.955,740.38385,
2953.045,764.72568,
2950.134,780.54048,
2947.224,798.19438,
2944.313,805.04095,
2941.403,839.16195,
2938.492,836.1047,
2935.581,874.41515,
2932.671,884.77946,
2929.760,875.87118,
2926.850,895.46823,
2923.939,901.06425,
2921.028,898.23083,
2918.118,961.06076,
2915.207,941.34037,
2912.297,945.65039,
2909.386,935.95349,
2906.476,930.00418,
2903.565,946.73834,
2900.654,945.13055,
2897.744,946.31069,
2894.833,932.75881,
2891.923,938.0833,
2889.012,920.2435,
2886.102,933.16825,
2883.191,917.63444,
2880.280,911.58672,
2877.370,879.30534,
2874.459,855.07807,
2871.549,921.21743,
2868.638,971.21879,
2865.727,947.99422,
2862.817,967.38301,
2859.906,946.67628,
2856.996,953.16802,
2854.085,966.5116,
2851.175,972.76955,
2848.264,975.20334,
2845.353,972.67605,
2842.443,931.62152,
2839.532,933.07277,
2836.622,946.82683,
2833.711,910.24668,
2830.801,938.71103,
2827.890,945.10226,
2824.979,947.82292,
2822.069,940.96616,
2819.158,966.06435,
2816.248,947.41842,
2813.337,989.17134,
2810.427,971.76413,
2807.516,986.08515,
2804.605,973.4519,
2801.695,959.16451,
2798.784,972.625,
2795.874,972.06565,
2792.963,961.26787,
2790.052,951.62714,
2787.142,963.11188,
2784.231,942.78807,
2781.321,957.50504,
2778.410,968.55013,
2775.500,983.23982,
2772.589,974.0088,
2769.678,970.44407,
2766.768,1002.5396,
2763.857,986.15294,
2760.947,1005.1597,
2758.036,986.05797,
2755.126,1025.5823,
2752.215,1011.0295,
2749.304,1014.8588,
2746.394,1019.3549,
2743.483,1021.775,
2740.573,1009.8816,
2737.662,1024.9445,
2734.751,1021.2074,
2731.841,1040.788,
2728.930,1049.8667,
2726.020,1024.0741,
2723.109,1066.6347,
2720.199,1043.8219,
2717.288,1051.5703,
2714.377,1052.6919,
2711.467,1070.1657,
2708.556,1089.3164,
2705.646,1081.794,
2702.735,1094.4575,
2699.825,1095.0923,
2696.914,1112.0064,
2694.003,1091.8543,
2691.093,1080.8212,
2688.182,1084.3169,
2685.272,1099.0233,
2682.361,1098.1075,
2679.450,1093.1641,
2676.540,1098.5234,
2673.629,1089.9748,
2670.719,1110.8875,
2667.808,1112.3545,
2664.898,1101.1571,
2661.987,1127.7251,
2659.076,1115.9138,
2656.166,1130.1575,
2653.255,1149.4702,
2650.345,1157.4326,
2647.434,1173.0537,
2644.524,1182.6442,
2641.613,1187.1963,
2638.702,1178.7355,
2635.792,1189.8134,
2632.881,1178.5834,
2629.971,1173.88,
2627.060,1174.6244,
2624.149,1181.9219,
2621.239,1173.3528,
2618.328,1201.7695,
2615.418,1218.9977,
2612.507,1210.3127,
2609.597,1221.9823,
2606.686,1197.7154,
2603.775,1228.5496,
2600.865,1233.6864,
2597.954,1256.5709,
2595.044,1247.8491,
2592.133,1255.5038,
2589.223,1268.6977,
2586.312,1270.9165,
2583.401,1265.3184,
2580.491,1260.6394,
2577.580,1290.62,
2574.670,1287.0715,
2571.759,1285.0745,
2568.848,1283.8018,
2565.938,1304.625,
2563.027,1306.4545,
2560.117,1295.6437,
2557.206,1309.3224,
2554.296,1315.6479,
2551.385,1309.1452,
2548.474,1328.1064,
2545.564,1312.0998,
2542.653,1330.1619,
2539.743,1336.5264,
2536.832,1335.5633,
2533.922,1332.8773,
2531.011,1353.2996,
2528.100,1367.2243,
2525.190,1367.8344,
2522.279,1383.1712,
2519.369,1357.2474,
2516.458,1365.0691,
2513.548,1357.3433,
2510.637,1363.6413,
2507.726,1359.2421,
2504.816,1373.0613,
2501.905,1363.1902,
2498.995,1351.7597,
2496.084,1372.078,
2493.173,1382.0462,
2490.263,1400.7821,
2487.352,1415.7518,
2484.442,1434.5051,
2481.531,1418.2048,
2478.621,1441.1227,
2475.710,1430.6787,
2472.799,1438.3649,
2469.889,1449.3508,
2466.978,1436.9757,
2464.068,1454.4822,
2461.157,1487.1976,
2458.247,1472.0368,
2455.336,1479.9225,
2452.425,1490.5401,
2449.515,1499.521,
2446.604,1490.9199,
2443.694,1507.0675,
2440.783,1500.1926,
2437.872,1547.3697,
2434.962,1543.2517,
2432.051,1547.2114,
2429.141,1548.6073,
2426.230,1547.8206,
2423.320,1573.8966,
2420.409,1564.625,
2417.498,1564.0267,
2414.588,1545.6403,
2411.677,1584.7644,
2408.767,1562.1309,
2405.856,1581.9178,
2402.946,1591.6724,
2400.035,1583.0288,
2397.124,1607.4218,
2394.214,1616.4346,
2391.303,1613.6636,
2388.393,1631.0762,
2385.482,1621.2419,
2382.571,1610.7127,
2379.661,1639.3925,
2376.750,1660.514,
2373.840,1665.2907,
2370.929,1668.5492,
2368.019,1668.5997,
2365.108,1687.3004,
2362.197,1687.7785,
2359.287,1703.4066,
2356.376,1712.6127,
2353.466,1694.6559,
2350.555,1684.6499,
2347.645,1694.0581,
2344.734,1745.9661,
2341.823,1752.7079,
2338.913,1732.7101,
2336.002,1743.4672,
2333.092,1724.5561,
2330.181,1760.6121,
2327.270,1793.4699,
2324.360,1788.0543,
2321.449,1761.5332,
2318.539,1774.2642,
2315.628,1778.5327,
2312.718,1802.3563,
2309.807,1799.6497,
2306.896,1816.1446,
2303.986,1821.8847,
2301.075,1805.4336,
2298.165,1803.0097,
2295.254,1837.8925,
2292.344,1814.8324,
2289.433,1826.2891,
2286.522,1839.4865,
2283.612,1880.9171,
2280.701,1893.625,
2277.791,1885.8272,
2274.880,1904.1392,
2271.969,1893.4769,
2269.059,1925.8947,
2266.148,1931.216,
2263.238,1926.7293,
2260.327,1991.4522,
2257.417,1956.9278,
2254.506,1967.038,
2251.595,1949.4759,
2248.685,1986.296,
2245.774,1978.7022,
2242.864,2002.5228,
2239.953,1996.411,
2237.043,2017.1564,
2234.132,2009.7392,
2231.221,2031.7052,
2228.311,2040.9742,
2225.400,2050.0604,
2222.490,2096.6543,
2219.579,2082.5993,
2216.669,2098.5391,
2213.758,2121.8433,
2210.847,2158.4789,
2207.937,2177.1771,
2205.026,2189.2912,
2202.116,2211.0156,
2199.205,2242.0495,
2196.294,2282.9729,
2193.384,2309.467,
2190.473,2326.0687,
2187.563,2406.7845,
2184.652,2448.3605,
2181.742,2515.059,
2178.831,2609.3879,
2175.920,2747.7361,
2173.010,2904.4833,
2170.099,3020.883,
2167.189,3197.7085,
2164.278,3379.3195,
2161.368,3608.191,
2158.457,3777.2383,
2155.546,3969.4223,
2152.636,4161.0556,
2149.725,4335.4504,
2146.815,4455.3882,
2143.904,4524.5803,
2140.993,4649.5457,
2138.083,4632.7556,
2135.172,4655.1292,
2132.262,4617.0722,
2129.351,4528.9246,
2126.441,4392.7703,
2123.530,4254.0098,
2120.619,4006.8367,
2117.709,3839.3947,
2114.798,3587.5434,
2111.888,3366.2293,
2108.977,3151.1945,
2106.067,2993.6532,
2103.156,2855.6456,
2100.245,2774.5729,
2097.335,2679.7036,
2094.424,2601.4809,
2091.514,2598.1624,
2088.603,2517.4177,
2085.692,2479.9857,
2082.782,2474.7455,
2079.871,2458.3741,
2076.961,2411.5956,
2074.050,2443.4311,
2071.140,2434.476,
2068.229,2405.9922,
2065.318,2413.4903,
2062.408,2385.3512,
2059.497,2343.2381,
2056.587,2337.6949,
2053.676,2367.9229,
2050.766,2339.6272,
2047.855,2348.8845,
2044.944,2323.758,
2042.034,2329.128,
2039.123,2340.9045,
2036.213,2340.9317,
2033.302,2345.4511,
2030.391,2357.7941,
2027.481,2399.8442,
2024.570,2409.0965,
2021.660,2423.6789,
2018.749,2355.3468,
2015.839,2373.894,
2012.928,2381.3716,
2010.017,2389.2623,
2007.107,2368.9745,
2004.196,2365.9464,
2001.286,2354.3953,
1998.375,2357.8878,
1995.465,2362.1982,
1992.554,2334.5782,
1989.643,2367.3116,
1986.733,2361.4846,
1983.822,2328.4212,
1980.912,2353.2979,
1978.001,2342.3875,
1975.090,2340.6632,
1972.180,2321.2806,
1969.269,2344.3636,
1966.359,2332.5435,
1963.448,2324.8522,
1960.538,2344.8552,
1957.627,2387.8572,
1954.716,2346.0039,
1951.806,2370.0785,
1948.895,2356.8194,
1945.985,2344.3652,
1943.074,2363.3336,
1940.164,2336.0863,
1937.253,2317.1816,
1934.342,2299.5138,
1931.432,2295.2843,
1928.521,2294.4816,
1925.611,2281.255,
1922.700,2283.1651,
1919.790,2375.9188,
1916.879,2313.4142,
1913.968,2331.5955,
1911.058,2356.9163,
1908.147,2319.6878,
1905.237,2336.9486,
1902.326,2362.2754,
1899.415,2323.8421,
1896.505,2329.6189,
1893.594,2322.439,
1890.684,2342.5007,
1887.773,2353.625,
1884.863,2357.4519,
1881.952,2356.835,
1879.041,2358.651,
1876.131,2319.7204,
1873.220,2378.6164,
1870.310,2353.3515,
1867.399,2347.673,
1864.489,2334.5735,
1861.578,2311.6138,
1858.667,2339.0112,
1855.757,2331.02,
1852.846,2338.6353,
1849.936,2345.2296,
1847.025,2370.968,
1844.114,2429.305,
1841.204,2411.7369,
1838.293,2393.5784,
1835.383,2435.2875,
1832.472,2433.578,
1829.562,2432.9294,
1826.651,2464.2923,
1823.740,2491.1844,
1820.830,2482.7351,
1817.919,2473.7387,
1815.009,2485.4685,
1812.098,2487.625,
1809.188,2472.6173,
1806.277,2489.2266,
1803.366,2475.7082,
1800.456,2483.0981,
1797.545,2524.5187,
1794.635,2515.947,
1791.724,2539.5472,
1788.813,2577.8227,
1785.903,2575.7839,
1782.992,2597.4536,
1780.082,2601.5871,
1777.171,2567.2845,
1774.261,2545.3701,
1771.350,2598.7405,
1768.439,2636.9824,
1765.529,2611.9917,
1762.618,2650.95,
1759.708,2662.9401,
1756.797,2658.3902,
1753.887,2671.2154,
1750.976,2715.7735,
1748.065,2711.5175,
1745.155,2705.3991,
1742.244,2733.8134,
1739.334,2731.6156,
1736.423,2744.7016,
1733.512,2760.6291,
1730.602,2765.8691,
1727.691,2783.5135,
1724.781,2830.3136,
1721.870,2901.9825,
1718.960,2869.7578,
1716.049,2901.5737,
1713.138,2925.8699,
1710.228,2895.5537,
1707.317,2949.8913,
1704.407,2958.5234,
1701.496,3020.6102,
1698.586,3009.0693,
1695.675,3061.8961,
1692.764,3111.0676,
1689.854,3069.6171,
1686.943,3132.3654,
1684.033,3114.1466,
1681.122,3116.574,
1678.211,3221.6162,
1675.301,3278.4523,
1672.390,3334.9689,
1669.480,3449.7293,
1666.569,3463.8184,
1663.659,3557.066,
1660.748,3586.2859,
1657.837,3722.7841,
1654.927,3775.9839,
1652.016,3833.8886,
1649.106,3886.7304,
1646.195,3970.9127,
1643.285,3985.6784,
1640.374,4117.9212,
1637.463,4180.6426,
1634.553,4293.3589,
1631.642,4477.5577,
1628.732,4654.7745,
1625.821,4847.8167,
1622.911,5138.9739,
1620.000,5394.3871,
1617.089,5642.6499,
1614.179,6013.9932,
1611.268,6317.3229,
1608.358,6542.1366,
1605.447,6773.2554,
1602.536,6903.1109,
1599.626,6992.5791,
1596.715,6965.1362,
1593.805,6845.3619,
1590.894,6880.9425,
1587.984,6915.3399,
1585.073,6865.1727,
1582.162,6810.5412,
1579.252,6754.1635,
1576.341,6765.2537,
1573.431,6723.6346,
1570.520,6657.1186,
1567.610,6602.6244,
1564.699,6588.9,
1561.788,6509.7525,
1558.878,6361.9208,
1555.967,6217.4533,
1553.057,6162.332,
1550.146,6056.8398,
1547.235,5940.4956,
1544.325,5842.5476,
1541.414,5732.9784,
1538.504,5667.2937,
1535.593,5616.1849,
1532.683,5506.6347,
1529.772,5400.3192,
1526.861,5340.2783,
1523.951,5266.8438,
1521.040,5180.247,
1518.130,5116.2268,
1515.219,5083.5452,
1512.309,5065.7151,
1509.398,5027.6765,
1506.487,4995.1842,
1503.577,4977.2737,
1500.666,4956.0141,
1497.756,4893.8705,
1494.845,4868.7829,
1491.934,4776.4612,
1489.024,4726.4116,
1486.113,4703.299,
1483.203,4698.0723,
1480.292,4582.2274,
1477.382,4599.6127,
1474.471,4584.8363,
1471.560,4513.7664,
1468.650,4465.7104,
1465.739,4421.96,
1462.829,4411.3836,
1459.918,4424.9124,
1457.008,4402.6862,
1454.097,4397.7329,
1451.186,4419.2188,
1448.276,4407.1974,
1445.365,4399.3035,
1442.455,4392.3386,
1439.544,4370.2408,
1436.633,4356.344,
1433.723,4375.8833,
1430.812,4356.2556,
1427.902,4350.926,
1424.991,4321.5453,
1422.081,4267.4113,
1419.170,4241.0235,
1416.259,4275.698,
1413.349,4302.7508,
1410.438,4236.5477,
1407.528,4215.2811,
1404.617,4226.4963,
1401.707,4224.2657,
1398.796,4241.2823,
1395.885,4289.3614,
1392.975,4332.9588,
1390.064,4335.6721,
1387.154,4285.3815,
1384.243,4256.1067,
1381.332,4241.7982,
1378.422,4346.7258,
1375.511,4484.4326,
1372.601,4634.9978,
1369.690,4742.7767,
1366.780,4812.4834,
1363.869,4900.7257,
1360.958,4973.5197,
1358.048,5058.3294,
1355.137,5162.13,
1352.227,5276.645,
1349.316,5353.6239,
1346.406,5412.8411,
1343.495,5536.0536,
1340.584,5616.5522,
1337.674,5703.5178,
1334.763,5709.1528,
1331.853,5880.6905,
1328.942,5885.8461,
1326.032,5978.6058,
1323.121,6039.6371,
1320.210,6092.9143,
1317.300,6148.0389,
1314.389,6213.7369,
1311.479,6327.7701,
1308.568,6453.7195,
1305.657,6533.1588,
1302.747,6624.4506,
1299.836,6727.5097,
1296.926,6881.1115,
1294.015,6977.6405,
1291.105,7214.088,
1288.194,7367.0339,
1285.283,7552.9977,
1282.373,7731.6949,
1279.462,7829.8205,
1276.552,7948.4679,
1273.641,8063.0783,
1270.731,8060.6877,
1267.820,8034.8185,
1264.909,8049.5476,
1261.999,8013.2242,
1259.088,8029.6424,
1256.178,7822.5061,
1253.267,7690.1912,
1250.356,7571.9047,
1247.446,7393.5043,
1244.535,7167.795,
1241.625,6949.6364,
1238.714,6741.3596,
1235.804,6526.0184,
1232.893,6379.6543,
1229.982,6242.8227,
1227.072,6130.564,
1224.161,6095.7289,
1221.251,5988.6272,
1218.340,5855.1576,
1215.430,5750.4252,
1212.519,5653.8411,
1209.608,5616.6838,
1206.698,5661.9652,
1203.787,5641.9617,
1200.877,5660.6986,
1197.966,5758.7069,
1195.055,5841.2706,
1192.145,6004.8937,
1189.234,6077.3327,
1186.324,6215.0916,
1183.413,6314.7671,
1180.503,6339.3153,
1177.592,6367.3314,
1174.681,6254.1627,
1171.771,6206.9875,
1168.860,6092.6721,
1165.950,5981.6451,
1163.039,5868.2294,
1160.129,5834.9337,
1157.218,5817.4726,
1154.307,5774.2186,
1151.397,5708.3435,
1148.486,5615.8786,
1145.576,5592.3121,
1142.665,5539.0374,
1139.754,5458.1439,
1136.844,5393.7047,
1133.933,5366.5869,
1131.023,5333.7713,
1128.112,5297.2686,
1125.202,5291.2482,
1122.291,5296.4835,
1119.380,5254.0321,
1116.470,5295.5109,
1113.559,5374.8569,
1110.649,5378.9442,
1107.738,5366.4101,
1104.828,5365.7055,
1101.917,5352.648,
1099.006,5321.1094,
1096.096,5348.7761,
1093.185,5302.2419,
1090.275,5309.1455,
1087.364,5288.2968,
1084.453,5292.8115,
1081.543,5307.2543,
1078.632,5292.7615,
1075.722,5261.5235,
1072.811,5297.6107,
1069.901,5325.555,
1066.990,5370.4666,
1064.079,5398.9989,
1061.169,5447.943,
1058.258,5495.447,
1055.348,5537.3779,
1052.437,5591.7568,
1049.527,5605.0418,
1046.616,5667.5975,
1043.705,5704.6848,
1040.795,5723.2026,
1037.884,5739.7512,
1034.974,5769.2461,
1032.063,5809.4478,
1029.153,5832.1203,
1026.242,5786.2776,
1023.331,5829.6221,
1020.421,5851.8699,
1017.510,5924.2978,
1014.600,5978.3167,
1011.689,6014.2633,
1008.778,6118.8573,
1005.868,6238.6791,
1002.957,6467.5333,
1000.047,6691.1771,
997.136,6875.5662,
994.226,7008.7165,
991.315,7055.1399,
988.404,6989.7102,
985.494,6880.0906,
982.583,6811.5661,
979.673,6747.4832,
976.762,6753.4575,
973.852,6745.1044,
970.941,6717.849,
968.030,6727.2145,
965.120,6696.7825,
962.209,6734.2944,
959.299,6739.2085,
956.388,6725.7458,
953.477,6705.3493,
950.567,6692.1935,
947.656,6701.7499,
944.746,6740.8295,
941.835,6748.2937,
938.925,6771.9987,
936.014,6778.5667,
933.103,6746.7898,
930.193,6698.0245,
927.282,6692.0633,
924.372,6552.5382,
921.461,6488.9682,
918.551,6427.3122,
915.640,6347.8812,
912.729,6250.8121,
909.819,6160.0707,
906.908,6171.0222,
903.998,6208.2118,
901.087,6255.8154,
898.176,6307.2111,
895.266,6348.1948,
892.355,6396.1522,
889.445,6553.9345,
886.534,6567.9829,
883.624,6629.8342,
880.713,6690.7774,
877.802,6742.4685,
874.892,6766.1819,
871.981,6698.1182,
869.071,6719.0035,
866.160,6737.1142,
863.250,6702.7372,
860.339,6655.6017,
857.428,6630.9292,
854.518,6601.0122,
851.607,6545.2635,
848.697,6469.5946,
845.786,6460.9026,
842.875,6481.6736,
839.965,6480.5715,
837.054,6466.9971,
834.144,6500.1472,
831.233,6514.6244,
828.323,6492.9073,
825.412,6450.8488,
822.501,6404.6672,
819.591,6332.7705,
816.680,6267.3236,
813.770,6168.3002,
810.859,6098.7704,
807.949,6073.2469,
805.038,6067.1361,
802.127,6046.5579,
799.217,5997.6654,
796.306,5968.0033,
793.396,5952.1746,
790.485,5936.6758,
787.574,5912.5555,
784.664,5963.4025,
781.753,5982.6898,
778.843,5985.1746,
775.932,5986.3286,
773.022,6004.7688,
770.111,6070.1751,
767.200,6057.8761,
764.290,6016.7966,
761.379,5976.8396,
758.469,5954.9972,
755.558,5952.5521,
752.648,5950.1083,
749.737,5940.486,
746.826,5868.4892,
743.916,5767.8909,
741.005,5680.214,
738.095,5446.3934,
735.184,5179.7951,
732.274,5118.8083,
729.363,5270.3317,
726.452,5540.6379,
723.542,5717.895,
720.631,5794.1399,
717.721,5872.4824,
714.810,5892.7842,
711.899,5850.3577,
708.989,5827.7638,
706.078,5821.2146,
703.168,5811.1239,
700.257,5772.6192,
697.347,5730.8418,
694.436,5748.7521,
691.525,5716.5999,
688.615,5736.6682,
685.704,5726.2917,
682.794,5703.093,
679.883,5741.5261,
676.973,5761.5604,
674.062,5743.2921,
671.151,5739.3916,
668.241,5744.1923,
665.330,5723.4737,
662.420,5720.2788,
659.509,5732.9586,
656.598,5723.315,
653.688,5701.7752,
650.777,5707.6232,
647.867,5766.5514,
644.956,5743.7143,
642.046,5724.9418,
639.135,5744.088,
636.224,5798.4897,
633.314,5771.4958,
630.403,5795.368,
627.493,5835.8287,
624.582,5871.3924,
621.672,5892.7763,
618.761,5897.4247,
615.850,5940.5001,
612.940,6000.2401,
610.029,6051.0717,
607.119,6059.7577,
604.208,6018.7342,
601.297,6017.5776,
598.387,6022.733,
595.476,6000.0075,
592.566,6046.4445,
589.655,6032.5967,
586.745,6027.5685,
583.834,6011.3728,
580.923,5921.5255,
578.013,5905.0461,
575.102,5918.4062,
572.192,5934.8406,
569.281,5953.4196,
566.371,6024.6384,
563.460,6057.0219,
560.549,6092.9635,
557.639,6128.4876,
554.728,6154.3002,
551.818,6180.831,
548.907,6216.4862,
545.996,6239.5129,
543.086,6256.6973,
540.175,6308.088,
537.265,6301.4851,
534.354,6332.2417,
531.444,6357.1506,
528.533,6344.1581,
525.622,6506.3311,
522.712,6587.7383,
519.801,6629.0814,
516.891,6679.7085,
513.980,6838.4392,
511.070,6871.6424,
508.159,6993.2858,
505.248,7142.4109,
502.338,7218.9746,
499.427,7299.2451,
496.517,7365.8775,
493.606,7428.5538,
490.695,7485.9787,
487.785,7502.9141,
484.874,7535.3513,
481.964,7530.4458,
479.053,7500.2573,
476.143,7498.7214,
473.232,7469.8489,
470.321,7433.323,
467.411,7414.4761,
464.500,7437.179,
461.590,7419.5669,
458.679,7441.5894,
455.769,7457.6388,
452.858,7446.0566,
449.947,7459.8074,
447.037,7516.6267,
444.126,7549.0371,
441.216,7553.7529,
438.305,7606.3262,
435.395,7576.2537,
432.484,7602.8845,
429.573,7666.3825,
426.663,7661.0615,
423.752,7664.1121,
420.842,7682.9791,
417.931,7714.183,
415.020,7751.3425,
412.110,7804.5695,
409.199,7914.5784,
406.289,8005.4433,
403.378,7992.4739,
400.468,7947.8702,
397.557,7932.5967,
394.646,7930.0089,
391.736,7922.7276,
388.825,7832.2199,
385.915,7819.9942,
383.004,7880.0252,
380.094,8003.8075,
377.183,8105.3918,
374.272,8209.0715,
371.362,8310.8876,
368.451,8406.7738,
365.541,8475.0726,
362.630,8518.2058,
359.719,8544.5444,
356.809,8560.528,
353.898,8591.9775,
350.988,8619.0695,
348.077,8633.7538,
345.167,8632.4197,
342.256,8648.1081,
339.345,8691.4196,
336.435,8720.3507,
333.524,8707.7289,
330.614,8742.7513,
327.703,8812.6666,
324.793,8869.914,
321.882,8873.7332,
318.971,8918.3397,
316.061,8986.3629,
313.150,9065.413,
310.240,9141.851,
307.329,9212.5155,
304.418,9238.2571,
301.508,9253.9543,
298.597,9319.111,
295.687,9339.5243,
292.776,9429.5421,
289.866,9610.8593,
286.955,9920.3853,
284.044,10252.412,
281.134,10554.41,
278.223,10826.306,
275.313,11118.101,
272.402,11362.029,
269.492,11595.652,
266.581,11829.656,
263.670,12025.949,
260.760,12218.445,
257.849,12386.252,
254.939,12511.012,
252.028,12603.106,
249.117,12665.948,
246.207,12693.943,
243.296,12671.982,
240.386,12648.729,
237.475,12628.405,
234.565,12583.486,
231.654,12392.126,
228.743,12298.691,
225.833,12183.096,
222.922,12001.966,
220.012,11859.169,
217.101,11800.848,
214.191,11742.072,
211.280,11587.122,
208.369,11618.012,
205.459,11571.152,
202.548,11491.436,
199.638,11617.699,
196.727,11583.122,
193.816,11555.482,
190.906,11594.727,
187.995,11597.623,
185.085,11618.012,
182.174,11652.749,
179.264,11701.175,
176.353,11663.052,
173.442,11640.8,
170.532,11641.433,
167.621,11614.036,
164.711,11488.898,
161.800,11235.166,
158.890,10803.33,
155.979,10137.626,
153.068,9332.4841,
150.158,8391.075,
147.247,7271.0695,
144.337,6042.4104,
141.426,4784.6245,
138.516,3530.0649,
135.605,2562.7345,
132.694,1752.5908,
129.784,1114.1283,
126.873,747.26672,
123.963,520.68327,
121.052,363.13162,
118.141,256.04632,
115.231,208.01679,
112.320,162.78321,
109.410,126.12509,
106.499,118.29138,
103.589,107.66093,
100.678,96.550674,
97.767,85.886611,
94.857,79.388099,
91.946,70.578337,
89.036,61.512102,
86.125,60.802897,
83.215,59.563159,
80.304,55.512375,
77.393,46.306166,
74.483,48.24554,
71.572,47.088535,
68.662,42.140128,
65.751,37.19497,
62.840,35.625,
59.930,36.186859,
57.019,38.302105,
54.109,37.430678,
51.198,34.212126,
48.288,28.613675,
45.377,27.206919,
42.466,26.212781,
39.556,25.164526,
36.645,22.355765,
33.735,25.259739,
30.824,27.741452,
27.914,24.936751,
25.003,30.228737,
22.092,31.041764,
19.182,25.94536,
16.271,35.738222,
13.361,96.100369,
10.450,199.4658,
7.539,349.6036,
4.629,265.73966,
1.718,41.578298,
-1.192,-313.96542,
-4.103,-266.40157,
-7.013,-143.44237,
-9.924,0.625,
