,PLDAAC~1,
Wavenumbers [1/cm],Intensity,
3014.167,-3.75,
3011.256,1.0499571,
3008.346,59.889066,
3005.435,66.17226,
3002.525,67.797539,
2999.614,81.299346,
2996.704,79.612886,
2993.793,82.763824,
2990.882,77.898825,
2987.972,80.335764,
2985.061,85.722892,
2982.151,84.460095,
2979.240,85.278486,
2976.329,108.24454,
2973.419,104.4346,
2970.508,105.25,
2967.598,112.25,
2964.687,109.86209,
2961.777,128.99381,
2958.866,116.58135,
2955.955,111.66151,
2953.045,116.71757,
2950.134,126.88849,
2947.224,132.62009,
2944.313,131.76709,
2941.403,136.10766,
2938.492,125.15517,
2935.581,138.09419,
2932.671,137.17277,
2929.760,137.88459,
2926.850,135.72744,
2923.939,140.68454,
2921.028,150.77344,
2918.118,152.6102,
2915.207,156.60446,
2912.297,159.24577,
2909.386,146.84124,
2906.476,163.40447,
2903.565,170.52482,
2900.654,155.9679,
2897.744,156.41344,
2894.833,162.65218,
2891.923,167.03531,
2889.012,186.41763,
2886.102,192.91485,
2883.191,226.22451,
2880.280,272.63758,
2877.370,414.65087,
2874.459,487.89079,
2871.549,306.44659,
2868.638,220.06446,
2865.727,214.87314,
2862.817,171.94921,
2859.906,177.09899,
2856.996,196.76132,
2854.085,170.48315,
2851.175,168.70478,
2848.264,176.11267,
2845.353,185.73239,
2842.443,164.24652,
2839.532,164.14554,
2836.622,159.25,
2833.711,159.25,
2830.801,170.04118,
2827.890,169.26922,
2824.979,169.59594,
2822.069,173.37509,
2819.158,172.08826,
2816.248,161.96237,
2813.337,175.79634,
2810.427,166.03651,
2807.516,172.7175,
2804.605,166.88462,
2801.695,174.94737,
2798.784,166.98923,
2795.874,172.52968,
2792.963,179.53574,
2790.052,168.25257,
2787.142,174.98677,
2784.231,167.25,
2781.321,166.6214,
2778.410,158.9099,
2775.500,168.90862,
2772.589,161.55886,
2769.678,182.96329,
2766.768,182.38009,
2763.857,183.51397,
2760.947,181.69641,
2758.036,181.72139,
2755.126,174.15171,
2752.215,180.65453,
2749.304,183.61151,
2746.394,183.55647,
2743.483,175.60001,
2740.573,180.4602,
2737.662,183.47337,
2734.751,179.2258,
2731.841,185.06136,
2728.930,200.98315,
2726.020,189.03067,
2723.109,179.72442,
2720.199,193.97496,
2717.288,203.51278,
2714.377,187.96278,
2711.467,204.88956,
2708.556,204.63274,
2705.646,194.6584,
2702.735,209.88915,
2699.825,193.03186,
2696.914,206.48819,
2694.003,223.99309,
2691.093,214.66036,
2688.182,200.66778,
2685.272,200.49751,
2682.361,190.49673,
2679.450,216.86724,
2676.540,216.08741,
2673.629,209.57735,
2670.719,198.76108,
2667.808,221.69366,
2664.898,206.88618,
2661.987,212.1499,
2659.076,225.70688,
2656.166,205.79972,
2653.255,219.36224,
2650.345,213.89791,
2647.434,211.96478,
2644.524,227.54735,
2641.613,222.56427,
2638.702,210.43937,
2635.792,209.81231,
2632.881,217.02371,
2629.971,218.63253,
2627.060,210.41594,
2624.149,220.38437,
2621.239,219.98962,
2618.328,220.18252,
2615.418,233.94999,
2612.507,221.7322,
2609.597,232.33184,
2606.686,229.4066,
2603.775,215.33334,
2600.865,221.66295,
2597.954,222.82497,
2595.044,235.57152,
2592.133,228.46646,
2589.223,248.99739,
2586.312,245.12938,
2583.401,252.90328,
2580.491,245.44232,
2577.580,245.27641,
2574.670,257.37568,
2571.759,245.59846,
2568.848,243.42679,
2565.938,254.67861,
2563.027,248.15228,
2560.117,250.06309,
2557.206,255.86624,
2554.296,254.53375,
2551.385,250.63004,
2548.474,257.65744,
2545.564,262.12338,
2542.653,273.93457,
2539.743,256.37323,
2536.832,263.61823,
2533.922,262.93462,
2531.011,244.07493,
2528.100,252.11413,
2525.190,263.57459,
2522.279,259.81278,
2519.369,267.02384,
2516.458,265.03328,
2513.548,251.02301,
2510.637,269.86483,
2507.726,276.12732,
2504.816,265.31201,
2501.905,258.19207,
2498.995,264.36944,
2496.084,267.78311,
2493.173,274.56589,
2490.263,276.45226,
2487.352,279.25,
2484.442,284.94591,
2481.531,293.4575,
2478.621,296.69553,
2475.710,266.36502,
2472.799,282.48317,
2469.889,293.03672,
2466.978,293.03357,
2464.068,309.40351,
2461.157,286.51754,
2458.247,283.94123,
2455.336,290.90949,
2452.425,298.38208,
2449.515,297.35396,
2446.604,299.96202,
2443.694,293.15708,
2440.783,299.29842,
2437.872,301.14061,
2434.962,301.66474,
2432.051,313.68832,
2429.141,311.97947,
2426.230,295.29306,
2423.320,303.19274,
2420.409,312.78837,
2417.498,313.07022,
2414.588,316.42487,
2411.677,314.35354,
2408.767,296.06791,
2405.856,298.24055,
2402.946,301.78619,
2400.035,310.35094,
2397.124,316.8008,
2394.214,314.2232,
2391.303,321.60908,
2388.393,318.03835,
2385.482,310.47031,
2382.571,353.30124,
2379.661,334.73835,
2376.750,336.09237,
2373.840,332.11251,
2370.929,362.90345,
2368.019,317.16627,
2365.108,299.50654,
2362.197,308.3761,
2359.287,313.6617,
2356.376,328.22182,
2353.466,345.52404,
2350.555,323.87991,
2347.645,332.6831,
2344.734,337.3099,
2341.823,351.98467,
2338.913,343.25,
2336.002,343.99162,
2333.092,341.87075,
2330.181,341.51342,
2327.270,323.35011,
2324.360,353.63681,
2321.449,341.31122,
2318.539,339.80352,
2315.628,357.59373,
2312.718,361.60022,
2309.807,339.70928,
2306.896,370.47848,
2303.986,358.76945,
2301.075,346.84577,
2298.165,343.84618,
2295.254,361.86223,
2292.344,363.19604,
2289.433,367.57818,
2286.522,364.19645,
2283.612,360.8699,
2280.701,358.51906,
2277.791,362.13165,
2274.880,383.464,
2271.969,373.03189,
2269.059,362.51159,
2266.148,385.75918,
2263.238,388.65155,
2260.327,383.25,
2257.417,381.115,
2254.506,377.08192,
2251.595,387.52996,
2248.685,395.93268,
2245.774,389.14025,
2242.864,374.15772,
2239.953,388.84307,
2237.043,391.13286,
2234.132,369.7306,
2231.221,381.83152,
2228.311,393.11984,
2225.400,410.70033,
2222.490,420.12283,
2219.579,393.93381,
2216.669,392.76192,
2213.758,408.51407,
2210.847,390.03845,
2207.937,406.27277,
2205.026,432.36196,
2202.116,408.72558,
2199.205,416.32436,
2196.294,439.36597,
2193.384,438.72399,
2190.473,429.24413,
2187.563,427.33217,
2184.652,443.79816,
2181.742,448.63728,
2178.831,462.73248,
2175.920,468.74181,
2173.010,468.99943,
2170.099,509.57839,
2167.189,480.66618,
2164.278,540.30427,
2161.368,560.53471,
2158.457,582.94451,
2155.546,595.90098,
2152.636,640.48394,
2149.725,647.92786,
2146.815,661.7161,
2143.904,693.94889,
2140.993,696.13883,
2138.083,713.70896,
2135.172,717.7374,
2132.262,733.01937,
2129.351,729.92235,
2126.441,705.92955,
2123.530,688.93573,
2120.619,661.38761,
2117.709,649.06562,
2114.798,607.58841,
2111.888,575.1386,
2108.977,553.15729,
2106.067,542.87433,
2103.156,531.33148,
2100.245,520.23432,
2097.335,496.69502,
2094.424,499.59082,
2091.514,472.74729,
2088.603,463.97813,
2085.692,465.16075,
2082.782,464.30224,
2079.871,467.17882,
2076.961,480.41049,
2074.050,468.8803,
2071.140,477.06642,
2068.229,456.0664,
2065.318,462.0775,
2062.408,475.63653,
2059.497,473.02975,
2056.587,453.48276,
2053.676,453.96632,
2050.766,452.48094,
2047.855,469.30696,
2044.944,473.91025,
2042.034,482.95509,
2039.123,464.41162,
2036.213,477.59666,
2033.302,459.57631,
2030.391,442.74165,
2027.481,470.74972,
2024.570,463.55047,
2021.660,501.64831,
2018.749,477.70589,
2015.839,483.7349,
2012.928,456.75504,
2010.017,484.60071,
2007.107,491.62385,
2004.196,487.3809,
2001.286,482.52207,
1998.375,477.42027,
1995.465,476.96964,
1992.554,472.99122,
1989.643,474.18087,
1986.733,480.60789,
1983.822,470.37851,
1980.912,479.52741,
1978.001,477.53014,
1975.090,464.21947,
1972.180,470.94017,
1969.269,469.21266,
1966.359,475.49329,
1963.448,486.01619,
1960.538,494.11906,
1957.627,478.30881,
1954.716,450.02562,
1951.806,501.44871,
1948.895,501.04156,
1945.985,472.86275,
1943.074,477.21307,
1940.164,477.98067,
1937.253,480.14979,
1934.342,476.10455,
1931.432,442.50867,
1928.521,464.66797,
1925.611,452.97759,
1922.700,456.28729,
1919.790,460.25,
1916.879,469.55251,
1913.968,495.21926,
1911.058,459.50526,
1908.147,482.96246,
1905.237,517.86763,
1902.326,502.97594,
1899.415,489.23415,
1896.505,501.03927,
1893.594,520.7927,
1890.684,512.82525,
1887.773,501.98271,
1884.863,512.8172,
1881.952,496.62771,
1879.041,479.6851,
1876.131,485.39379,
1873.220,464.58619,
1870.310,486.31274,
1867.399,511.86615,
1864.489,499.01634,
1861.578,491.10181,
1858.667,473.62423,
1855.757,495.84069,
1852.846,501.22437,
1849.936,478.39015,
1847.025,477.88988,
1844.114,512.26177,
1841.204,508.03322,
1838.293,504.74085,
1835.383,517.35449,
1832.472,507.23783,
1829.562,503.27682,
1826.651,516.82288,
1823.740,502.32276,
1820.830,519.94313,
1817.919,514.21998,
1815.009,517.24364,
1812.098,510.17126,
1809.188,513.00193,
1806.277,486.84756,
1803.366,534.433,
1800.456,546.0194,
1797.545,557.49832,
1794.635,538.70198,
1791.724,531.22083,
1788.813,553.65951,
1785.903,582.54652,
1782.992,584.27386,
1780.082,636.2217,
1777.171,726.58083,
1774.261,695.34956,
1771.350,640.62849,
1768.439,583.75623,
1765.529,548.97873,
1762.618,553.41874,
1759.708,563.57624,
1756.797,591.15909,
1753.887,574.04301,
1750.976,549.3017,
1748.065,581.04416,
1745.155,556.26323,
1742.244,560.70828,
1739.334,574.19588,
1736.423,586.67428,
1733.512,589.33942,
1730.602,582.26586,
1727.691,614.79472,
1724.781,599.29297,
1721.870,601.10243,
1718.960,594.20545,
1716.049,622.45309,
1713.138,629.95999,
1710.228,603.27079,
1707.317,596.59629,
1704.407,613.31955,
1701.496,645.33108,
1698.586,601.12679,
1695.675,642.16401,
1692.764,640.51639,
1689.854,641.20669,
1686.943,667.33941,
1684.033,628.26829,
1681.122,640.0291,
1678.211,637.27855,
1675.301,673.139,
1672.390,734.11841,
1669.480,690.09758,
1666.569,671.70705,
1663.659,707.26633,
1660.748,708.59707,
1657.837,726.00943,
1654.927,715.03914,
1652.016,707.31916,
1649.106,751.30268,
1646.195,792.91433,
1643.285,779.7513,
1640.374,801.31272,
1637.463,805.22279,
1634.553,858.23522,
1631.642,857.56488,
1628.732,886.31518,
1625.821,897.27813,
1622.911,940.00769,
1620.000,1012.3303,
1617.089,1070.0958,
1614.179,1122.7553,
1611.268,1147.3577,
1608.358,1207.347,
1605.447,1269.6505,
1602.536,1329.1632,
1599.626,1343.3693,
1596.715,1348.788,
1593.805,1263.3941,
1590.894,1253.25,
1587.984,1240.2586,
1585.073,1302.0613,
1582.162,1263.9917,
1579.252,1221.518,
1576.341,1187.0138,
1573.431,1191.2144,
1570.520,1187.3706,
1567.610,1193.4462,
1564.699,1173.7741,
1561.788,1161.0247,
1558.878,1168.1259,
1555.967,1161.6794,
1553.057,1123.0779,
1550.146,1077.8246,
1547.235,1099.6212,
1544.325,1081.0075,
1541.414,1059.7514,
1538.504,1060.9739,
1535.593,1023.4959,
1532.683,1011.707,
1529.772,1023.6251,
1526.861,992.93823,
1523.951,958.65919,
1521.040,965.6934,
1518.130,992.26461,
1515.219,973.69057,
1512.309,954.49775,
1509.398,947.94594,
1506.487,932.29666,
1503.577,975.19625,
1500.666,931.89958,
1497.756,916.07239,
1494.845,948.52906,
1491.934,907.32244,
1489.024,929.45978,
1486.113,928.39557,
1483.203,924.69733,
1480.292,904.73424,
1477.382,851.94686,
1474.471,831.04145,
1471.560,854.37398,
1468.650,907.29624,
1465.739,904.19236,
1462.829,891.84682,
1459.918,883.41015,
1457.008,890.46557,
1454.097,877.44483,
1451.186,835.85348,
1448.276,837.85362,
1445.365,855.96248,
1442.455,844.63615,
1439.544,859.23814,
1436.633,821.41583,
1433.723,857.61783,
1430.812,876.54036,
1427.902,904.34801,
1424.991,866.43751,
1422.081,834.97326,
1419.170,830.52188,
1416.259,839.16069,
1413.349,823.12421,
1410.438,827.04692,
1407.528,858.93089,
1404.617,856.04902,
1401.707,850.13923,
1398.796,831.70461,
1395.885,799.70272,
1392.975,817.33434,
1390.064,850.36056,
1387.154,812.3333,
1384.243,790.32213,
1381.332,874.02065,
1378.422,889.26441,
1375.511,908.93681,
1372.601,874.23033,
1369.690,915.82557,
1366.780,892.36063,
1363.869,914.76204,
1360.958,965.86298,
1358.048,999.89617,
1355.137,1014.5068,
1352.227,1018.7925,
1349.316,1035.7473,
1346.406,1067.7204,
1343.495,1070.0252,
1340.584,1057.8922,
1337.674,1103.1076,
1334.763,1111.0263,
1331.853,1131.4254,
1328.942,1162.4918,
1326.032,1133.6252,
1323.121,1195.1597,
1320.210,1216.5863,
1317.300,1227.6449,
1314.389,1238.3056,
1311.479,1280.007,
1308.568,1341.3074,
1305.657,1373.8598,
1302.747,1415.6982,
1299.836,1434.3557,
1296.926,1443.1473,
1294.015,1462.4531,
1291.105,1473.8165,
1288.194,1524.7721,
1285.283,1554.4341,
1282.373,1564.4141,
1279.462,1582.1713,
1276.552,1618.943,
1273.641,1668.2672,
1270.731,1718.0694,
1267.820,1765.1685,
1264.909,1812.5681,
1261.999,1767.322,
1259.088,1659.6917,
1256.178,1635.2644,
1253.267,1594.6574,
1250.356,1580.541,
1247.446,1576.9031,
1244.535,1539.5715,
1241.625,1476.6056,
1238.714,1426.6637,
1235.804,1398.4442,
1232.893,1379.2531,
1229.982,1365.3113,
1227.072,1367.122,
1224.161,1326.9058,
1221.251,1271.6014,
1218.340,1269.5019,
1215.430,1249.1727,
1212.519,1220.8169,
1209.608,1214.25,
1206.698,1219.6118,
1203.787,1235.4058,
1200.877,1236.4172,
1197.966,1239.1146,
1195.055,1320.3086,
1192.145,1316.2178,
1189.234,1351.7727,
1186.324,1369.3404,
1183.413,1359.5089,
1180.503,1363.3794,
1177.592,1379.9065,
1174.681,1355.661,
1171.771,1310.25,
1168.860,1310.25,
1165.950,1322.3443,
1163.039,1333.6308,
1160.129,1346.0978,
1157.218,1323.4058,
1154.307,1282.9744,
1151.397,1274.8097,
1148.486,1299.8466,
1145.576,1318.3997,
1142.665,1275.7799,
1139.754,1303.1679,
1136.844,1296.9442,
1133.933,1271.3088,
1131.023,1284.1595,
1128.112,1311.7504,
1125.202,1310.1485,
1122.291,1323.2608,
1119.380,1350.8949,
1116.470,1314.7112,
1113.559,1341.18,
1110.649,1326.6756,
1107.738,1313.1784,
1104.828,1305.1763,
1101.917,1287.8532,
1099.006,1271.3015,
1096.096,1275.1212,
1093.185,1256.6831,
1090.275,1302.9969,
1087.364,1329.3447,
1084.453,1287.8781,
1081.543,1279.6108,
1078.632,1318.817,
1075.722,1324.5067,
1072.811,1334.8705,
1069.901,1343.6031,
1066.990,1357.1833,
1064.079,1375.9018,
1061.169,1365.5764,
1058.258,1351.25,
1055.348,1362.7144,
1052.437,1390.742,
1049.527,1393.3171,
1046.616,1395.0548,
1043.705,1401.4161,
1040.795,1380.2638,
1037.884,1383.4336,
1034.974,1390.3119,
1032.063,1381.2113,
1029.153,1399.0037,
1026.242,1388.6242,
1023.331,1403.249,
1020.421,1437.6196,
1017.510,1461.335,
1014.600,1473.9022,
1011.689,1491.0827,
1008.778,1527.6331,
1005.868,1582.3041,
1002.957,1588.3265,
1000.047,1616.914,
997.136,1641.3458,
994.226,1631.6195,
991.315,1594.7673,
988.404,1568.5198,
985.494,1580.1925,
982.583,1577.6228,
979.673,1569.9335,
976.762,1553.1595,
973.852,1557.8363,
970.941,1575.0645,
968.030,1565.7875,
965.120,1529.3681,
962.209,1557.502,
959.299,1576.415,
956.388,1586.7297,
953.477,1582.0295,
950.567,1589.0725,
947.656,1634.6741,
944.746,1576.9043,
941.835,1605.0229,
938.925,1601.7212,
936.014,1598.2733,
933.103,1590.3634,
930.193,1576.8444,
927.282,1593.6002,
924.372,1563.1583,
921.461,1526.112,
918.551,1506.6979,
915.640,1502.0999,
912.729,1505.1285,
909.819,1504.9122,
906.908,1464.4758,
903.998,1456.6825,
901.087,1492.8039,
898.176,1509.9552,
895.266,1507.1544,
892.355,1517.6895,
889.445,1552.0994,
886.534,1540.5618,
883.624,1562.472,
880.713,1573.7396,
877.802,1597.9148,
874.892,1652.3393,
871.981,1688.3289,
869.071,1691.6706,
866.160,1655.6821,
863.250,1608.322,
860.339,1563.4252,
857.428,1539.9458,
854.518,1568.9481,
851.607,1593.0781,
848.697,1624.0749,
845.786,1639.8828,
842.875,1620.8789,
839.965,1576.7354,
837.054,1565.5198,
834.144,1589.5536,
831.233,1581.5842,
828.323,1579.7011,
825.412,1576.5229,
822.501,1561.4415,
819.591,1568.0527,
816.680,1601.9039,
813.770,1542.5877,
810.859,1517.1409,
807.949,1539.6598,
805.038,1548.1637,
802.127,1522.6468,
799.217,1479.9989,
796.306,1475.8987,
793.396,1477.4102,
790.485,1472.6722,
787.574,1488.565,
784.664,1470.5225,
781.753,1469.9339,
778.843,1461.4484,
775.932,1471.3114,
773.022,1514.6016,
770.111,1503.9731,
767.200,1491.8303,
764.290,1473.8031,
761.379,1471.1274,
758.469,1486.5983,
755.558,1498.9582,
752.648,1489.183,
749.737,1503.5697,
746.826,1512.25,
743.916,1503.594,
741.005,1484.8265,
738.095,1516.4897,
735.184,1508.094,
732.274,1451.7121,
729.363,1400.879,
726.452,1406.283,
723.542,1483.9848,
720.631,1471.4301,
717.721,1489.1638,
714.810,1510.0568,
711.899,1504.7747,
708.989,1455.5523,
706.078,1478.4878,
703.168,1467.855,
700.257,1460.9631,
697.347,1463.8589,
694.436,1454.3771,
691.525,1422.2249,
688.615,1418.3946,
685.704,1438.8128,
682.794,1465.8244,
679.883,1475.2592,
676.973,1497.6976,
674.062,1482.4695,
671.151,1483.5232,
668.241,1492.1026,
665.330,1469.4769,
662.420,1474.2693,
659.509,1471.4404,
656.598,1488.291,
653.688,1511.4097,
650.777,1504.3589,
647.867,1478.0801,
644.956,1479.0607,
642.046,1483.6646,
639.135,1490.1191,
636.224,1512.0272,
633.314,1467.5666,
630.403,1471.0303,
627.493,1492.0041,
624.582,1513.1346,
621.672,1530.5584,
618.761,1513.7714,
615.850,1502.7401,
612.940,1505.0807,
610.029,1516.0141,
607.119,1502.5904,
604.208,1506.2201,
601.297,1513.7337,
598.387,1524.696,
595.476,1538.5471,
592.566,1541.6954,
589.655,1505.9682,
586.745,1509.6843,
583.834,1540.25,
580.923,1540.1884,
578.013,1529.9869,
575.102,1528.3972,
572.192,1532.8228,
569.281,1543.6086,
566.371,1567.8699,
563.460,1551.9078,
560.549,1555.4574,
557.639,1561.6102,
554.728,1546.5456,
551.818,1551.2275,
548.907,1537.0147,
545.996,1528.0276,
543.086,1532.773,
540.175,1549.1246,
537.265,1512.5875,
534.354,1520.3244,
531.444,1549.7738,
528.533,1568.2015,
525.622,1553.4585,
522.712,1538.1149,
519.801,1547.0527,
516.891,1584.4228,
513.980,1634.7521,
511.070,1592.0587,
508.159,1603.2918,
505.248,1638.7522,
502.338,1644.0407,
499.427,1671.0548,
496.517,1697.4823,
493.606,1699.1268,
490.695,1675.9246,
487.785,1695.1694,
484.874,1697.6038,
481.964,1700.5722,
479.053,1696.0571,
476.143,1657.659,
473.232,1669.6381,
470.321,1694.7131,
467.411,1708.9185,
464.500,1689.1252,
461.590,1644.7123,
458.679,1682.8771,
455.769,1724.5651,
452.858,1726.284,
449.947,1736.2151,
447.037,1724.9013,
444.126,1729.5591,
441.216,1751.8531,
438.305,1749.5673,
435.395,1763.0184,
432.484,1790.2541,
429.573,1811.3274,
426.663,1781.6819,
423.752,1858.7558,
420.842,1969.0599,
417.931,2064.8522,
415.020,2084.5695,
412.110,1932.3429,
409.199,1877.717,
406.289,1887.3673,
403.378,1912.4754,
400.468,1979.0029,
397.557,1947.2926,
394.646,1898.3274,
391.736,1899.3184,
388.825,1838.9799,
385.915,1846.2631,
383.004,1877.1018,
380.094,1898.5974,
377.183,1885.8053,
374.272,1865.4238,
371.362,1864.2004,
368.451,1896.7089,
365.541,1920.7261,
362.630,1908.1316,
359.719,1901.721,
356.809,1924.8843,
353.898,1935.3675,
350.988,1939.335,
348.077,1923.1159,
345.167,1883.7854,
342.256,1933.839,
339.345,1906.2668,
336.435,1884.24,
333.524,1924.0486,
330.614,1949.3839,
327.703,1931.0663,
324.793,1909.6013,
321.882,1919.3528,
318.971,1961.729,
316.061,1986.9929,
313.150,1998.019,
310.240,1997.2769,
307.329,2014.4013,
304.418,2016.2345,
301.508,2010.0531,
298.597,2009.3127,
295.687,2028.2127,
292.776,2037.25,
289.866,2042.0764,
286.955,2064.9769,
284.044,2090.3875,
281.134,2106.2123,
278.223,2113.4056,
275.313,2128.1427,
272.402,2123.6983,
269.492,2136.6275,
266.581,2184.3428,
263.670,2297.5606,
260.760,2294.2056,
257.849,2263.8163,
254.939,2271.1551,
252.028,2240.8485,
249.117,2231.5341,
246.207,2224.9689,
243.296,2189.0991,
240.386,2176.7611,
237.475,2147.2778,
234.565,2108.8605,
231.654,2119.0858,
228.743,2131.6066,
225.833,2120.9562,
222.922,2080.6429,
220.012,2110.5137,
217.101,2100.6214,
214.191,2078.9386,
211.280,2074.5739,
208.369,2063.485,
205.459,2037.8882,
202.548,2007.8767,
199.638,2011.505,
196.727,2055.4662,
193.816,2085.4439,
190.906,2080.9453,
187.995,2072.257,
185.085,2052.7,
182.174,2045.4154,
179.264,2086.613,
176.353,2113.6773,
173.442,2124.7998,
170.532,2121.4099,
167.621,2114.2002,
164.711,2053.3864,
161.800,1978.6227,
158.890,1915.2867,
155.979,1793.1101,
153.068,1634.9267,
150.158,1446.2165,
147.247,1234.4206,
144.337,997.095,
141.426,775.8865,
138.516,592.36235,
135.605,439.45827,
132.694,302.23471,
129.784,188.2642,
126.873,126.76304,
123.963,89.779984,
121.052,63.317902,
118.141,43.328646,
115.231,38.986578,
112.320,31.319097,
109.410,23.386355,
106.499,24.09851,
103.589,20.888473,
100.678,17.163513,
97.767,14.319763,
94.857,14.25,
91.946,10.622002,
89.036,5.25,
86.125,5.25,
83.215,3.6572389,
80.304,4.1654615,
77.393,9.830821,
74.483,8.2845951,
71.572,8.3370563,
68.662,10.457802,
65.751,12.577156,
62.840,13.731702,
59.930,12.564424,
57.019,6.2186863,
54.109,5.8471608,
51.198,8.3612649,
48.288,13.244338,
45.377,12.540959,
42.466,14.311097,
39.556,15.983696,
36.645,8.2596033,
33.735,13.00023,
30.824,17.04113,
27.914,10.029378,
25.003,8.004725,
22.092,13.062282,
19.182,26.279729,
16.271,57.756785,
13.361,256.53443,
10.450,653.59316,
7.539,1474.812,
4.629,2184.9546,
1.718,2475.7753,
-1.192,1906.9053,
-4.103,1122.669,
-7.013,462.59523,
-9.924,3.25,
