,PL87FC~1,
Wavenumbers [1/cm],Intensity,
3014.167,-3.75,
3011.256,1.1998819,
3008.346,131.31653,
3005.435,164.98145,
3002.525,165.07998,
2999.614,173.15131,
2996.704,176.52423,
2993.793,178.35542,
2990.882,188.73094,
2987.972,203.24496,
2985.061,191.60959,
2982.151,192.34077,
2979.240,217.25,
2976.329,219.5041,
2973.419,223.03485,
2970.508,227.43326,
2967.598,229.01466,
2964.687,235.65353,
2961.777,251.61778,
2958.866,244.91271,
2955.955,237.34957,
2953.045,252.20304,
2950.134,280.31415,
2947.224,260.93325,
2944.313,279.7557,
2941.403,278.59535,
2938.492,278.43159,
2935.581,278.64267,
2932.671,284.93243,
2929.760,289.76537,
2926.850,293.67519,
2923.939,286.04435,
2921.028,302.93821,
2918.118,294.85202,
2915.207,314.19307,
2912.297,310.27539,
2909.386,325.2427,
2906.476,312.57586,
2903.565,311.08852,
2900.654,319.14382,
2897.744,289.60202,
2894.833,299.10601,
2891.923,286.22441,
2889.012,314.83381,
2886.102,301.16893,
2883.191,315.22923,
2880.280,239.39352,
2877.370,160.14546,
2874.459,136.46413,
2871.549,214.80301,
2868.638,258.29741,
2865.727,299.80765,
2862.817,327.90774,
2859.906,322.36396,
2856.996,329.72056,
2854.085,344.17228,
2851.175,326.5391,
2848.264,335.25967,
2845.353,330.57351,
2842.443,334.4688,
2839.532,340.75733,
2836.622,320.64323,
2833.711,329.87168,
2830.801,347.54485,
2827.890,337.14686,
2824.979,355.73191,
2822.069,359.19314,
2819.158,344.74864,
2816.248,344.93921,
2813.337,354.56952,
2810.427,351.63981,
2807.516,364.35062,
2804.605,358.45433,
2801.695,357.55263,
2798.784,361.80646,
2795.874,364.68537,
2792.963,358.25,
2790.052,349.25193,
2787.142,361.25,
2784.231,353.44411,
2781.321,353.18714,
2778.410,352.66497,
2775.500,354.01586,
2772.589,351.13608,
2769.678,375.10665,
2766.768,372.38009,
2763.857,357.56985,
2760.947,385.21217,
2758.036,370.77861,
2755.126,372.15171,
2752.215,380.78182,
2749.304,384.7392,
2746.394,370.5786,
2743.483,375.40002,
2740.573,363.37828,
2737.662,369.81361,
2734.751,373.57527,
2731.841,386.52107,
2728.930,379.55515,
2726.020,380.81655,
2723.109,391.02317,
2720.199,405.25,
2717.288,399.26824,
2714.377,399.47492,
2711.467,418.13571,
2708.556,417.058,
2705.646,410.74289,
2702.735,425.7371,
2699.825,411.78272,
2696.914,414.29773,
2694.003,424.14918,
2691.093,417.30296,
2688.182,411.17815,
2685.272,418.81615,
2682.361,410.92031,
2679.450,423.54218,
2676.540,419.06708,
2673.629,413.23653,
2670.719,424.38864,
2667.808,429.15273,
2664.898,431.54864,
2661.987,438.65007,
2659.076,439.50431,
2656.166,420.33217,
2653.255,440.21259,
2650.345,445.17015,
2647.434,450.50722,
2644.524,448.61689,
2641.613,437.82134,
2638.702,456.9186,
2635.792,433.56306,
2632.881,439.64268,
2629.971,447.25,
2627.060,453.58313,
2624.149,459.84374,
2621.239,453.97777,
2618.328,447.64878,
2615.418,475.26818,
2612.507,459.18284,
2609.597,478.77096,
2606.686,474.25,
2603.775,472.32936,
2600.865,471.01451,
2597.954,466.5854,
2595.044,480.51838,
2592.133,483.02058,
2589.223,501.10581,
2586.312,491.64193,
2583.401,490.68062,
2580.491,489.76919,
2577.580,516.22524,
2574.670,501.52674,
2571.759,493.9923,
2568.848,498.77492,
2565.938,499.34523,
2563.027,502.44544,
2560.117,493.53969,
2557.206,524.22047,
2554.296,498.45137,
2551.385,507.75404,
2548.474,517.87974,
2545.564,515.40828,
2542.653,520.71309,
2539.743,514.34858,
2536.832,519.84253,
2533.922,497.59692,
2531.011,523.9246,
2528.100,527.72036,
2525.190,529.73688,
2522.279,531.64033,
2519.369,526.79671,
2516.458,539.24646,
2513.548,528.77736,
2510.637,545.57369,
2507.726,535.87454,
2504.816,531.06172,
2501.905,534.36585,
2498.995,555.11534,
2496.084,541.54271,
2493.173,553.4606,
2490.263,559.23871,
2487.352,560.70747,
2484.442,549.10439,
2481.531,563.36158,
2478.621,577.3211,
2475.710,554.37268,
2472.799,573.20961,
2469.889,582.73477,
2466.978,574.59029,
2464.068,602.85328,
2461.157,575.94981,
2458.247,598.86754,
2455.336,591.52594,
2452.425,598.70755,
2449.515,621.93813,
2446.604,590.84683,
2443.694,586.55266,
2440.783,598.91779,
2437.872,593.34395,
2434.962,624.87672,
2432.051,609.32982,
2429.141,605.17916,
2426.230,597.35825,
2423.320,613.50698,
2420.409,619.11541,
2417.498,628.01968,
2414.588,640.15492,
2411.677,637.92728,
2408.767,623.68504,
2405.856,608.65714,
2402.946,632.15527,
2400.035,610.78284,
2397.124,651.90241,
2394.214,634.43761,
2391.303,619.71409,
2388.393,634.18027,
2385.482,592.40903,
2382.571,635.61749,
2379.661,627.08712,
2376.750,638.14407,
2373.840,647.30934,
2370.929,659.1417,
2368.019,660.25,
2365.108,664.59817,
2362.197,670.65274,
2359.287,686.21658,
2356.376,669.28698,
2353.466,679.79447,
2350.555,691.87991,
2347.645,685.88179,
2344.734,692.1302,
2341.823,690.31633,
2338.913,691.02613,
2336.002,705.92458,
2333.092,710.4915,
2330.181,703.74105,
2327.270,689.07508,
2324.360,717.15806,
2321.449,704.68199,
2318.539,709.52521,
2315.628,708.31675,
2312.718,711.36674,
2309.807,716.38663,
2306.896,717.74609,
2303.986,714.94479,
2301.075,724.35634,
2298.165,716.08625,
2295.254,740.62525,
2292.344,749.25421,
2289.433,738.62455,
2286.522,751.81694,
2283.612,754.25,
2280.701,748.19172,
2277.791,746.2118,
2274.880,765.18408,
2271.969,758.37346,
2269.059,769.01566,
2266.148,776.00459,
2263.238,789.14575,
2260.327,798.00845,
2257.417,779.35222,
2254.506,788.62329,
2251.595,804.97004,
2248.685,828.9749,
2245.774,794.19583,
2242.864,816.53679,
2239.953,803.97418,
2237.043,797.41893,
2234.132,805.30711,
2231.221,826.59375,
2228.311,823.68171,
2225.400,842.39073,
2222.490,844.46492,
2219.579,837.72046,
2216.669,848.25,
2213.758,858.68661,
2210.847,858.60769,
2207.937,861.08713,
2205.026,887.80627,
2202.116,871.92091,
2199.205,880.60012,
2196.294,891.17596,
2193.384,909.06551,
2190.473,883.93661,
2187.563,929.19683,
2184.652,921.26224,
2181.742,934.40861,
2178.831,945.91546,
2175.920,977.4959,
2173.010,995.02608,
2170.099,1043.5784,
2167.189,1081.4581,
2164.278,1115.8259,
2161.368,1162.534,
2158.457,1216.8896,
2155.546,1274.2029,
2152.636,1343.1488,
2149.725,1375.5654,
2146.815,1401.4491,
2143.904,1440.3689,
2140.993,1485.5516,
2138.083,1513.1587,
2135.172,1555.334,
2132.262,1551.5088,
2129.351,1571.8639,
2126.441,1536.6091,
2123.530,1520.6215,
2120.619,1455.755,
2117.709,1384.9114,
2114.798,1337.7114,
2111.888,1278.4015,
2108.977,1217.2765,
2106.067,1159.5392,
2103.156,1119.8549,
2100.245,1099.2306,
2097.335,1066.805,
2094.424,1048.3515,
2091.514,1022.8925,
2088.603,1010.3837,
2085.692,1000.7964,
2082.782,1002.5432,
2079.871,1012.9291,
2076.961,981.5748,
2074.050,991.66818,
2071.140,986.84718,
2068.229,1010.0925,
2065.318,984.84301,
2062.408,988.80295,
2059.497,991.86311,
2056.587,975.68057,
2053.676,986.8488,
2050.766,973.71263,
2047.855,958.59175,
2044.944,969.05289,
2042.034,965.75295,
2039.123,987.05135,
2036.213,994.94331,
2033.302,987.70653,
2030.391,989.8262,
2027.481,971.90872,
2024.570,985.47804,
2021.660,1009.9492,
2018.749,992.51593,
2015.839,1000.8642,
2012.928,1011.0201,
2010.017,1013.8211,
2007.107,1016.6444,
2004.196,1011.2738,
2001.286,1024.3348,
1998.375,1023.2037,
1995.465,997.225,
1992.554,1005.2734,
1989.643,991.80302,
1986.733,1004.357,
1983.822,1004.6983,
1980.912,995.47774,
1978.001,994.99582,
1975.090,992.64847,
1972.180,990.35373,
1969.269,1005.9311,
1966.359,1007.2769,
1963.448,1001.711,
1960.538,1013.6111,
1957.627,1040.3243,
1954.716,1032.566,
1951.806,1012.9519,
1948.895,1002.914,
1945.985,973.25,
1943.074,976.05438,
1940.164,986.09622,
1937.253,991.25,
1934.342,978.64305,
1931.432,990.49606,
1928.521,990.06692,
1925.611,975.2046,
1922.700,966.12707,
1919.790,993.53291,
1916.879,977.78449,
1913.968,1010.2082,
1911.058,1005.1749,
1908.147,1018.5157,
1905.237,1016.4779,
1902.326,983.84559,
1899.415,942.79513,
1896.505,978.22012,
1893.594,1001.5274,
1890.684,998.44604,
1887.773,1016.379,
1884.863,1029.7147,
1881.952,1015.5102,
1879.041,998.41563,
1876.131,1002.5794,
1873.220,985.94462,
1870.310,1003.6715,
1867.399,1017.0581,
1864.489,1014.7563,
1861.578,1025.382,
1858.667,1006.6632,
1855.757,1007.435,
1852.846,1016.9628,
1849.936,1006.4352,
1847.025,1039.6587,
1844.114,1057.2735,
1841.204,1050.6206,
1838.293,1051.2234,
1835.383,1091.296,
1832.472,1094.0517,
1829.562,1078.4172,
1826.651,1091.9769,
1823.740,1065.0354,
1820.830,1085.4314,
1817.919,1094.4356,
1815.009,1098.5312,
1812.098,1092.9665,
1809.188,1132.5832,
1806.277,1070.7107,
1803.366,1096.7325,
1800.456,1125.3599,
1797.545,1126.5124,
1794.635,1114.6059,
1791.724,1096.9488,
1788.813,1155.6364,
1785.903,1113.25,
1782.992,1100.1054,
1780.082,1064.8525,
1777.171,1054.5771,
1774.261,1029.06,
1771.350,1089.3615,
1768.439,1174.9078,
1765.529,1169.6158,
1762.618,1173.5875,
1759.708,1152.5216,
1756.797,1177.2121,
1753.887,1196.5313,
1750.976,1190.019,
1748.065,1215.2131,
1745.155,1186.1793,
1742.244,1188.3976,
1739.334,1207.0429,
1736.423,1199.3584,
1733.512,1250.551,
1730.602,1261.5258,
1727.691,1259.0177,
1724.781,1223.0675,
1721.870,1214.8595,
1718.960,1275.2729,
1716.049,1268.9536,
1713.138,1289.1899,
1710.228,1264.5302,
1707.317,1315.0934,
1704.407,1289.0093,
1701.496,1326.2697,
1698.586,1340.4138,
1695.675,1329.0858,
1692.764,1361.3853,
1689.854,1342.2027,
1686.943,1343.1825,
1684.033,1342.2748,
1681.122,1368.7912,
1678.211,1395.0025,
1675.301,1439.1143,
1672.390,1473.2679,
1669.480,1479.4586,
1666.569,1505.0469,
1663.659,1489.8053,
1660.748,1524.6769,
1657.837,1596.7689,
1654.927,1575.2266,
1652.016,1574.9547,
1649.106,1604.523,
1646.195,1656.7845,
1643.285,1718.9538,
1640.374,1707.9016,
1637.463,1785.5202,
1634.553,1800.8854,
1631.642,1843.6192,
1628.732,1877.9196,
1625.821,1990.2644,
1622.911,2012.126,
1620.000,2148.5114,
1617.089,2258.0609,
1614.179,2414.766,
1611.268,2491.4617,
1608.358,2628.6479,
1605.447,2834.1945,
1602.536,2885.3893,
1599.626,2825.6946,
1596.715,2834.7716,
1593.805,2770.0694,
1590.894,2787.7894,
1587.984,2741.8828,
1585.073,2767.4319,
1582.162,2688.0916,
1579.252,2635.2448,
1576.341,2628.8521,
1573.431,2548.5831,
1570.520,2556.8251,
1567.610,2494.7195,
1564.699,2505.7765,
1561.788,2469.9547,
1558.878,2465.6363,
1555.967,2452.1087,
1553.057,2406.1641,
1550.146,2387.4791,
1547.235,2364.0466,
1544.325,2303.704,
1541.414,2270.25,
1538.504,2256.3773,
1535.593,2206.7314,
1532.683,2160.4403,
1529.772,2132.2753,
1526.861,2106.8477,
1523.951,2084.6322,
1521.040,2063.6657,
1518.130,2072.6853,
1515.219,2040.129,
1512.309,2061.8536,
1509.398,2013.5012,
1506.487,1980.816,
1503.577,2049.3755,
1500.666,1987.3692,
1497.756,1998.4621,
1494.845,2022.2083,
1491.934,1949.3697,
1489.024,1985.9444,
1486.113,1930.6899,
1483.203,1942.237,
1480.292,1944.25,
1477.382,1876.3572,
1474.471,1876.365,
1471.560,1872.542,
1468.650,1884.282,
1465.739,1878.4402,
1462.829,1859.3137,
1459.918,1833.5703,
1457.008,1827.8809,
1454.097,1830.7041,
1451.186,1825.4976,
1448.276,1817.2878,
1445.365,1804.4293,
1442.455,1815.9832,
1439.544,1813.1546,
1436.633,1786.814,
1433.723,1829.8671,
1430.812,1845.5902,
1427.902,1812.9265,
1424.991,1841.3594,
1422.081,1817.4781,
1419.170,1782.4157,
1416.259,1786.9708,
1413.349,1734.8726,
1410.438,1772.5326,
1407.528,1810.4123,
1404.617,1784.1966,
1401.707,1747.5314,
1398.796,1753.715,
1395.885,1757.5412,
1392.975,1753.6674,
1390.064,1791.076,
1387.154,1797.4461,
1384.243,1795.3203,
1381.332,1831.6846,
1378.422,1852.3127,
1375.511,1872.9219,
1372.601,1932.2305,
1369.690,1937.25,
1366.780,1963.3872,
1363.869,2026.9152,
1360.958,2092.4845,
1358.048,2138.3892,
1355.137,2150.5702,
1352.227,2176.5312,
1349.316,2238.468,
1346.406,2286.9976,
1343.495,2304.7309,
1340.584,2315.0004,
1337.674,2298.1493,
1334.763,2397.2853,
1331.853,2398.2125,
1328.942,2439.1653,
1326.032,2458.9312,
1323.121,2505.2259,
1320.210,2558.8734,
1317.300,2626.649,
1314.389,2649.4581,
1311.479,2689.9292,
1308.568,2787.5772,
1305.657,2862.6694,
1302.747,2938.5895,
1299.836,3057.9502,
1296.926,3030.3265,
1294.015,3096.5178,
1291.105,3189.9458,
1288.194,3183.0802,
1285.283,3244.1223,
1282.373,3288.6015,
1279.462,3353.0529,
1276.552,3433.4864,
1273.641,3510.5534,
1270.731,3581.1873,
1267.820,3612.4577,
1264.909,3607.0845,
1261.999,3562.716,
1259.088,3575.4857,
1256.178,3506.0206,
1253.267,3420.5992,
1250.356,3360.3238,
1247.446,3318.1942,
1244.535,3260.6162,
1241.625,3172.4205,
1238.714,3089.5501,
1235.804,3026.4832,
1232.893,2908.1267,
1229.982,2896.9383,
1227.072,2799.1646,
1224.161,2761.9919,
1221.251,2715.302,
1218.340,2667.5638,
1215.430,2631.6329,
1212.519,2588.7262,
1209.608,2548.58,
1206.698,2554.5908,
1203.787,2601.1595,
1200.877,2595.9187,
1197.966,2606.7086,
1195.055,2678.9229,
1192.145,2775.4005,
1189.234,2817.5234,
1186.324,2851.9798,
1183.413,2872.0419,
1180.503,2874.9833,
1177.592,2874.6336,
1174.681,2830.1678,
1171.771,2788.1058,
1168.860,2781.8541,
1165.950,2720.7783,
1163.039,2733.4877,
1160.129,2702.7804,
1157.218,2676.1344,
1154.307,2690.7518,
1151.397,2708.4252,
1148.486,2696.5065,
1145.576,2659.0595,
1142.665,2677.7057,
1139.754,2688.1999,
1136.844,2660.8373,
1133.933,2641.2119,
1131.023,2660.3269,
1128.112,2681.1795,
1125.202,2680.3949,
1122.291,2717.2635,
1119.380,2752.1374,
1116.470,2740.6645,
1113.559,2769.4067,
1110.649,2763.8434,
1107.738,2748.7485,
1104.828,2716.4518,
1101.917,2669.3028,
1099.006,2642.7242,
1096.096,2642.4001,
1093.185,2677.5202,
1090.275,2678.6315,
1087.364,2699.5198,
1084.453,2700.813,
1081.543,2702.138,
1078.632,2721.3384,
1075.722,2744.447,
1072.811,2760.2357,
1069.901,2788.18,
1066.990,2812.8833,
1064.079,2852.2757,
1061.169,2863.8316,
1058.258,2853.4742,
1055.348,2855.7144,
1052.437,2886.8577,
1049.527,2904.3773,
1046.616,2881.7877,
1043.705,2885.4161,
1040.795,2861.7098,
1037.884,2839.6639,
1034.974,2850.8711,
1032.063,2890.5959,
1029.153,2911.1221,
1026.242,2860.0897,
1023.331,2916.5796,
1020.421,2951.9514,
1017.510,2976.8172,
1014.600,3012.357,
1011.689,3060.6438,
1008.778,3101.1559,
1005.868,3112.4662,
1002.957,3136.5561,
1000.047,3268.3781,
997.136,3345.6163,
994.226,3352.4194,
991.315,3344.6881,
988.404,3349.0642,
985.494,3260.461,
982.583,3269.8831,
979.673,3292.4678,
976.762,3247.9979,
973.852,3231.1405,
970.941,3264.5487,
968.030,3280.643,
965.120,3260.182,
962.209,3243.9837,
959.299,3280.2037,
956.388,3325.3681,
953.477,3325.6435,
950.567,3319.3924,
947.656,3382.666,
944.746,3301.9582,
941.835,3335.5014,
938.925,3305.425,
936.014,3301.9423,
933.103,3306.2448,
930.193,3281.2536,
927.282,3268.3793,
924.372,3252.3127,
921.461,3155.2544,
918.551,3095.108,
915.640,3072.0006,
912.729,3057.3942,
909.819,3037.1422,
906.908,3066.627,
903.998,3030.8679,
901.087,3092.5387,
898.176,3132.2956,
895.266,3129.9804,
892.355,3127.7212,
889.445,3130.239,
886.534,3193.7003,
883.624,3232.4905,
880.713,3247.2914,
877.802,3227.0169,
874.892,3167.4169,
871.981,3086.7309,
869.071,3022.4042,
866.160,3058.8572,
863.250,3125.8556,
860.339,3191.5923,
857.428,3227.215,
854.518,3192.3834,
851.607,3162.4289,
848.697,3101.5368,
845.786,3036.2896,
842.875,3070.9074,
839.965,3205.5073,
837.054,3211.9198,
834.144,3271.59,
831.233,3245.2527,
828.323,3244.5492,
825.412,3269.0453,
822.501,3273.952,
819.591,3233.4584,
816.680,3213.0192,
813.770,3183.1899,
810.859,3164.1888,
807.949,3149.328,
805.038,3124.5443,
802.127,3135.2449,
799.217,3088.545,
796.306,3060.8986,
793.396,3040.9598,
790.485,3018.4067,
787.574,3000.2811,
784.664,3001.1012,
781.753,3007.2889,
778.843,3052.3971,
775.932,3092.2377,
773.022,3087.8147,
770.111,3117.2475,
767.200,3107.8303,
764.290,3086.9137,
761.379,3094.3372,
758.469,3121.0647,
755.558,3104.083,
752.648,3064.982,
749.737,3051.3749,
746.826,3047.3176,
743.916,3042.0616,
741.005,3032.9924,
738.095,3048.4181,
735.184,2958.7224,
732.274,2892.2738,
729.363,2901.8991,
726.452,2981.5589,
723.542,3022.0285,
720.631,3018.8982,
717.721,3025.8427,
714.810,3042.1477,
711.899,3048.6559,
708.989,3007.5027,
706.078,3068.9503,
703.168,3042.3518,
700.257,3009.8866,
697.347,3005.2932,
694.436,3015.0498,
691.525,2970.8405,
688.615,2954.332,
685.704,2970.5396,
682.794,3000.0585,
679.883,3011.0161,
676.973,3050.2833,
674.062,3058.8881,
671.151,3079.8515,
668.241,3093.6228,
665.330,3051.9264,
662.420,3023.9708,
659.509,3048.7267,
656.598,3071.443,
653.688,3089.9822,
650.777,3127.3058,
647.867,3069.9702,
644.956,3018.2435,
642.046,2985.1288,
639.135,2980.4248,
636.224,3011.4251,
633.314,3046.3584,
630.403,3091.9051,
627.493,3113.4093,
624.582,3111.1346,
621.672,3128.5584,
618.761,3077.5741,
615.850,3075.0247,
612.940,3123.1357,
610.029,3192.2772,
607.119,3180.4327,
604.208,3173.5699,
601.297,3177.2322,
598.387,3169.205,
595.476,3137.1469,
592.566,3167.8425,
589.655,3138.9118,
586.745,3114.1744,
583.834,3124.9146,
580.923,3191.2263,
578.013,3187.3026,
575.102,3186.8236,
572.192,3178.3179,
569.281,3175.3258,
566.371,3248.1098,
563.460,3231.2641,
560.549,3191.0387,
557.639,3162.2042,
554.728,3173.5019,
551.818,3225.0028,
548.907,3204.5605,
545.996,3191.637,
543.086,3205.9342,
540.175,3218.3925,
537.265,3209.1101,
534.354,3219.2973,
531.444,3242.7244,
528.533,3263.3872,
525.622,3209.0709,
522.712,3223.3404,
519.801,3252.0883,
516.891,3285.6485,
513.980,3356.8837,
511.070,3368.1804,
508.159,3370.25,
505.248,3386.7739,
502.338,3437.244,
499.427,3471.2047,
496.517,3523.2399,
493.606,3546.8282,
490.695,3531.7805,
487.785,3557.1836,
484.874,3559.3113,
481.964,3564.8945,
479.053,3568.7343,
476.143,3545.6954,
473.232,3565.8321,
470.321,3557.7064,
467.411,3526.8272,
464.500,3488.0063,
461.590,3517.8702,
458.679,3607.6936,
455.769,3661.3324,
452.858,3632.3751,
449.947,3623.9719,
447.037,3649.5542,
444.126,3656.8985,
441.216,3640.7052,
438.305,3649.0864,
435.395,3711.2242,
432.484,3732.8312,
429.573,3709.1974,
426.663,3670.4302,
423.752,3559.8475,
420.842,3454.7942,
417.931,3363.7031,
415.020,3287.8673,
412.110,3548.6307,
409.199,3742.5604,
406.289,3828.0154,
403.378,3778.3473,
400.468,3807.0751,
397.557,3814.7076,
394.646,3852.5745,
391.736,3958.5498,
388.825,3936.6771,
385.915,3934.5075,
383.004,3942.8187,
380.094,3954.4419,
377.183,3958.2043,
374.272,3976.619,
371.362,4006.2607,
368.451,4042.022,
365.541,4038.2694,
362.630,4049.2673,
359.719,4077.6,
356.809,4120.8875,
353.898,4114.8971,
350.988,4102.4003,
348.077,4087.4418,
345.167,4073.0608,
342.256,4069.3255,
339.345,4068.25,
336.435,4088.5142,
333.524,4140.4514,
330.614,4115.1161,
327.703,4087.2272,
324.793,4075.7259,
321.882,4097.4213,
318.971,4168.0483,
316.061,4193.2266,
313.150,4205.3357,
310.240,4240.9572,
307.329,4260.1159,
304.418,4283.2084,
301.508,4295.3577,
298.597,4269.4431,
295.687,4291.6307,
292.776,4344.5002,
289.866,4413.7711,
286.955,4468.4368,
284.044,4492.695,
281.134,4550.0171,
278.223,4632.6512,
275.313,4642.2303,
272.402,4609.9767,
269.492,4596.9736,
266.581,4624.2995,
263.670,4652.9715,
260.760,4727.0703,
257.849,4793.6657,
254.939,4812.0127,
252.028,4860.7476,
249.117,4883.8183,
246.207,4898.1523,
243.296,4932.558,
240.386,4883.3577,
237.475,4857.1709,
234.565,4859.4448,
231.654,4854.3321,
228.743,4829.0845,
225.833,4806.0668,
222.922,4792.6532,
220.012,4758.4111,
217.101,4751.1757,
214.191,4765.9595,
211.280,4801.6051,
208.369,4851.3469,
205.459,4839.116,
202.548,4787.6288,
199.638,4795.611,
196.727,4825.4846,
193.816,4835.1122,
190.906,4812.0942,
187.995,4893.185,
185.085,4911.7929,
182.174,4928.8696,
179.264,5030.7796,
176.353,5039.0461,
173.442,5066.2546,
170.532,5110.1934,
167.621,5049.6315,
164.711,4906.0626,
161.800,4733.2496,
158.890,4563.3938,
155.979,4301.9066,
153.068,3930.5741,
150.158,3485.2367,
147.247,3079.5937,
144.337,2554.2913,
141.426,2002.8321,
138.516,1464.4468,
135.605,1073.1293,
132.694,740.90959,
129.784,472.63748,
126.873,305.2971,
123.963,219.46462,
121.052,162.40278,
118.141,117.42695,
115.231,89.537756,
112.320,74.437277,
109.410,66.931961,
106.499,54.825322,
103.589,42.725674,
100.678,33.62027,
97.767,29.354644,
94.857,36.17989,
91.946,33.203337,
89.036,24.588694,
86.125,26.71631,
83.215,20.348035,
80.304,15.207731,
77.393,18.04041,
74.483,24.146215,
71.572,24.713535,
68.662,19.97293,
65.751,17.147126,
62.840,14.804894,
59.930,13.624572,
57.019,15.034736,
54.109,12.264196,
51.198,10.25,
48.288,10.244338,
45.377,9.5409595,
42.466,9.25,
39.556,9.5953557,
36.645,11.701926,
33.735,9.1345092,
30.824,5.1455651,
27.914,1.6396889,
25.003,6.2310998,
22.092,11.187427,
19.182,15.25,
16.271,15.25,
13.361,42.223311,
10.450,71.678045,
7.539,27.684177,
4.629,-49.323272,
1.718,-172.32931,
-1.192,-373.10694,
-4.103,-228.60254,
-7.013,-82.571338,
-9.924,0.25,
