,PLE9A8~1,
Wavenumbers [1/cm],Intensity,
3014.167,-3.5,
3011.256,3.7499463,
3008.346,72.129394,
3005.435,75.57774,
3002.525,79.5,
2999.614,87.123364,
2996.704,89.040203,
2993.793,88.385368,
2990.882,88.973237,
2987.972,115.40415,
2985.061,92.953197,
2982.151,109.63615,
2979.240,105.5,
2976.329,110.75956,
2973.419,114.23838,
2970.508,119.96665,
2967.598,113.64337,
2964.687,117.93274,
2961.777,135.80786,
2958.866,132.50445,
2955.955,128.77655,
2953.045,135.58277,
2950.134,149.69246,
2947.224,138.01244,
2944.313,146.5114,
2941.403,169.3937,
2938.492,153.94716,
2935.581,152.6399,
2932.671,151.58156,
2929.760,152.54999,
2926.850,166.40263,
2923.939,161.5,
2921.028,166.12358,
2918.118,179.5995,
2915.207,170.20247,
2912.297,189.40268,
2909.386,172.27373,
2906.476,182.46065,
2903.565,187.30741,
2900.654,180.06419,
2897.744,174.75144,
2894.833,179.65491,
2891.923,173.90711,
2889.012,181.45376,
2886.102,200.12432,
2883.191,199.50283,
2880.280,231.94021,
2877.370,295.03478,
2874.459,313.88323,
2871.549,246.0658,
2868.638,205.45055,
2865.727,196.28465,
2862.817,181.95722,
2859.906,195.09544,
2856.996,209.49094,
2854.085,192.13442,
2851.175,197.47887,
2848.264,199.941,
2845.353,193.34903,
2842.443,186.8993,
2839.532,195.26115,
2836.622,185.01693,
2833.711,189.29277,
2830.801,189.99632,
2827.890,184.77098,
2824.979,204.11787,
2822.069,189.84116,
2819.158,208.85848,
2816.248,190.75289,
2813.337,198.15976,
2810.427,189.76447,
2807.516,191.07547,
2804.605,200.13462,
2801.695,200.84209,
2798.784,209.46508,
2795.874,205.22032,
2792.963,207.21447,
2790.052,197.503,
2787.142,206.05269,
2784.231,203.98448,
2781.321,204.11707,
2778.410,187.23476,
2775.500,205.51965,
2772.589,196.84633,
2769.678,204.60578,
2766.768,214.55826,
2763.857,203.342,
2760.947,211.55674,
2758.036,226.42997,
2755.126,212.5,
2752.215,213.56365,
2749.304,217.9892,
2746.394,209.92338,
2743.483,209.85001,
2740.573,214.7102,
2737.662,206.19082,
2734.751,214.12634,
2731.841,228.01466,
2728.930,220.25429,
2726.020,219.72975,
2723.109,229.04633,
2720.199,218.00934,
2717.288,219.14963,
2714.377,232.9164,
2711.467,245.36922,
2708.556,232.14884,
2705.646,232.96478,
2702.735,235.64689,
2699.825,224.32549,
2696.914,220.3568,
2694.003,261.34391,
2691.093,241.89231,
2688.182,226.7363,
2685.272,249.50854,
2682.361,233.98799,
2679.450,239.12965,
2676.540,237.56097,
2673.629,237.84531,
2670.719,226.71904,
2667.808,238.72183,
2664.898,257.60409,
2661.987,245.36664,
2659.076,246.24569,
2656.166,244.20994,
2653.255,254.2381,
2650.345,245.81942,
2647.434,257.01443,
2644.524,261.34172,
2641.613,251.27121,
2638.702,260.29485,
2635.792,246.90578,
2632.881,259.73794,
2629.971,256.03014,
2627.060,246.99844,
2624.149,266.84999,
2621.239,269.48814,
2618.328,241.39013,
2615.418,260.50454,
2612.507,267.18771,
2609.597,281.58184,
2606.686,264.4217,
2603.775,277.46032,
2600.865,275.44197,
2597.954,278.5,
2595.044,278.16962,
2592.133,269.55088,
2589.223,281.44002,
2586.312,281.67085,
2583.401,290.13141,
2580.491,286.43273,
2577.580,301.47855,
2574.670,285.73263,
2571.759,281.80308,
2568.848,297.67134,
2565.938,290.26199,
2563.027,285.08632,
2560.117,301.58412,
2557.206,297.26753,
2554.296,285.27574,
2551.385,304.81401,
2548.474,298.75911,
2545.564,302.27841,
2542.653,301.35235,
2539.743,294.16636,
2536.832,303.15422,
2533.922,302.54731,
2531.011,303.30019,
2528.100,304.96344,
2525.190,305.17541,
2522.279,320.15657,
2519.369,326.55702,
2516.458,307.16431,
2513.548,302.88184,
2510.637,318.1311,
2507.726,312.18773,
2504.816,312.06257,
2501.905,312.5,
2498.995,297.15691,
2496.084,309.33973,
2493.173,328.42153,
2490.263,329.33162,
2487.352,316.16773,
2484.442,334.34796,
2481.531,336.76069,
2478.621,364.74656,
2475.710,311.65336,
2472.799,340.37883,
2469.889,364.10664,
2466.978,351.84029,
2464.068,361.90745,
2461.157,338.57992,
2458.247,350.22057,
2455.336,352.45695,
2452.425,336.66979,
2449.515,355.5,
2446.604,353.03228,
2443.694,341.52301,
2440.783,359.98086,
2437.872,373.09889,
2434.962,355.40784,
2432.051,350.1299,
2429.141,374.04107,
2426.230,353.19497,
2423.320,368.24302,
2420.409,367.92936,
2417.498,379.69663,
2414.588,370.69016,
2411.677,365.89041,
2408.767,351.27067,
2405.856,363.06663,
2402.946,376.66086,
2400.035,364.21595,
2397.124,368.17379,
2394.214,367.01201,
2391.303,364.75406,
2388.393,377.48605,
2385.482,375.63219,
2382.571,374.82906,
2379.661,381.33712,
2376.750,383.71186,
2373.840,384.20623,
2370.929,374.61913,
2368.019,393.57267,
2365.108,388.26702,
2362.197,390.70821,
2359.287,387.90334,
2356.376,388.49824,
2353.466,408.53085,
2350.555,403.66011,
2347.645,413.82847,
2344.734,422.22812,
2341.823,419.56633,
2338.913,406.0791,
2336.002,403.94972,
2333.092,410.37358,
2330.181,401.20079,
2327.270,407.94995,
2324.360,427.61795,
2321.449,414.20748,
2318.539,416.60704,
2315.628,438.93606,
2312.718,419.11893,
2309.807,413.59301,
2306.896,431.77543,
2303.986,426.70766,
2301.075,413.05317,
2298.165,422.08664,
2295.254,448.93988,
2292.344,437.45025,
2289.433,433.89,
2286.522,444.39289,
2283.612,428.76912,
2280.701,413.11437,
2277.791,430.82247,
2274.880,462.286,
2271.969,452.60288,
2269.059,452.4646,
2266.148,463.5,
2263.238,457.20271,
2260.327,464.77563,
2257.417,448.85388,
2254.506,474.11824,
2251.595,470.79094,
2248.685,475.33843,
2245.774,480.30217,
2242.864,463.53739,
2239.953,475.9966,
2237.043,464.7725,
2234.132,462.15194,
2231.221,486.94973,
2228.311,487.80156,
2225.400,481.1192,
2222.490,501.38597,
2219.579,498.55142,
2216.669,500.50954,
2213.758,501.10915,
2210.847,493.63351,
2207.937,512.60421,
2205.026,514.27726,
2202.116,523.78026,
2199.205,519.98683,
2196.294,529.56601,
2193.384,522.94749,
2190.473,522.35798,
2187.563,533.558,
2184.652,544.89755,
2181.742,544.15942,
2178.831,557.09536,
2175.920,570.16303,
2173.010,558.27381,
2170.099,607.09377,
2167.189,614.81572,
2164.278,655.27186,
2161.368,653.06943,
2158.457,702.54891,
2155.546,735.36254,
2152.636,754.59042,
2149.725,809.59392,
2146.815,833.0662,
2143.904,829.70816,
2140.993,851.12961,
2138.083,864.52427,
2135.172,862.63435,
2132.262,868.40581,
2129.351,886.78624,
2126.441,873.48054,
2123.530,869.11838,
2120.619,831.64695,
2117.709,797.47987,
2114.798,760.17682,
2111.888,720.90108,
2108.977,674.61257,
2106.067,653.15784,
2103.156,654.89918,
2100.245,629.49561,
2097.335,618.16493,
2094.424,588.65415,
2091.514,593.71235,
2088.603,579.10834,
2085.692,571.81967,
2082.782,567.01812,
2079.871,579.9294,
2076.961,585.37084,
2074.050,599.06364,
2071.140,589.21275,
2068.229,582.22787,
2065.318,575.37599,
2062.408,581.25793,
2059.497,558.42256,
2056.587,538.17433,
2053.676,550.2994,
2050.766,540.50075,
2047.855,557.47152,
2044.944,560.62339,
2042.034,580.62707,
2039.123,570.06229,
2036.213,580.55995,
2033.302,556.80448,
2030.391,562.38101,
2027.481,575.45116,
2024.570,548.00078,
2021.660,582.01657,
2018.749,563.61397,
2015.839,565.69291,
2012.928,563.48826,
2010.017,587.13519,
2007.107,605.03269,
2004.196,594.59525,
2001.286,596.68728,
1998.375,596.89173,
1995.465,554.23661,
1992.554,550.38817,
1989.643,574.67047,
1986.733,577.14211,
1983.822,587.93575,
1980.912,581.53936,
1978.001,572.12709,
1975.090,570.31221,
1972.180,567.91356,
1969.269,577.29313,
1966.359,579.90537,
1963.448,589.45773,
1960.538,612.16472,
1957.627,591.53404,
1954.716,566.16072,
1951.806,580.14582,
1948.895,588.80168,
1945.985,565.13399,
1943.074,562.24553,
1940.164,536.36534,
1937.253,549.71703,
1934.342,562.91872,
1931.432,553.5,
1928.521,582.7228,
1925.611,564.62373,
1922.700,546.75138,
1919.790,564.44776,
1916.879,560.058,
1913.968,558.50123,
1911.058,557.6982,
1908.147,565.54822,
1905.237,589.36759,
1902.326,555.92814,
1899.415,567.4683,
1896.505,575.02414,
1893.594,584.58843,
1890.684,589.5,
1887.773,586.61214,
1884.863,579.39749,
1881.952,566.0376,
1879.041,554.69159,
1876.131,559.82941,
1873.220,533.60608,
1870.310,559.20398,
1867.399,575.27609,
1864.489,569.20098,
1861.578,583.13762,
1858.667,550.94012,
1855.757,559.27923,
1852.846,586.01794,
1849.936,585.91943,
1847.025,580.19827,
1844.114,610.87881,
1841.204,602.79371,
1838.293,606.98753,
1835.383,617.2325,
1832.472,597.55739,
1829.562,599.10886,
1826.651,591.40556,
1823.740,573.30841,
1820.830,594.19313,
1817.919,607.20064,
1815.009,577.67558,
1812.098,601.22439,
1809.188,627.94956,
1806.277,599.18609,
1803.366,603.83272,
1800.456,624.04957,
1797.545,633.96097,
1794.635,639.53202,
1791.724,645.17963,
1788.813,641.70411,
1785.903,659.42438,
1782.992,665.84274,
1780.082,656.97322,
1777.171,710.50697,
1774.261,702.18931,
1771.350,661.10026,
1768.439,671.62516,
1765.529,642.49906,
1762.618,653.89253,
1759.708,668.92388,
1756.797,688.09091,
1753.887,679.85715,
1750.976,653.19306,
1748.065,688.82411,
1745.155,680.92603,
1742.244,686.99905,
1739.334,682.38236,
1736.423,667.43459,
1733.512,672.50409,
1730.602,694.20042,
1727.691,682.07615,
1724.781,696.16441,
1721.870,703.10953,
1718.960,684.58866,
1716.049,713.22001,
1713.138,724.62997,
1710.228,707.22376,
1707.317,730.15257,
1704.407,740.68718,
1701.496,736.03071,
1698.586,731.80406,
1695.675,763.31409,
1692.764,773.07377,
1689.854,766.80315,
1686.943,741.37687,
1684.033,760.97844,
1681.122,743.80586,
1678.211,799.95751,
1675.301,783.55242,
1672.390,843.35943,
1669.480,796.66044,
1666.569,816.85549,
1663.659,844.46734,
1660.748,843.05917,
1657.837,871.76244,
1654.927,883.31257,
1652.016,875.4271,
1649.106,873.47924,
1646.195,913.07543,
1643.285,935.9987,
1640.374,915.08536,
1637.463,943.4908,
1634.553,997.33744,
1631.642,987.0429,
1628.732,1036.7192,
1625.821,1073.572,
1622.911,1182.8801,
1620.000,1150.9158,
1617.089,1273.9925,
1614.179,1286.218,
1611.268,1398.1874,
1608.358,1469.2224,
1605.447,1576.2151,
1602.536,1589.9551,
1599.626,1578.5409,
1596.715,1554.81,
1593.805,1490.7911,
1590.894,1516.9655,
1587.984,1507.6425,
1585.073,1511.4557,
1582.162,1484.1139,
1579.252,1465.4072,
1576.341,1438.4681,
1573.431,1400.3899,
1570.520,1395.3219,
1567.610,1365.9505,
1564.699,1378.701,
1561.788,1356.5144,
1558.878,1369.445,
1555.967,1367.626,
1553.057,1317.1211,
1550.146,1289.4273,
1547.235,1306.3904,
1544.325,1278.7817,
1541.414,1240.4793,
1538.504,1240.6656,
1535.593,1200.2431,
1532.683,1179.9824,
1529.772,1197.544,
1526.861,1161.2115,
1523.951,1150.7998,
1521.040,1175.2683,
1518.130,1158.5078,
1515.219,1112.4995,
1512.309,1124.8018,
1509.398,1105.1369,
1506.487,1097.5866,
1503.577,1104.8513,
1500.666,1108.5387,
1497.756,1034.5345,
1494.845,1096.2204,
1491.934,1113.4339,
1489.024,1093.2215,
1486.113,1071.174,
1483.203,1065.9473,
1480.292,1047.6813,
1477.382,1028.335,
1474.471,1022.1979,
1471.560,1033.1107,
1468.650,1044.3327,
1465.739,1057.1074,
1462.829,1031.4655,
1459.918,1010.5,
1457.008,997.29983,
1454.097,986.81079,
1451.186,987.83656,
1448.276,988.08278,
1445.365,985.42733,
1442.455,980.88615,
1439.544,992.123,
1436.633,944.76315,
1433.723,992.73717,
1430.812,1019.7663,
1427.902,986.17649,
1424.991,1014.6094,
1422.081,996.23298,
1419.170,977.21879,
1416.259,929.94653,
1413.349,890.80084,
1410.438,935.38303,
1407.528,983.60593,
1404.617,952.87825,
1401.707,944.28744,
1398.796,965.44405,
1395.885,964.84644,
1392.975,960.37491,
1390.064,964.44635,
1387.154,970.18134,
1384.243,934.43251,
1381.332,973.38532,
1378.422,982.52881,
1375.511,1021.8736,
1372.601,989.32347,
1369.690,1049.0772,
1366.780,1043.6593,
1363.869,1125.2243,
1360.958,1137.0333,
1358.048,1152.6057,
1355.137,1172.0771,
1352.227,1185.853,
1349.316,1220.7191,
1346.406,1263.6759,
1343.495,1285.0087,
1340.584,1286.0708,
1337.674,1326.3576,
1334.763,1333.0413,
1331.853,1320.9873,
1328.942,1409.4464,
1326.032,1366.669,
1323.121,1423.4097,
1320.210,1420.1972,
1317.300,1466.1134,
1314.389,1514.6946,
1311.479,1543.3445,
1308.568,1591.6147,
1305.657,1643.2336,
1302.747,1687.3416,
1299.836,1698.3231,
1296.926,1672.8584,
1294.015,1766.6294,
1291.105,1794.2746,
1288.194,1846.2233,
1285.283,1864.228,
1282.373,1898.7733,
1279.462,1915.304,
1276.552,1944.1615,
1273.641,1997.7211,
1270.731,2033.9687,
1267.820,2046.7994,
1264.909,2042.3028,
1261.999,2083.5347,
1259.088,2057.0831,
1256.178,2026.3805,
1253.267,1989.2778,
1250.356,1926.6742,
1247.446,1918.5151,
1244.535,1889.3707,
1241.625,1812.3779,
1238.714,1752.4046,
1235.804,1719.6457,
1232.893,1669.9946,
1229.982,1692.6908,
1227.072,1639.2774,
1224.161,1569.1002,
1221.251,1574.3682,
1218.340,1563.6569,
1215.430,1532.4786,
1212.519,1502.2755,
1209.608,1503.8013,
1206.698,1533.7553,
1203.787,1529.5151,
1200.877,1503.7259,
1197.966,1523.5074,
1195.055,1573.1352,
1192.145,1623.5752,
1189.234,1682.2667,
1186.324,1705.409,
1183.413,1699.6421,
1180.503,1692.151,
1177.592,1692.7526,
1174.681,1698.1781,
1171.771,1662.18,
1168.860,1691.6519,
1165.950,1617.0962,
1163.039,1611.7697,
1160.129,1638.1449,
1157.218,1643.366,
1154.307,1626.8215,
1151.397,1608.4617,
1148.486,1594.6441,
1145.576,1628.5749,
1142.665,1607.2649,
1139.754,1619.3317,
1136.844,1586.7846,
1133.933,1575.6055,
1131.023,1580.3884,
1128.112,1592.4986,
1125.202,1603.7367,
1122.291,1589.2682,
1119.380,1636.4307,
1116.470,1629.3705,
1113.559,1656.337,
1110.649,1663.1903,
1107.738,1657.1418,
1104.828,1652.5,
1101.917,1645.3991,
1099.006,1621.6651,
1096.096,1590.9513,
1093.185,1614.6574,
1090.275,1633.4947,
1087.364,1647.1057,
1084.453,1655.9997,
1081.543,1660.3764,
1078.632,1665.2607,
1075.722,1671.8075,
1072.811,1663.6933,
1069.901,1652.3409,
1066.990,1703.2332,
1064.079,1699.8482,
1061.169,1682.0063,
1058.258,1687.8985,
1055.348,1722.4919,
1052.437,1758.828,
1049.527,1758.0497,
1046.616,1694.6251,
1043.705,1755.3273,
1040.795,1733.9972,
1037.884,1738.3156,
1034.974,1756.5619,
1032.063,1742.6923,
1029.153,1747.3309,
1026.242,1754.2505,
1023.331,1781.165,
1020.421,1802.5333,
1017.510,1825.748,
1014.600,1849.4962,
1011.689,1878.1834,
1008.778,1907.6618,
1005.868,1879.8861,
1002.957,1922.9038,
1000.047,1992.108,
997.136,2036.6437,
994.226,2044.8078,
991.315,2028.8886,
988.404,2003.8799,
985.494,1964.7685,
982.583,1976.7603,
979.673,1971.9152,
976.762,1962.4548,
973.852,1950.8698,
970.941,1949.3168,
968.030,1965.5,
965.120,1965.5394,
962.209,1974.9173,
959.299,1992.7897,
956.388,1995.0203,
953.477,1995.1992,
950.567,2007.8199,
947.656,2027.6087,
944.746,2020.8123,
941.835,2023.7393,
938.925,2038.9771,
936.014,2044.4767,
933.103,2015.3117,
930.193,1970.6937,
927.282,1989.1627,
924.372,1946.0368,
921.461,1903.68,
918.551,1892.8237,
915.640,1872.4029,
912.729,1833.9126,
909.819,1815.949,
906.908,1857.2279,
903.998,1829.2762,
901.087,1832.3206,
898.176,1868.0861,
895.266,1904.9436,
892.355,1914.8141,
889.445,1916.4927,
886.534,1909.821,
883.624,1960.9809,
880.713,1990.0725,
877.802,1987.9417,
874.892,1973.2715,
871.981,1955.4469,
869.071,1995.5468,
866.160,1946.6133,
863.250,1920.9758,
860.339,1940.5466,
857.428,1975.9261,
854.518,1972.5371,
851.607,1939.2544,
848.697,1967.203,
845.786,1976.7914,
842.875,1976.0441,
839.965,1980.5484,
837.054,1962.407,
834.144,1954.1194,
831.233,1997.8301,
828.323,2022.9729,
825.412,2014.5533,
822.501,1987.4786,
819.591,1965.1658,
816.680,1978.1218,
813.770,1957.6929,
810.859,1932.6702,
807.949,1912.8853,
805.038,1899.8805,
802.127,1936.0982,
799.217,1892.5404,
796.306,1875.3649,
793.396,1873.7214,
790.485,1871.2365,
787.574,1866.7491,
784.664,1873.31,
781.753,1875.171,
778.843,1880.8909,
775.932,1892.0555,
773.022,1909.3183,
770.111,1940.3863,
767.200,1901.3891,
764.290,1915.0824,
761.379,1916.776,
758.469,1894.3131,
755.558,1911.4059,
752.648,1874.7488,
749.737,1884.4725,
746.826,1881.8445,
743.916,1868.2208,
741.005,1868.8756,
738.095,1881.0537,
735.184,1845.3169,
732.274,1775.2808,
729.363,1739.6217,
726.452,1784.0181,
723.542,1875.4795,
720.631,1869.0319,
717.721,1866.6457,
714.810,1873.5909,
711.899,1881.6188,
708.989,1873.5496,
706.078,1893.5326,
703.168,1886.9628,
700.257,1879.0874,
697.347,1873.7179,
694.436,1855.9763,
691.525,1836.6849,
688.615,1851.9962,
685.704,1850.9809,
682.794,1842.4574,
679.883,1868.9686,
676.973,1879.3864,
674.062,1915.3183,
671.151,1929.6784,
668.241,1911.5876,
665.330,1873.4622,
662.420,1872.6635,
659.509,1878.8493,
656.598,1921.4475,
653.688,1955.9369,
650.777,1900.284,
647.867,1893.9134,
644.956,1891.8808,
642.046,1898.1336,
639.135,1906.8712,
636.224,1904.5199,
633.314,1908.4896,
630.403,1956.7969,
627.493,1959.1581,
624.582,1917.7394,
621.672,1950.2112,
618.761,1937.8211,
615.850,1929.6431,
612.940,1942.8937,
610.029,1975.8152,
607.119,1983.7115,
604.208,1923.4389,
601.297,1915.4496,
598.387,1945.6851,
595.476,1975.1574,
592.566,1939.7394,
589.655,1963.9508,
586.745,1951.8581,
583.834,1927.2359,
580.923,1972.41,
578.013,1957.5,
575.102,1958.6623,
572.192,1966.4301,
569.281,1978.1398,
566.371,2003.9664,
563.460,2004.3836,
560.549,1984.9834,
557.639,1953.9518,
554.728,1926.491,
551.818,1989.6966,
548.907,1976.0764,
545.996,1978.3283,
543.086,2009.1645,
540.175,2007.6072,
537.265,1995.9115,
534.354,1977.9544,
531.444,1966.7293,
528.533,1972.8863,
525.622,1978.3179,
522.712,2012.2647,
519.801,2018.9886,
516.891,2002.0732,
513.980,2034.5936,
511.070,2025.5261,
508.159,2063.481,
505.248,2111.2511,
502.338,2113.7033,
499.427,2120.6498,
496.517,2128.7222,
493.606,2166.1397,
490.695,2218.7317,
487.785,2134.0547,
484.874,2192.2309,
481.964,2221.118,
479.053,2202.2713,
476.143,2184.6081,
473.232,2204.3627,
470.321,2186.7115,
467.411,2152.662,
464.500,2133.4891,
461.590,2172.5418,
458.679,2211.565,
455.769,2229.459,
452.858,2220.4884,
449.947,2239.5867,
447.037,2230.1513,
444.126,2216.6939,
441.216,2213.3947,
438.305,2241.5861,
435.395,2235.6655,
432.484,2242.5858,
429.573,2258.2575,
426.663,2252.9365,
423.752,2241.3413,
420.842,2233.7599,
417.931,2241.2734,
415.020,2279.1913,
412.110,2333.1761,
409.199,2327.0722,
406.289,2305.9115,
403.378,2322.7049,
400.468,2383.1845,
397.557,2367.5378,
394.646,2352.0075,
391.736,2399.4034,
388.825,2396.3865,
385.915,2384.8561,
383.004,2381.2109,
380.094,2395.6536,
377.183,2398.6635,
374.272,2408.7273,
371.362,2426.5071,
368.451,2450.4088,
365.541,2448.9077,
362.630,2459.4248,
359.719,2463.7645,
356.809,2452.5,
353.898,2452.5,
350.988,2472.0295,
348.077,2471.9467,
345.167,2433.0893,
342.256,2464.4662,
339.345,2462.8713,
336.435,2464.3261,
333.524,2491.537,
330.614,2460.9856,
327.703,2468.4424,
324.793,2478.0552,
321.882,2459.5559,
318.971,2482.6026,
316.061,2510.0326,
313.150,2530.731,
310.240,2531.4731,
307.329,2537.2171,
304.418,2559.106,
301.508,2576.9861,
298.597,2556.2545,
295.687,2568.0448,
292.776,2567.4166,
289.866,2577.2727,
286.955,2671.0908,
284.044,2653.5075,
281.134,2645.4978,
278.223,2666.2723,
275.313,2692.0623,
272.402,2698.6618,
269.492,2718.5112,
266.581,2760.1306,
263.670,2768.9528,
260.760,2803.3654,
257.849,2833.2699,
254.939,2835.4715,
252.028,2817.4039,
249.117,2814.6114,
246.207,2815.5224,
243.296,2800.1496,
240.386,2818.0898,
237.475,2815.8218,
234.565,2790.2084,
231.654,2756.6108,
228.743,2728.7867,
225.833,2704.9629,
222.922,2686.0436,
220.012,2697.7005,
217.101,2708.8607,
214.191,2707.1019,
211.280,2675.821,
208.369,2683.5922,
205.459,2672.1307,
202.548,2640.8565,
199.638,2602.3971,
196.727,2646.9356,
193.816,2671.3519,
190.906,2639.3888,
187.995,2664.7297,
185.085,2667.8257,
182.174,2668.3559,
179.264,2693.6527,
176.353,2717.6457,
173.442,2730.9502,
170.532,2735.6842,
167.621,2754.4295,
164.711,2660.1677,
161.800,2547.3981,
158.890,2479.7437,
155.979,2346.4047,
153.068,2160.1711,
150.158,1932.947,
147.247,1694.5869,
144.337,1379.9672,
141.426,1070.253,
138.516,803.5695,
135.605,570.41872,
132.694,388.61788,
129.784,252.93941,
126.873,162.83305,
123.963,115.47742,
121.052,86.417769,
118.141,68.570219,
115.231,49.3146,
112.320,37.263641,
109.410,31.090934,
106.499,28.954469,
103.589,24.017964,
100.678,21.586487,
97.767,24.430237,
94.857,24.5,
91.946,22.484446,
89.036,18.032327,
86.125,8.8126587,
83.215,7.0309204,
80.304,7.7394327,
77.393,8.4476026,
74.483,9.8102699,
71.572,10.137648,
68.662,9.638535,
65.751,11.051437,
62.840,7.6463841,
59.930,4.8110034,
57.019,9.7465773,
54.109,11.694322,
51.198,13.404828,
48.288,15.460363,
45.377,10.536716,
42.466,11.797755,
39.556,16.154644,
36.645,14.048074,
33.735,16.615491,
30.824,17.953791,
27.914,13.045564,
25.003,16.858462,
22.092,27.249709,
19.182,44.827206,
16.271,85.397634,
13.361,331.61606,
10.450,834.27489,
7.539,1919.457,
4.629,2902.6693,
1.718,3303.3472,
-1.192,2468.168,
-4.103,1492.5326,
-7.013,648.15115,
-9.924,-0.5,
