,PL4AB2~1,
Raman shift [1/cm],Intensity,
3014.167,-2.25,
3011.256,-2.7501074,
3008.346,217.61884,
3005.435,247.63693,
3002.525,265.09004,
2999.614,272.70065,
2996.704,279.83866,
2993.793,273.46544,
2990.882,294.10118,
2987.972,285.86099,
2985.061,305.0899,
2982.151,325.52817,
2979.240,338.63499,
2976.329,335.00956,
2973.419,354.27324,
2970.508,373.64986,
2967.598,373.46325,
2964.687,369.66033,
2961.777,367.22004,
2958.866,395.41419,
2955.955,401.02655,
2953.045,399.19966,
2950.134,404.6334,
2947.224,428.26244,
2944.313,440.80627,
2941.403,464.29835,
2938.492,439.31368,
2935.581,447.72298,
2932.671,460.9474,
2929.760,455.76924,
2926.850,454.2203,
2923.939,475.26868,
2921.028,465.10868,
2918.118,473.2097,
2915.207,486.05399,
2912.297,494.75846,
2909.386,510.56022,
2906.476,488.95228,
2903.565,501.16926,
2900.654,501.52654,
2897.744,507.44827,
2894.833,486.63654,
2891.923,489.9391,
2889.012,483.46098,
2886.102,487.43512,
2883.191,493.75189,
2880.280,458.01793,
2877.370,417.91285,
2874.459,396.38538,
2871.549,451.60562,
2868.638,504.29843,
2865.727,520.98463,
2862.817,504.27808,
2859.906,519.23148,
2856.996,530.25226,
2854.085,550.87609,
2851.175,541.10841,
2848.264,536.191,
2845.353,522.98724,
2842.443,529.35766,
2839.532,521.97389,
2836.622,517.11523,
2833.711,523.17229,
2830.801,520.85074,
2827.890,527.64686,
2824.979,525.68805,
2822.069,543.79549,
2819.158,545.46967,
2816.248,538.76158,
2813.337,556.29634,
2810.427,543.19078,
2807.516,556.31812,
2804.605,555.83655,
2801.695,554.77628,
2798.784,550.08469,
2795.874,546.45976,
2792.963,544.96415,
2790.052,554.74721,
2787.142,557.35515,
2784.231,542.91149,
2781.321,548.56142,
2778.410,547.4099,
2775.500,562.00379,
2772.589,555.13683,
2769.678,585.96503,
2766.768,561.64706,
2763.857,585.22399,
2760.947,578.19011,
2758.036,565.36144,
2755.126,576.55342,
2752.215,578.39073,
2749.304,592.79134,
2746.394,600.47985,
2743.483,594.10001,
2740.573,605.17041,
2737.662,597.21745,
2734.751,612.75,
2731.841,596.69505,
2728.930,611.75,
2726.020,605.63252,
2723.109,609.61583,
2720.199,597.14049,
2717.288,605.87408,
2714.377,632.45363,
2711.467,618.14341,
2708.556,623.39884,
2705.646,622.52464,
2702.735,626.59795,
2699.825,651.02095,
2696.914,637.4636,
2694.003,634.29146,
2691.093,649.66094,
2688.182,644.29444,
2685.272,631.86522,
2682.361,638.83843,
2679.450,641.78288,
2676.540,667.50611,
2673.629,650.10878,
2670.719,643.88864,
2667.808,662.9232,
2664.898,648.45136,
2661.987,666.28375,
2659.076,670.53018,
2656.166,689.08771,
2653.255,674.82483,
2650.345,667.2618,
2647.434,693.32217,
2644.524,699.51489,
2641.613,689.75063,
2638.702,695.82891,
2635.792,688.28041,
2632.881,690.7084,
2629.971,711.30719,
2627.060,699.75062,
2624.149,695.20937,
2621.239,691.99259,
2618.328,701.51297,
2615.418,716.75909,
2612.507,703.44173,
2609.597,722.27096,
2606.686,718.60742,
2603.775,716.95239,
2600.865,752.27227,
2597.954,744.55834,
2595.044,742.07152,
2592.133,742.30412,
2589.223,748.77422,
2586.312,753.69977,
2583.401,742.40328,
2580.491,749.46151,
2577.580,790.72194,
2574.670,775.68716,
2571.759,774.14384,
2568.848,780.27492,
2565.938,763.32139,
2563.027,774.2386,
2560.117,781.20794,
2557.206,772.51753,
2554.296,782.01087,
2551.385,791.61794,
2548.474,771.7868,
2545.564,791.92696,
2542.653,782.62247,
2539.743,803.81161,
2536.832,798.75,
2533.922,803.14423,
2531.011,831.87465,
2528.100,835.81967,
2525.190,815.51967,
2522.279,817.51551,
2519.369,811.84439,
2516.458,801.41077,
2513.548,800.41356,
2510.637,827.64331,
2507.726,816.6831,
2504.816,823.56172,
2501.905,829.30061,
2498.995,820.36241,
2496.084,847.58973,
2493.173,837.93377,
2490.263,836.3229,
2487.352,821.3776,
2484.442,852.4845,
2481.531,847.28181,
2478.621,875.94438,
2475.710,860.78834,
2472.799,867.47644,
2469.889,876.14336,
2466.978,886.96643,
2464.068,866.76579,
2461.157,872.28996,
2458.247,874.48524,
2455.336,880.62086,
2452.425,894.77359,
2449.515,915.21152,
2446.604,883.8076,
2443.694,911.91372,
2440.783,911.31757,
2437.872,931.07818,
2434.962,936.33526,
2432.051,917.4844,
2429.141,921.98511,
2426.230,923.07596,
2423.320,922.67807,
2420.409,946.39739,
2417.498,935.1938,
2414.588,941.91723,
2411.677,955.89343,
2408.767,957.47343,
2405.856,949.34286,
2402.946,967.60165,
2400.035,989.33686,
2397.124,965.99598,
2394.214,980.8304,
2391.303,980.10908,
2388.393,988.48257,
2385.482,995.48563,
2382.571,992.23079,
2379.661,999.37791,
2376.750,1002.8017,
2373.840,1014.3781,
2370.929,1025.6525,
2368.019,1024.2919,
2365.108,1032.7264,
2362.197,1020.8184,
2359.287,1030.7082,
2356.376,1052.7201,
2353.466,1020.3407,
2350.555,1029.0702,
2347.645,1023.3566,
2344.734,1058.4552,
2341.823,1067.7997,
2338.913,1049.6112,
2336.002,1072.3003,
2333.092,1059.1179,
2330.181,1069.085,
2327.270,1078.475,
2324.360,1069.691,
2321.449,1087.7058,
2318.539,1093.8539,
2315.628,1096.6733,
2312.718,1106.6333,
2309.807,1107.2282,
2306.896,1111.2304,
2303.986,1116.367,
2301.075,1129.6649,
2298.165,1138.9233,
2295.254,1109.4609,
2292.344,1127.277,
2289.433,1123.0705,
2286.522,1133.0981,
2283.612,1145.75,
2280.701,1137.9608,
2277.791,1139.6316,
2274.880,1156.4701,
2271.969,1148.4866,
2269.059,1168.5702,
2266.148,1193.7183,
2263.238,1222.3407,
2260.327,1196.9226,
2257.417,1211.3267,
2254.506,1220.1005,
2251.595,1236.3246,
2248.685,1227.8577,
2245.774,1206.8272,
2242.864,1244.7126,
2239.953,1236.805,
2237.043,1263.4775,
2234.132,1260.0409,
2231.221,1244.5122,
2228.311,1278.1533,
2225.400,1283.8775,
2222.490,1255.2354,
2219.579,1279.8709,
2216.669,1309.7738,
2213.758,1334.7553,
2210.847,1344.3016,
2207.937,1397.4291,
2205.026,1414.7477,
2202.116,1479.2744,
2199.205,1477.0378,
2196.294,1499.2879,
2193.384,1525.7235,
2190.473,1592.9566,
2187.563,1591.9772,
2184.652,1647.0337,
2181.742,1703.5012,
2178.831,1738.182,
2175.920,1760.3274,
2173.010,1788.2268,
2170.099,1820.1473,
2167.189,1858.8218,
2164.278,1878.141,
2161.368,1946.4626,
2158.457,2010.8275,
2155.546,2068.5673,
2152.636,2120.0744,
2149.725,2169.2063,
2146.815,2193.1494,
2143.904,2259.2519,
2140.993,2271.4324,
2138.083,2297.8442,
2135.172,2305.6996,
2132.262,2309.2465,
2129.351,2264.7049,
2126.441,2215.4101,
2123.530,2138.4918,
2120.619,2105.8422,
2117.709,2024.2371,
2114.798,1927.7957,
2111.888,1818.7019,
2108.977,1740.24,
2106.067,1695.9987,
2103.156,1639.4792,
2100.245,1615.7287,
2097.335,1573.4411,
2094.424,1507.0056,
2091.514,1498.4033,
2088.603,1497.7132,
2085.692,1458.8356,
2082.782,1477.557,
2079.871,1475.9635,
2076.961,1462.4604,
2074.050,1482.0227,
2071.140,1465.1755,
2068.229,1454.7435,
2065.318,1459.688,
2062.408,1465.0911,
2059.497,1468.5357,
2056.587,1443.8899,
2053.676,1436.5666,
2050.766,1450.5953,
2047.855,1445.4018,
2044.944,1494.1683,
2042.034,1445.698,
2039.123,1452.4907,
2036.213,1460.1922,
2033.302,1472.1629,
2030.391,1469.513,
2027.481,1474.6523,
2024.570,1466.1075,
2021.660,1460.9274,
2018.749,1481.8382,
2015.839,1460.4987,
2012.928,1474.2785,
2010.017,1475.2831,
2007.107,1458.9126,
2004.196,1483.3453,
2001.286,1470.8914,
1998.375,1466.2343,
1995.465,1457.4446,
1992.554,1486.9321,
1989.643,1449.2708,
1986.733,1452.9807,
1983.822,1467.6968,
1980.912,1427.2552,
1978.001,1442.3344,
1975.090,1457.9454,
1972.180,1462.1636,
1969.269,1468.7127,
1966.359,1465.2634,
1963.448,1464.6721,
1960.538,1455.2004,
1957.627,1451.8584,
1954.716,1446.8936,
1951.806,1440.5448,
1948.895,1455.75,
1945.985,1452.6863,
1943.074,1441.5913,
1940.164,1433.0767,
1937.253,1422.3585,
1934.342,1431.7329,
1931.432,1417.0497,
1928.521,1401.256,
1925.611,1398.4708,
1922.700,1431.1989,
1919.790,1420.8022,
1916.879,1442.8668,
1913.968,1464.7254,
1911.058,1444.8551,
1908.147,1479.0521,
1905.237,1421.7059,
1902.326,1437.5752,
1899.415,1425.9037,
1896.505,1436.6113,
1893.594,1423.6555,
1890.684,1450.3708,
1887.773,1457.7761,
1884.863,1465.6953,
1881.952,1458.0102,
1879.041,1450.75,
1876.131,1431.2049,
1873.220,1445.9271,
1870.310,1411.62,
1867.399,1438.2702,
1864.489,1462.0754,
1861.578,1424.486,
1858.667,1463.6841,
1855.757,1473.9743,
1852.846,1455.7961,
1849.936,1480.0293,
1847.025,1480.806,
1844.114,1494.9571,
1841.204,1497.6521,
1838.293,1511.7284,
1835.383,1526.3895,
1832.472,1552.6578,
1829.562,1537.1711,
1826.651,1533.7931,
1823.740,1525.4626,
1820.830,1527.4666,
1817.919,1546.8519,
1815.009,1555.0312,
1812.098,1562.9311,
1809.188,1566.5639,
1806.277,1588.2631,
1803.366,1554.3822,
1800.456,1591.4203,
1797.545,1582.6154,
1794.635,1559.3611,
1791.724,1613.5558,
1788.813,1626.1479,
1785.903,1601.2249,
1782.992,1550.139,
1780.082,1577.5576,
1777.171,1564.0739,
1774.261,1545.1753,
1771.350,1589.9758,
1768.439,1621.5595,
1765.529,1628.4768,
1762.618,1642.1763,
1759.708,1645.4455,
1756.797,1650.0379,
1753.887,1682.1101,
1750.976,1699.4673,
1748.065,1720.5687,
1745.155,1674.2665,
1742.244,1662.2762,
1739.334,1670.6959,
1736.423,1708.6098,
1733.512,1740.0305,
1730.602,1745.002,
1727.691,1780.83,
1724.781,1739.0494,
1721.870,1769.8169,
1718.960,1770.061,
1716.049,1813.0546,
1713.138,1810.6351,
1710.228,1829.6371,
1707.317,1819.4814,
1704.407,1833.0228,
1701.496,1843.8655,
1698.586,1843.826,
1695.675,1885.8569,
1692.764,1897.2705,
1689.854,1878.6161,
1686.943,1916.401,
1684.033,1951.8807,
1681.122,2006.8154,
1678.211,2042.4169,
1675.301,2042.75,
1672.390,2087.9025,
1669.480,2139.2795,
1666.569,2205.1817,
1663.659,2239.1746,
1660.748,2265.7719,
1657.837,2318.1437,
1654.927,2337.39,
1652.016,2406.2117,
1649.106,2425.2151,
1646.195,2445.0927,
1643.285,2502.6895,
1640.374,2631.0496,
1637.463,2739.8849,
1634.553,2804.277,
1631.642,2973.6621,
1628.732,3057.7988,
1625.821,3233.8573,
1622.911,3396.8258,
1620.000,3584.3688,
1617.089,3784.7301,
1614.179,3926.7455,
1611.268,4198.4145,
1608.358,4297.3955,
1605.447,4493.1516,
1602.536,4568.1183,
1599.626,4615.9868,
1596.715,4582.5384,
1593.805,4573.384,
1590.894,4599.1701,
1587.984,4593.223,
1585.073,4532.1928,
1582.162,4460.8033,
1579.252,4359.5552,
1576.341,4315.7181,
1573.431,4266.6754,
1570.520,4206.5942,
1567.610,4135.1217,
1564.699,4075.8734,
1561.788,4010.0463,
1558.878,3953.2463,
1555.967,3832.365,
1553.057,3741.1125,
1550.146,3725.2809,
1547.235,3669.127,
1544.325,3574.59,
1541.414,3536.9903,
1538.504,3501.7286,
1535.593,3451.6295,
1532.683,3440.8845,
1529.772,3440.1438,
1526.861,3416.2545,
1523.951,3396.5954,
1521.040,3383.168,
1518.130,3358.5757,
1515.219,3388.4705,
1512.309,3380.8987,
1509.398,3408.9497,
1506.487,3387.75,
1503.577,3388.4848,
1500.666,3385.5868,
1497.756,3328.8263,
1494.845,3329.83,
1491.934,3331.898,
1489.024,3377.1352,
1486.113,3349.0791,
1483.203,3297.9008,
1480.292,3230.6572,
1477.382,3235.915,
1474.471,3219.7981,
1471.560,3148.4401,
1468.650,3088.2198,
1465.739,3097.3696,
1462.829,3182.1745,
1459.918,3252.4021,
1457.008,3267.7038,
1454.097,3271.2202,
1451.186,3231.3419,
1448.276,3144.0877,
1445.365,3075.9585,
1442.455,2984.8844,
1439.544,2926.077,
1436.633,2908.5445,
1433.723,2830.145,
1430.812,2783.3067,
1427.902,2777.1863,
1424.991,2753.4922,
1422.081,2698.6189,
1419.170,2667.8282,
1416.259,2666.9903,
1413.349,2633.7642,
1410.438,2618.5513,
1407.528,2615.4625,
1404.617,2637.0609,
1401.707,2647.9805,
1398.796,2669.7115,
1395.885,2693.3759,
1392.975,2679.3747,
1390.064,2636.8475,
1387.154,2539.8512,
1384.243,2451.8166,
1381.332,2400.0419,
1378.422,2487.5805,
1375.511,2581.2586,
1372.601,2732.0444,
1369.690,2831.3295,
1366.780,2948.7146,
1363.869,3030.9623,
1360.958,3060.3328,
1358.048,3111.6216,
1355.137,3201.5752,
1352.227,3270.2207,
1349.316,3297.9154,
1346.406,3343.9584,
1343.495,3424.7152,
1340.584,3473.1416,
1337.674,3556.0348,
1334.763,3542.0676,
1331.853,3550.4126,
1328.942,3596.1127,
1326.032,3596.8563,
1323.121,3663.9187,
1320.210,3748.3488,
1317.300,3824.7881,
1314.389,3914.3067,
1311.479,3996.2741,
1308.568,4074.8529,
1305.657,4187.4316,
1302.747,4299.3734,
1299.836,4389.9639,
1296.926,4459.382,
1294.015,4537.5245,
1291.105,4660.5037,
1288.194,4771.8004,
1285.283,4855.8943,
1282.373,4906.9608,
1279.462,4952.9455,
1276.552,5033.0337,
1273.641,5083.8434,
1270.731,5060.3978,
1267.820,5052.8803,
1264.909,5048.8932,
1261.999,5067.4559,
1259.088,4949.7923,
1256.178,4922.195,
1253.267,4820.549,
1250.356,4719.6383,
1247.446,4630.5976,
1244.535,4533.2769,
1241.625,4441.8575,
1238.714,4368.5956,
1235.804,4291.9637,
1232.893,4210.8964,
1229.982,4110.2543,
1227.072,4007.0487,
1224.161,3938.3932,
1221.251,3862.7222,
1218.340,3795.4032,
1215.430,3715.6965,
1212.519,3648.5648,
1209.608,3627.0656,
1206.698,3646.4524,
1203.787,3673.0364,
1200.877,3665.9788,
1197.966,3701.9452,
1195.055,3847.0958,
1192.145,3994.9703,
1189.234,4124.6346,
1186.324,4228.3917,
1183.413,4261.9429,
1180.503,4249.4598,
1177.592,4246.7599,
1174.681,4200.5719,
1171.771,4107.9573,
1168.860,4030.2585,
1165.950,3978.4041,
1163.039,3943.3059,
1160.129,3954.5746,
1157.218,4000.0364,
1154.307,4061.3189,
1151.397,4121.4806,
1148.486,4166.5887,
1145.576,4234.3282,
1142.665,4247.6469,
1139.754,4140.5374,
1136.844,4111.5482,
1133.933,4092.1548,
1131.023,4043.3986,
1128.112,3982.7529,
1125.202,3939.7452,
1122.291,3918.502,
1119.380,3924.339,
1116.470,3984.3509,
1113.559,3954.634,
1110.649,3920.1756,
1107.738,3894.8904,
1104.828,3859.6162,
1101.917,3816.578,
1099.006,3784.9358,
1096.096,3738.1587,
1093.185,3728.5007,
1090.275,3752.8374,
1087.364,3781.3921,
1084.453,3811.9987,
1081.543,3843.9642,
1078.632,3880.4197,
1075.722,3914.9381,
1072.811,3915.3156,
1069.901,3909.2028,
1066.990,3965.3332,
1064.079,3967.8618,
1061.169,3953.9132,
1058.258,3944.2091,
1055.348,3936.3406,
1052.437,3920.0104,
1049.527,3889.5752,
1046.616,3859.1661,
1043.705,3863.4577,
1040.795,3851.0644,
1037.884,3854.382,
1034.974,3855.3222,
1032.063,3846.0959,
1029.153,3873.7886,
1026.242,3882.4382,
1023.331,3888.583,
1020.421,3982.4645,
1017.510,4026.6719,
1014.600,4080.5016,
1011.689,4158.017,
1008.778,4190.7721,
1005.868,4261.0821,
1002.957,4298.0773,
1000.047,4404.214,
997.136,4462.8937,
994.226,4468.8271,
991.315,4422.1287,
988.404,4332.6435,
985.494,4290.1171,
982.583,4261.8507,
979.673,4221.1677,
976.762,4166.6529,
973.852,4142.6121,
970.941,4152.3066,
968.030,4170.3686,
965.120,4224.4958,
962.209,4163.9653,
959.299,4224.5749,
956.388,4243.1107,
953.477,4246.2588,
950.567,4270.5927,
947.656,4292.8614,
944.746,4293.711,
941.835,4282.4126,
938.925,4285.6725,
936.014,4293.3024,
933.103,4291.0412,
930.193,4261.7707,
927.282,4190.7711,
924.372,4135.8067,
921.461,4048.4824,
918.551,4033.6924,
915.640,4027.1772,
912.729,3994.2841,
909.819,3963.3035,
906.908,3944.7701,
903.998,3976.3599,
901.087,3984.75,
898.176,4014.3361,
895.266,4055.6372,
892.355,4091.7125,
889.445,4182.3533,
886.534,4156.0341,
883.624,4170.2621,
880.713,4204.7574,
877.802,4221.4548,
874.892,4198.0061,
871.981,4155.5391,
869.071,4188.9556,
866.160,4188.5404,
863.250,4174.2175,
860.339,4191.314,
857.428,4238.4543,
854.518,4227.0409,
851.607,4167.964,
848.697,4137.1155,
845.786,4155.2552,
842.875,4180.4005,
839.965,4185.857,
837.054,4214.3733,
834.144,4269.8997,
831.233,4292.7491,
828.323,4279.4617,
825.412,4271.3407,
822.501,4286.3668,
819.591,4234.3036,
816.680,4257.5898,
813.770,4270.015,
810.859,4239.9069,
807.949,4206.4671,
805.038,4217.5907,
802.127,4141.863,
799.217,4136.9862,
796.306,4088.3712,
793.396,4049.9714,
790.485,4050.6452,
787.574,4058.8087,
784.664,4086.6925,
781.753,4097.1179,
778.843,4127.6847,
775.932,4142.2441,
773.022,4114.8219,
770.111,4147.525,
767.200,4139.8529,
764.290,4162.1766,
761.379,4166.5708,
758.469,4133.4496,
755.558,4090.8716,
752.648,4094.9446,
749.737,4002.4011,
746.826,3930.8376,
743.916,3855.2103,
741.005,3693.5703,
738.095,3417.5322,
735.184,3068.6936,
732.274,2975.8815,
729.363,3183.9521,
726.452,3585.7427,
723.542,3862.5552,
720.631,3950.3812,
717.721,3963.5845,
714.810,3998.6247,
711.899,4059.4133,
708.989,4027.9433,
706.078,4018.9357,
703.168,3985.1745,
700.257,3969.2883,
697.347,3966.4032,
694.436,3932.6409,
691.525,3928.6219,
688.615,3962.3401,
685.704,3973.2527,
682.794,3958.8777,
679.883,3953.543,
676.973,3971.1731,
674.062,3969.0073,
671.151,4007.3914,
668.241,4049.7906,
665.330,4016.603,
662.420,4055.7408,
659.509,4099.3061,
656.598,4105.902,
653.688,4107.0736,
650.777,4169.1848,
647.867,4093.5336,
644.956,4100.8969,
642.046,4110.7748,
639.135,4103.75,
636.224,4103.945,
633.314,4142.8479,
630.403,4156.2973,
627.493,4132.6329,
624.582,4097.1066,
621.672,4125.6184,
618.761,4117.6307,
615.850,4117.5049,
612.940,4131.7037,
610.029,4156.4598,
607.119,4166.725,
604.208,4205.3807,
601.297,4218.2574,
598.387,4209.4441,
595.476,4194.8642,
592.566,4206.6702,
589.655,4253.4544,
586.745,4236.523,
583.834,4179.0171,
580.923,4165.6363,
578.013,4146.8027,
575.102,4173.8709,
572.192,4225.9755,
569.281,4285.7484,
566.371,4335.8363,
563.460,4316.7641,
560.549,4322.8302,
557.639,4351.2982,
554.728,4383.9325,
551.818,4402.6601,
548.907,4411.6253,
545.996,4432.6343,
543.086,4459.2401,
540.175,4452.2323,
537.265,4430.7459,
534.354,4431.2787,
531.444,4451.7323,
528.533,4484.7366,
525.622,4512.6707,
522.712,4494.4799,
519.801,4490.5883,
516.891,4515.5407,
513.980,4544.1896,
511.070,4526.3239,
508.159,4561.2085,
505.248,4615.2594,
502.338,4634.863,
499.427,4638.7221,
496.517,4658.9823,
493.606,4680.4798,
490.695,4693.2151,
487.785,4689.3661,
484.874,4672.5944,
481.964,4661.2583,
479.053,4652.0504,
476.143,4628.2436,
473.232,4667.0366,
470.321,4651.1225,
467.411,4625.0945,
464.500,4646.1294,
461.590,4621.6257,
458.679,4636.7618,
455.769,4651.9144,
452.858,4652.9877,
449.947,4722.5054,
447.037,4720.9742,
444.126,4704.0955,
441.216,4695.7926,
438.305,4713.3171,
435.395,4726.8958,
432.484,4741.085,
429.573,4760.2051,
426.663,4792.131,
423.752,4749.4178,
420.842,4736.1436,
417.931,4757.7555,
415.020,4807.0487,
412.110,5015.7965,
409.199,5069.7451,
406.289,5026.5797,
403.378,4964.7526,
400.468,4965.5086,
397.557,4937.9859,
394.646,4896.3973,
391.736,4852.6735,
388.825,4787.8097,
385.915,4675.6161,
383.004,4644.5767,
380.094,4775.205,
377.183,4842.9279,
374.272,5000.159,
371.362,5124.1082,
368.451,5142.4795,
365.541,5154.488,
362.630,5192.7094,
359.719,5217.3105,
356.809,5204.7564,
353.898,5171.8093,
350.988,5131.8283,
348.077,5110.1061,
345.167,5121.3555,
342.256,5133.3086,
339.345,5122.9328,
336.435,5137.9541,
333.524,5208.3742,
330.614,5196.4517,
327.703,5234.3358,
324.793,5277.8747,
321.882,5289.8095,
318.971,5314.3431,
316.061,5359.3736,
313.150,5403.9857,
310.240,5424.0228,
307.329,5534.0895,
304.418,5586.8691,
301.508,5557.7745,
298.597,5407.4699,
295.687,5369.0149,
292.776,5435.0838,
289.866,5600.7986,
286.955,5866.7398,
284.044,6133.7148,
281.134,6401.1645,
278.223,6656.9108,
275.313,6842.5983,
272.402,7034.5275,
269.492,7193.2285,
266.581,7308.3127,
263.670,7456.0839,
260.760,7580.7642,
257.849,7676.0235,
254.939,7734.0003,
252.028,7798.4483,
249.117,7809.0452,
246.207,7789.7194,
243.296,7778.0068,
240.386,7648.1106,
237.475,7502.1442,
234.565,7376.8297,
231.654,7370.9867,
228.743,7263.8823,
225.833,7165.9317,
222.922,7115.7898,
220.012,7009.4208,
217.101,6946.7792,
214.191,6876.6606,
211.280,6739.8977,
208.369,6696.7822,
205.459,6691.929,
202.548,6705.4909,
199.638,6686.6241,
196.727,6666.0397,
193.816,6651.9439,
190.906,6645.3883,
187.995,6578.054,
185.085,6633.2441,
182.174,6723.8841,
179.264,6735.4484,
176.353,6720.0897,
173.442,6711.1126,
170.532,6701.5011,
167.621,6613.5421,
164.711,6516.6961,
161.800,6337.2068,
158.890,6004.6926,
155.979,5664.8813,
153.068,5253.4056,
150.158,4759.1153,
147.247,4132.343,
144.337,3385.4808,
141.426,2650.8812,
138.516,1991.3412,
135.605,1420.9358,
132.694,972.18044,
129.784,635.79971,
126.873,420.54563,
123.963,285.12971,
121.052,193.93673,
118.141,138.96628,
115.231,121.69631,
112.320,95.686383,
109.410,70.159066,
106.499,72.295531,
103.589,64.346183,
100.678,56.935135,
97.767,54.802322,
94.857,54.057011,
91.946,48.91267,
89.036,40.959715,
86.125,35.995278,
83.215,35.28092,
80.304,34.073971,
77.393,29.116782,
74.483,28.094865,
71.572,28.474704,
68.662,29.611465,
65.751,28.198563,
62.840,26.786596,
59.930,25.562714,
57.019,24.857632,
54.109,25.347161,
51.198,26.353219,
48.288,27.72735,
45.377,24.913838,
42.466,23.337781,
39.556,23.210474,
36.645,26.019235,
33.735,27.788497,
30.824,29.633548,
27.914,32.438249,
25.003,38.976375,
22.092,45.656141,
19.182,52.688197,
16.271,81.367293,
13.361,322.02314,
10.450,854.53384,
7.539,2119.8813,
4.629,3238.2109,
1.718,3822.9464,
-1.192,3318.2138,
-4.103,2035.3727,
-7.013,870.24215,
-9.924,3.75,
