,PL4F06~1,
Raman shift [1/cm],Intensity,
3014.167,0.125,
3011.256,-1.4250107,
3008.346,223.8832,
3005.435,249.89178,
3002.525,241.29502,
2999.614,275.49257,
2996.704,285.49614,
2993.793,294.88652,
2990.882,294.59824,
2987.972,294.18049,
2985.061,310.00185,
2982.151,328.45442,
2979.240,350.7077,
2976.329,345.85998,
2973.419,349.46364,
2970.508,353.22494,
2967.598,376.125,
2964.687,376.125,
2961.777,377.03099,
2958.866,394.125,
2955.955,402.47233,
2953.045,414.61048,
2950.134,438.0084,
2947.224,441.03959,
2944.313,451.60791,
2941.403,467.25593,
2938.492,480.25236,
2935.581,482.9851,
2932.671,479.76448,
2929.760,485.14424,
2926.850,491.17726,
2923.939,505.40067,
2921.028,503.94248,
2918.118,509.72702,
2915.207,523.18193,
2912.297,533.07422,
2909.386,535.125,
2906.476,530.28793,
2903.565,541.51316,
2900.654,536.97129,
2897.744,533.15014,
2894.833,527.70246,
2891.923,527.6667,
2889.012,541.46604,
2886.102,503.43988,
2883.191,530.09196,
2880.280,499.747,
2877.370,479.77036,
2874.459,448.23827,
2871.549,509.04668,
2868.638,565.30849,
2865.727,559.6019,
2862.817,562.1103,
2859.906,560.8458,
2856.996,549.59556,
2854.085,561.40652,
2851.175,571.45636,
2848.264,559.1985,
2845.353,578.41329,
2842.443,548.52082,
2839.532,538.15494,
2836.622,537.54623,
2833.711,529.96174,
2830.801,528.93088,
2827.890,532.68618,
2824.979,532.54496,
2822.069,555.9203,
2819.158,535.84467,
2816.248,542.58447,
2813.337,561.40306,
2810.427,542.03684,
2807.516,549.17531,
2804.605,545.21155,
2801.695,558.86184,
2798.784,546.01208,
2795.874,537.53923,
2792.963,553.05362,
2790.052,542.12757,
2787.142,544.37488,
2784.231,527.15761,
2781.321,550.74784,
2778.410,549.68971,
2775.500,549.23224,
2772.589,553.85513,
2769.678,552.94407,
2766.768,563.125,
2763.857,559.54504,
2760.947,552.63446,
2758.036,560.05497,
2755.126,583.93483,
2752.215,592.16602,
2749.304,587.04048,
2746.394,571.35882,
2743.483,577.77504,
2740.573,578.99672,
2737.662,583.35872,
2734.751,589.45027,
2731.841,561.36675,
2728.930,604.75644,
2726.020,594.7934,
2723.109,597.01158,
2720.199,591.77186,
2717.288,591.94982,
2714.377,605.79976,
2711.467,606.9283,
2708.556,618.11405,
2705.646,625.74471,
2702.735,610.63274,
2699.825,615.67954,
2696.914,611.50591,
2694.003,626.538,
2691.093,629.87471,
2688.182,629.76204,
2685.272,621.63851,
2682.361,633.60753,
2679.450,635.74224,
2676.540,643.55593,
2673.629,619.11153,
2670.719,637.97159,
2667.808,630.85453,
2664.898,630.82636,
2661.987,640.15859,
2659.076,649.25216,
2656.166,639.8522,
2653.255,652.79337,
2650.345,671.64587,
2647.434,672.21074,
2644.524,675.05546,
2641.613,674.01061,
2638.702,676.06188,
2635.792,662.21773,
2632.881,670.70237,
2629.971,686.82979,
2627.060,653.78938,
2624.149,677.17812,
2621.239,689.13686,
2618.328,693.40442,
2615.418,683.09773,
2612.507,695.74555,
2609.597,680.68588,
2606.686,694.41016,
2603.775,703.48214,
2600.865,719.35375,
2597.954,701.4604,
2595.044,709.77691,
2592.133,713.73647,
2589.223,734.63133,
2586.312,741.5371,
2583.401,715.59577,
2580.491,722.54803,
2577.580,717.17946,
2574.670,742.92983,
2571.759,729.63013,
2568.848,740.71067,
2565.938,744.0776,
2563.027,727.93174,
2560.117,752.03155,
2557.206,742.27629,
2554.296,765.69251,
2551.385,753.50504,
2548.474,768.97705,
2545.564,776.03003,
2542.653,739.98741,
2539.743,758.59419,
2536.832,758.10444,
2533.922,782.90423,
2531.011,775.99942,
2528.100,802.12154,
2525.190,788.57008,
2522.279,778.40639,
2519.369,779.2951,
2516.458,786.47131,
2513.548,814.87935,
2510.637,784.41614,
2507.726,799.44097,
2504.816,798.12613,
2501.905,784.83536,
2498.995,795.72219,
2496.084,801.44554,
2493.173,787.04586,
2490.263,818.8211,
2487.352,828.5006,
2484.442,836.27061,
2481.531,835.70477,
2478.621,833.28612,
2475.710,848.01765,
2472.799,835.11154,
2469.889,838.125,
2466.978,838.125,
2464.068,850.57478,
2461.157,856.93738,
2458.247,865.61016,
2455.336,840.89211,
2452.425,849.49766,
2449.515,832.3142,
2446.604,859.35538,
2443.694,860.14801,
2440.783,881.03491,
2437.872,870.00016,
2434.962,887.87155,
2432.051,876.53864,
2429.141,878.70149,
2426.230,880.92943,
2423.320,908.82542,
2420.409,893.39419,
2417.498,894.73174,
2414.588,917.64961,
2411.677,913.125,
2408.767,911.86024,
2405.856,909.53214,
2402.946,896.06513,
2400.035,919.6931,
2397.124,919.14638,
2394.214,938.0446,
2391.303,929.11958,
2388.393,920.60408,
2385.482,929.77251,
2382.571,945.09938,
2379.661,960.70629,
2376.750,981.70128,
2373.840,965.02511,
2370.929,965.04919,
2368.019,973.61947,
2365.108,969.44961,
2362.197,979.125,
2359.287,989.50328,
2356.376,989.13028,
2353.466,985.94351,
2350.555,987.84024,
2347.645,1001.0853,
2344.734,1003.913,
2341.823,1024.7768,
2338.913,1010.928,
2336.002,1005.0244,
2333.092,1029.6995,
2330.181,1040.1429,
2327.270,1022.2251,
2324.360,1017.1745,
2321.449,1051.9243,
2318.539,1046.6999,
2315.628,1049.4276,
2312.718,1070.3232,
2309.807,1047.1933,
2306.896,1049.3848,
2303.986,1057.4757,
2301.075,1061.891,
2298.165,1065.9136,
2295.254,1064.1896,
2292.344,1063.9092,
2289.433,1084.125,
2286.522,1077.9643,
2283.612,1092.1365,
2280.701,1108.9142,
2277.791,1079.0887,
2274.880,1122.9151,
2271.969,1117.3143,
2269.059,1125.4492,
2266.148,1116.8295,
2263.238,1127.6192,
2260.327,1142.7458,
2257.417,1153.7344,
2254.506,1164.9569,
2251.595,1165.6996,
2248.685,1134.4001,
2245.774,1156.564,
2242.864,1173.2272,
2239.953,1182.7527,
2237.043,1177.8796,
2234.132,1200.2705,
2231.221,1193.572,
2228.311,1211.2616,
2225.400,1227.4777,
2222.490,1204.568,
2219.579,1210.6726,
2216.669,1241.0582,
2213.758,1260.9956,
2210.847,1251.2283,
2207.937,1289.3741,
2205.026,1330.2355,
2202.116,1355.5156,
2199.205,1358.9139,
2196.294,1346.985,
2193.384,1398.4921,
2190.473,1399.5393,
2187.563,1443.415,
2184.652,1505.5348,
2181.742,1520.8979,
2178.831,1551.5064,
2175.920,1616.6004,
2173.010,1654.3512,
2170.099,1708.6528,
2167.189,1741.6632,
2164.278,1817.8858,
2161.368,1857.55,
2158.457,1941.7157,
2155.546,1988.0779,
2152.636,2042.3909,
2149.725,2109.2189,
2146.815,2220.6546,
2143.904,2215.9354,
2140.993,2252.0667,
2138.083,2292.5019,
2135.172,2285.7468,
2132.262,2256.1039,
2129.351,2219.1835,
2126.441,2188.0376,
2123.530,2149.3618,
2120.619,2069.6026,
2117.709,1965.2836,
2114.798,1869.0401,
2111.888,1806.0136,
2108.977,1727.4495,
2106.067,1639.2467,
2103.156,1578.0131,
2100.245,1525.1263,
2097.335,1522.4287,
2094.424,1477.833,
2091.514,1439.762,
2088.603,1428.2264,
2085.692,1443.2662,
2082.782,1424.0248,
2079.871,1438.2335,
2076.961,1445.0604,
2074.050,1406.125,
2071.140,1405.3205,
2068.229,1400.3086,
2065.318,1401.5698,
2062.408,1400.7233,
2059.497,1391.7202,
2056.587,1390.125,
2053.676,1390.9416,
2050.766,1395.7401,
2047.855,1372.3813,
2044.944,1383.9183,
2042.034,1391.9341,
2039.123,1371.3674,
2036.213,1380.0894,
2033.302,1363.8423,
2030.391,1369.3453,
2027.481,1400.1369,
2024.570,1400.011,
2021.660,1400.0067,
2018.749,1409.8591,
2015.839,1404.0666,
2012.928,1409.4354,
2010.017,1395.4377,
2007.107,1375.3119,
2004.196,1388.2917,
2001.286,1407.814,
1998.375,1386.2027,
1995.465,1381.7777,
1992.554,1377.9898,
1989.643,1374.2287,
1986.733,1379.2154,
1983.822,1367.7801,
1980.912,1393.6198,
1978.001,1391.0823,
1975.090,1396.554,
1972.180,1374.5053,
1969.269,1381.8061,
1966.359,1386.3951,
1963.448,1379.664,
1960.538,1398.6012,
1957.627,1399.5584,
1954.716,1374.8432,
1951.806,1357.6715,
1948.895,1373.3537,
1945.985,1403.2018,
1943.074,1377.6011,
1940.164,1365.4326,
1937.253,1358.9988,
1934.342,1377.7405,
1931.432,1362.2606,
1928.521,1353.4635,
1925.611,1355.8004,
1922.700,1326.4247,
1919.790,1335.489,
1916.879,1363.2418,
1913.968,1387.0979,
1911.058,1346.8427,
1908.147,1370.1951,
1905.237,1363.7279,
1902.326,1369.245,
1899.415,1388.1409,
1896.505,1361.456,
1893.594,1342.2043,
1890.684,1373.3864,
1887.773,1397.8746,
1884.863,1412.6763,
1881.952,1386.9228,
1879.041,1376.638,
1876.131,1388.5263,
1873.220,1309.1866,
1870.310,1371.385,
1867.399,1384.013,
1864.489,1365.723,
1861.578,1333.6468,
1858.667,1363.6998,
1855.757,1390.9436,
1852.846,1368.6173,
1849.936,1390.4253,
1847.025,1436.6603,
1844.114,1412.5391,
1841.204,1415.2229,
1838.293,1428.6009,
1835.383,1427.2765,
1832.472,1433.6954,
1829.562,1472.0383,
1826.651,1440.9957,
1823.740,1448.5159,
1820.830,1446.0068,
1817.919,1447.0113,
1815.009,1454.9749,
1812.098,1462.4085,
1809.188,1466.8769,
1806.277,1444.634,
1803.366,1476.9087,
1800.456,1465.2791,
1797.545,1484.4796,
1794.635,1479.415,
1791.724,1494.2317,
1788.813,1527.1276,
1785.903,1538.1734,
1782.992,1529.8835,
1780.082,1487.054,
1777.171,1492.7861,
1774.261,1495.8505,
1771.350,1531.1887,
1768.439,1528.9345,
1765.529,1559.9473,
1762.618,1591.9225,
1759.708,1562.8746,
1756.797,1534.5038,
1753.887,1567.332,
1750.976,1549.0282,
1748.065,1562.2924,
1745.155,1579.8218,
1742.244,1561.2201,
1739.334,1575.3509,
1736.423,1613.3866,
1733.512,1634.5844,
1730.602,1641.8651,
1727.691,1610.8833,
1724.781,1663.2645,
1721.870,1676.9059,
1718.960,1667.9027,
1716.049,1667.8029,
1713.138,1704.0348,
1710.228,1678.7943,
1707.317,1699.7776,
1704.407,1739.0609,
1701.496,1718.5132,
1698.586,1749.3884,
1695.675,1754.9321,
1692.764,1746.6045,
1689.854,1792.0463,
1686.943,1763.2042,
1684.033,1807.9577,
1681.122,1815.023,
1678.211,1885.4493,
1675.301,1884.1312,
1672.390,1940.1729,
1669.480,1956.7106,
1666.569,2029.2393,
1663.659,2039.8072,
1660.748,2140.9707,
1657.837,2135.137,
1654.927,2224.4456,
1652.016,2197.3157,
1649.106,2245.8594,
1646.195,2277.187,
1643.285,2361.3301,
1640.374,2369.8532,
1637.463,2359.1246,
1634.553,2469.056,
1631.642,2532.5148,
1628.732,2659.8005,
1625.821,2773.1852,
1622.911,2864.6066,
1620.000,3033.9706,
1617.089,3211.5628,
1614.179,3369.641,
1611.268,3559.9497,
1608.358,3684.3658,
1605.447,3798.5545,
1602.536,3887.1311,
1599.626,3897.7247,
1596.715,3907.201,
1593.805,3886.661,
1590.894,3829.5235,
1587.984,3845.5095,
1585.073,3775.9548,
1582.162,3761.4552,
1579.252,3750.4871,
1576.341,3692.0506,
1573.431,3681.2577,
1570.520,3643.9061,
1567.610,3629.8897,
1564.699,3603.0239,
1561.788,3567.0689,
1558.878,3498.0901,
1555.967,3422.2358,
1553.057,3367.7805,
1550.146,3298.8888,
1547.235,3234.2474,
1544.325,3193.4624,
1541.414,3141.321,
1538.504,3122.9977,
1535.593,3110.3185,
1532.683,3064.2898,
1529.772,3033.5001,
1526.861,3006.0319,
1523.951,2977.2796,
1521.040,2943.4322,
1518.130,2879.792,
1515.219,2846.7251,
1512.309,2839.4088,
1509.398,2816.7393,
1506.487,2779.109,
1503.577,2797.5659,
1500.666,2797.8865,
1497.756,2778.5994,
1494.845,2757.2434,
1491.934,2688.1943,
1489.024,2709.3691,
1486.113,2692.5079,
1483.203,2642.2758,
1480.292,2600.4875,
1477.382,2569.8776,
1474.471,2557.2186,
1471.560,2549.3197,
1468.650,2523.2104,
1465.739,2499.3152,
1462.829,2480.1887,
1459.918,2447.2629,
1457.008,2469.264,
1454.097,2486.0928,
1451.186,2473.5118,
1448.276,2502.5044,
1445.365,2511.2672,
1442.455,2503.6716,
1439.544,2491.4401,
1436.633,2449.5431,
1433.723,2465.4044,
1430.812,2400.893,
1427.902,2446.8622,
1424.991,2393.7875,
1422.081,2347.1686,
1419.170,2397.5608,
1416.259,2347.8005,
1413.349,2315.244,
1410.438,2293.0301,
1407.528,2270.0315,
1404.617,2290.4814,
1401.707,2315.8945,
1398.796,2329.0935,
1395.885,2344.0857,
1392.975,2361.7504,
1390.064,2355.8144,
1387.154,2290.9191,
1384.243,2261.6049,
1381.332,2192.9903,
1378.422,2246.0665,
1375.511,2361.2906,
1372.601,2502.2821,
1369.690,2582.7028,
1366.780,2640.8551,
1363.869,2741.0287,
1360.958,2739.1335,
1358.048,2754.3505,
1355.137,2846.5153,
1352.227,2911.8701,
1349.316,2950.8973,
1346.406,3008.0829,
1343.495,3040.768,
1340.584,3141.8744,
1337.674,3179.7666,
1334.763,3163.2301,
1331.853,3244.8264,
1328.942,3318.3927,
1326.032,3305.1032,
1323.121,3394.2275,
1320.210,3446.4367,
1317.300,3419.5306,
1314.389,3462.9875,
1311.479,3538.1735,
1308.568,3566.5702,
1305.657,3605.0823,
1302.747,3647.2783,
1299.836,3721.6756,
1296.926,3859.637,
1294.015,3978.2298,
1291.105,3980.4834,
1288.194,4085.5591,
1285.283,4173.7013,
1282.373,4272.1638,
1279.462,4337.0854,
1276.552,4356.9833,
1273.641,4365.1987,
1270.731,4392.7668,
1267.820,4422.0374,
1264.909,4367.652,
1261.999,4335.3913,
1259.088,4342.6883,
1256.178,4284.0295,
1253.267,4221.9557,
1250.356,4174.2941,
1247.446,4102.7992,
1244.535,4006.6341,
1241.625,3926.5177,
1238.714,3852.9593,
1235.804,3760.193,
1232.893,3740.8831,
1229.982,3704.401,
1227.072,3712.5488,
1224.161,3606.381,
1221.251,3509.4406,
1218.340,3429.3566,
1215.430,3400.125,
1212.519,3362.9987,
1209.608,3315.9987,
1206.698,3326.4232,
1203.787,3361.1149,
1200.877,3329.1429,
1197.966,3426.2521,
1195.055,3512.1836,
1192.145,3582.4758,
1189.234,3628.3743,
1186.324,3729.3151,
1183.413,3810.8407,
1180.503,3789.3994,
1177.592,3726.8423,
1174.681,3732.536,
1171.771,3685.7444,
1168.860,3625.9074,
1165.950,3552.3967,
1163.039,3508.8873,
1160.129,3443.4482,
1157.218,3394.5873,
1154.307,3379.5278,
1151.397,3358.9629,
1148.486,3314.4737,
1145.576,3323.32,
1142.665,3350.8453,
1139.754,3306.7482,
1136.844,3230.2965,
1133.933,3238.4884,
1131.023,3257.9878,
1128.112,3255.4101,
1125.202,3252.0139,
1122.291,3219.6317,
1119.380,3237.2722,
1116.470,3252.2752,
1113.559,3297.4269,
1110.649,3308.1605,
1107.738,3321.0563,
1104.828,3318.9776,
1101.917,3302.9713,
1099.006,3314.5785,
1096.096,3323.7599,
1093.185,3285.1277,
1090.275,3317.7329,
1087.364,3297.3078,
1084.453,3297.6241,
1081.543,3317.7659,
1078.632,3319.783,
1075.722,3308.0325,
1072.811,3353.0773,
1069.901,3324.2597,
1066.990,3338.2916,
1064.079,3409.4959,
1061.169,3458.2463,
1058.258,3485.6765,
1055.348,3499.4217,
1052.437,3486.4851,
1049.527,3478.8299,
1046.616,3497.0753,
1043.705,3521.4772,
1040.795,3528.7635,
1037.884,3535.1939,
1034.974,3559.3737,
1032.063,3586.3097,
1029.153,3574.0211,
1026.242,3573.1562,
1023.331,3555.6261,
1020.421,3593.254,
1017.510,3634.0963,
1014.600,3657.2002,
1011.689,3694.9126,
1008.778,3775.4971,
1005.868,3796.2061,
1002.957,3916.6557,
1000.047,4076.3571,
997.136,4171.4125,
994.226,4202.9096,
991.315,4181.073,
988.404,4106.9936,
985.494,4006.8016,
982.583,3947.6992,
979.673,3931.8085,
976.762,3893.3118,
973.852,3873.4291,
970.941,3866.7879,
968.030,3831.6683,
965.120,3812.3219,
962.209,3859.2117,
959.299,3857.2095,
956.388,3886.1629,
953.477,3888.6964,
950.567,3879.9602,
947.656,3949.6794,
944.746,3946.2811,
941.835,3883.7694,
938.925,3917.8207,
936.014,3931.491,
933.103,3920.4781,
930.193,3921.125,
927.282,3918.3295,
924.372,3866.7474,
921.461,3831.4054,
918.551,3755.4795,
915.640,3715.349,
912.729,3724.5883,
909.819,3720.5673,
906.908,3701.1915,
903.998,3691.376,
901.087,3710.7662,
898.176,3724.0794,
895.266,3748.6125,
892.355,3812.161,
889.445,3881.8201,
886.534,3911.3455,
883.624,3876.0822,
880.713,3904.0985,
877.802,3940.7454,
874.892,3923.6765,
871.981,3925.1386,
869.071,3883.368,
866.160,3914.0728,
863.250,3918.0199,
860.339,3924.3817,
857.428,3928.4287,
854.518,3809.2674,
851.607,3883.3216,
848.697,3847.9778,
845.786,3841.694,
842.875,3860.3196,
839.965,3877.2855,
837.054,3919.3669,
834.144,3940.9145,
831.233,3937.1256,
828.323,3911.8584,
825.412,3895.9203,
822.501,3901.1248,
819.591,3862.2841,
816.680,3785.0031,
813.770,3744.1974,
810.859,3732.93,
807.949,3720.242,
805.038,3687.8949,
802.127,3743.8676,
799.217,3728.9994,
796.306,3698.8546,
793.396,3677.2318,
790.485,3664.3864,
787.574,3639.6855,
784.664,3654.4475,
781.753,3639.0084,
778.843,3637.9663,
775.932,3656.6187,
773.022,3680.6322,
770.111,3683.9025,
767.200,3678.7958,
764.290,3685.2153,
761.379,3702.1533,
758.469,3706.7783,
755.558,3659.4686,
752.648,3637.4743,
749.737,3625.9443,
746.826,3582.9624,
743.916,3509.3648,
741.005,3412.3822,
738.095,3211.0367,
735.184,2965.4565,
732.274,2928.6629,
729.363,3081.0376,
726.452,3321.2608,
723.542,3493.6616,
720.631,3517.6512,
717.721,3561.6513,
714.810,3607.1135,
711.899,3635.5706,
708.989,3646.0606,
706.078,3588.4312,
703.168,3567.4456,
700.257,3561.4747,
697.347,3555.8645,
694.436,3543.0994,
691.525,3505.3205,
688.615,3507.1876,
685.704,3526.9392,
682.794,3531.5507,
679.883,3487.0169,
676.973,3484.6128,
674.062,3507.734,
671.151,3534.2749,
668.241,3559.9402,
665.330,3587.8603,
662.420,3582.2692,
659.509,3536.0449,
656.598,3543.8795,
653.688,3586.7447,
650.777,3581.2879,
647.867,3556.6018,
644.956,3587.0357,
642.046,3580.5177,
639.135,3553.54,
636.224,3604.0414,
633.314,3587.3687,
630.403,3604.4086,
627.493,3622.5817,
624.582,3639.7787,
621.672,3692.0503,
618.761,3674.3666,
615.850,3674.7369,
612.940,3715.6446,
610.029,3778.8641,
607.119,3747.2789,
604.208,3733.4748,
601.297,3750.0627,
598.387,3771.4116,
595.476,3767.9654,
592.566,3723.8895,
589.655,3754.3505,
586.745,3739.5396,
583.834,3669.4099,
580.923,3585.3572,
578.013,3623.8092,
575.102,3651.3326,
572.192,3679.8455,
569.281,3712.0618,
566.371,3733.9753,
563.460,3738.2414,
560.549,3753.7434,
557.639,3779.0618,
554.728,3807.0612,
551.818,3821.8872,
548.907,3818.4215,
545.996,3816.4577,
543.086,3829.6875,
540.175,3874.0703,
537.265,3859.018,
534.354,3860.1521,
531.444,3873.1408,
528.533,3890.0981,
525.622,3945.9663,
522.712,3912.0117,
519.801,3903.5103,
516.891,3949.2369,
513.980,4004.2119,
511.070,4035.8902,
508.159,4083.42,
505.248,4125.879,
502.338,4136.0453,
499.427,4201.651,
496.517,4212.9028,
493.606,4225.9591,
490.695,4260.2691,
487.785,4254.1108,
484.874,4301.5918,
481.964,4321.0653,
479.053,4290.349,
476.143,4203.5693,
473.232,4242.0086,
470.321,4234.3096,
467.411,4216.4826,
464.500,4240.7759,
461.590,4226.9926,
458.679,4252.8409,
455.769,4264.5224,
452.858,4238.0794,
449.947,4247.2466,
447.037,4306.1605,
444.126,4318.725,
441.216,4282.6811,
438.305,4314.6822,
435.395,4272.5748,
432.484,4260.6276,
429.573,4284.5151,
426.663,4311.8801,
423.752,4237.4089,
420.842,4175.8105,
417.931,4161.5172,
415.020,4229.7694,
412.110,4320.6502,
409.199,4385.3988,
406.289,4411.7456,
403.378,4389.166,
400.468,4401.2619,
397.557,4388.6722,
394.646,4359.119,
391.736,4319.5314,
388.825,4269.7522,
385.915,4207.2276,
383.004,4197.6769,
380.094,4284.3843,
377.183,4387.4736,
374.272,4480.7159,
371.362,4543.6605,
368.451,4566.7237,
365.541,4609.5042,
362.630,4627.6799,
359.719,4639.6363,
356.809,4657.5717,
353.898,4698.0068,
350.988,4682.0007,
348.077,4669.2893,
345.167,4694.352,
342.256,4698.8345,
339.345,4721.9137,
336.435,4740.2922,
333.524,4738.9706,
330.614,4765.7962,
327.703,4808.5231,
324.793,4845.5075,
321.882,4858.2025,
318.971,4890.1706,
316.061,4905.5198,
313.150,4927.9083,
310.240,4985.0512,
307.329,5004.9909,
304.418,5030.8191,
301.508,5050.565,
298.597,5040.9396,
295.687,5061.1195,
292.776,5120.2919,
289.866,5238.7903,
286.955,5474.4437,
284.044,5708.6273,
281.134,5935.4708,
278.223,6145.5434,
275.313,6298.8093,
272.402,6465.3136,
269.492,6620.7428,
266.581,6752.275,
263.670,6824.3226,
260.760,6930.7959,
257.849,7044.5396,
254.939,7145.8154,
252.028,7216.6141,
249.117,7229.877,
246.207,7207.4956,
243.296,7181.8743,
240.386,7147.7814,
237.475,7094.6272,
234.565,7016.6842,
231.654,6893.2494,
228.743,6773.9154,
225.833,6672.806,
222.922,6594.4706,
220.012,6494.6585,
217.101,6378.2126,
214.191,6285.0053,
211.280,6264.6364,
208.369,6232.1756,
205.459,6203.9497,
202.548,6178.8604,
199.638,6148.3831,
196.727,6125.991,
193.816,6149.9467,
190.906,6232.3632,
187.995,6210.6424,
185.085,6234.3335,
182.174,6258.5473,
179.264,6219.5179,
176.353,6261.9019,
173.442,6286.3122,
170.532,6270.3559,
167.621,6160.7676,
164.711,6030.216,
161.800,5881.3703,
158.890,5712.2343,
155.979,5351.4984,
153.068,4909.4255,
150.158,4401.3386,
147.247,3844.2076,
144.337,3154.6788,
141.426,2462.0516,
138.516,1825.4522,
135.605,1304.1588,
132.694,886.15081,
129.784,570.72509,
126.873,389.08211,
123.963,272.45518,
121.052,190.31173,
118.141,135.34128,
115.231,108.8339,
112.320,89.228646,
109.410,76.306868,
106.499,72.033937,
103.589,58.799402,
100.678,48.038513,
97.767,45.194763,
94.857,44.432011,
91.946,39.69078,
89.036,33.463694,
86.125,35.59131,
83.215,35.063159,
80.304,32.927837,
77.393,29.386987,
74.483,23.228785,
71.572,25.19793,
68.662,33.085988,
65.751,22.489221,
62.840,21.051808,
59.930,22.001283,
57.019,17.770791,
54.109,11.750552,
51.198,11.744311,
48.288,20.164637,
45.377,25.088284,
42.466,23.415026,
39.556,18.125,
36.645,18.125,
33.735,23.317485,
30.824,25.695243,
27.914,17.982316,
25.003,21.483462,
22.092,24.125,
19.182,24.674189,
16.271,41.461952,
13.361,173.71948,
10.450,412.10918,
7.539,795.48431,
4.629,1001.4879,
1.718,953.80504,
-1.192,473.47246,
-4.103,213.41708,
-7.013,59.587121,
-9.924,1.125,
