,PL2132~1,
Wavenumbers [1/cm],Intensity,
3014.167,-5.75,
3011.256,3.0499571,
3008.346,98.74941,
3005.435,118.82597,
3002.525,130.10011,
2999.614,139.87336,
2996.704,135.65722,
2993.793,133.62154,
2990.882,144.15835,
2987.972,165.1491,
2985.061,135.49629,
2982.151,148.78952,
2979.240,161.26424,
2976.329,177.25546,
2973.419,171.40404,
2970.508,171.26662,
2967.598,168.01466,
2964.687,177.51902,
2961.777,193.8998,
2958.866,195.92013,
2955.955,184.42036,
2953.045,191.16723,
2950.134,205.55906,
2947.224,194.13253,
2944.313,225.14886,
2941.403,216.69024,
2938.492,212.69716,
2935.581,220.54571,
2932.671,202.8552,
2929.760,221.23076,
2926.850,204.77256,
2923.939,219.20793,
2921.028,232.41477,
2918.118,226.95151,
2915.207,233.95247,
2912.297,237.22038,
2909.386,236.42519,
2906.476,243.17975,
2903.565,239.59001,
2900.654,223.75555,
2897.744,222.66488,
2894.833,243.29146,
2891.923,204.35569,
2889.012,224.49856,
2886.102,232.87432,
2883.191,205.27832,
2880.280,139.70931,
2877.370,72.639631,
2874.459,51.65264,
2871.549,113.55314,
2868.638,221.62107,
2865.727,211.33839,
2862.817,234.2353,
2859.906,234.50356,
2856.996,251.71603,
2854.085,250.44746,
2851.175,260.51205,
2848.264,249.691,
2845.353,248.40097,
2842.443,249.65975,
2839.532,253.66783,
2836.622,247.18815,
2833.711,238.09458,
2830.801,255.03383,
2827.890,251.45628,
2824.979,248.31195,
2822.069,254.36372,
2819.158,263.86995,
2816.248,258.76737,
2813.337,263.13659,
2810.427,265.59573,
2807.516,257.46594,
2804.605,266.41105,
2801.695,269.43423,
2798.784,264.28492,
2795.874,265.68537,
2792.963,265.03585,
2790.052,264.25086,
2787.142,269.76312,
2784.231,266.66925,
2781.321,266.06142,
2778.410,259.51524,
2775.500,272.63068,
2772.589,248.09709,
2769.678,272.46155,
2766.768,268.82862,
2763.857,261.25193,
2760.947,278.75946,
2758.036,282.79142,
2755.126,282.63034,
2752.215,282.65453,
2749.304,276.01619,
2746.394,273.61493,
2743.483,274.54999,
2740.573,269.26545,
2737.662,282.59023,
2734.751,282.78405,
2731.841,289.9533,
2728.930,287.12715,
2726.020,293.26042,
2723.109,286.17809,
2720.199,279.64049,
2717.288,287.83028,
2714.377,298.27886,
2711.467,303.75878,
2708.556,290.28158,
2705.646,294.64435,
2702.735,295.40721,
2699.825,291.14093,
2696.914,286.53544,
2694.003,316.2679,
2691.093,289.69645,
2688.182,298.65074,
2685.272,307.53307,
2682.361,311.86136,
2679.450,307.89207,
2676.540,324.88417,
2673.629,306.91816,
2670.719,298.54205,
2667.808,299.00682,
2664.898,305.107,
2661.987,318.3501,
2659.076,327.48707,
2656.166,309.95994,
2653.255,319.02551,
2650.345,317.40971,
2647.434,330.10739,
2644.524,336.93344,
2641.613,332.56427,
2638.702,322.40781,
2635.792,322.47033,
2632.881,314.2916,
2629.971,332.0823,
2627.060,320.74782,
2624.149,340.54687,
2621.239,328.22036,
2618.328,326.63148,
2615.418,339.89546,
2612.507,333.11567,
2609.597,352.31188,
2606.686,335.36648,
2603.775,348.25,
2600.865,336.78239,
2597.954,327.01043,
2595.044,333.48296,
2592.133,344.02058,
2589.223,357.64791,
2586.312,366.27511,
2583.401,361.82296,
2580.491,360.41343,
2577.580,362.2368,
2574.670,361.44517,
2571.759,360.43152,
2568.848,353.3053,
2565.938,367.20245,
2563.027,355.78637,
2560.117,360.24067,
2557.206,361.53782,
2554.296,376.07838,
2551.385,378.31603,
2548.474,364.65706,
2545.564,371.77517,
2542.653,376.08222,
2539.743,358.29929,
2536.832,361.04626,
2533.922,386.28154,
2531.011,387.70005,
2528.100,389.44862,
2525.190,380.39139,
2522.279,374.95347,
2519.369,386.83505,
2516.458,380.69405,
2513.548,372.96828,
2510.637,368.29521,
2507.726,386.12361,
2504.816,378.43602,
2501.905,387.91646,
2498.995,398.83197,
2496.084,393.16987,
2493.173,399.67119,
2490.263,406.44097,
2487.352,385.1264,
2484.442,410.66112,
2481.531,410.55865,
2478.621,425.88991,
2475.710,395.40336,
2472.799,416.97644,
2469.889,419.34141,
2466.978,419.85821,
2464.068,433.69978,
2461.157,410.21248,
2458.247,416.80885,
2455.336,426.84492,
2452.425,417.76885,
2449.515,432.75935,
2446.604,420.4367,
2443.694,415.87832,
2440.783,427.48874,
2437.872,440.43232,
2434.962,440.5219,
2432.051,423.83636,
2429.141,428.79107,
2426.230,425.70634,
2423.320,452.99302,
2420.409,449.65378,
2417.498,440.29212,
2414.588,440.05984,
2411.677,432.64444,
2408.767,440.46752,
2405.856,429.90477,
2402.946,455.31613,
2400.035,433.18659,
2397.124,456.0254,
2394.214,445.16681,
2391.303,433.75271,
2388.393,441.74303,
2385.482,430.77874,
2382.571,424.45296,
2379.661,423.64511,
2376.750,450.88051,
2373.840,468.36869,
2370.929,470.27166,
2368.019,466.80292,
2365.108,479.62434,
2362.197,470.38978,
2359.287,468.87172,
2356.376,493.20245,
2353.466,485.25,
2350.555,483.27493,
2347.645,490.31489,
2344.734,494.09792,
2341.823,483.41583,
2338.913,484.20374,
2336.002,494.73324,
2333.092,497.25,
2330.181,495.74105,
2327.270,480.13008,
2324.360,502.8467,
2321.449,504.12756,
2318.539,504.07873,
2315.628,519.96304,
2312.718,519.65088,
2309.807,490.84591,
2306.896,524.99022,
2303.986,512.98369,
2301.075,499.1649,
2298.165,518.79848,
2295.254,521.31463,
2292.344,501.82253,
2289.433,527.59364,
2286.522,530.25,
2283.612,524.72958,
2280.701,520.51906,
2277.791,530.97135,
2274.880,553.81389,
2271.969,558.38991,
2269.059,538.83584,
2266.148,552.73414,
2263.238,540.95658,
2260.327,545.66385,
2257.417,548.16611,
2254.506,552.81417,
2251.595,564.5446,
2248.685,577.13647,
2245.774,571.63483,
2242.864,544.02804,
2239.953,563.44295,
2237.043,584.23644,
2234.132,566.09159,
2231.221,579.43614,
2228.311,575.07218,
2225.400,586.27815,
2222.490,586.32164,
2219.579,589.08808,
2216.669,589.312,
2213.758,589.94806,
2210.847,581.93516,
2207.937,613.74344,
2205.026,621.91706,
2202.116,615.18311,
2199.205,632.84953,
2196.294,625.39005,
2193.384,637.11754,
2190.473,628.37441,
2187.563,654.23067,
2184.652,650.85245,
2181.742,658.38688,
2178.831,677.04381,
2175.920,701.6562,
2173.010,701.82426,
2170.099,757.17661,
2167.189,751.52985,
2164.278,798.02689,
2161.368,851.82039,
2158.457,892.31322,
2155.546,927.21925,
2152.636,990.69133,
2149.725,1015.25,
2146.815,1058.7484,
2143.904,1085.5585,
2140.993,1104.8532,
2138.083,1121.4049,
2135.172,1173.6198,
2132.262,1194.8829,
2129.351,1182.3913,
2126.441,1135.7256,
2123.530,1120.6215,
2120.619,1060.4337,
2117.709,1016.5382,
2114.798,956.88438,
2111.888,906.85072,
2108.977,876.62747,
2106.067,851.56569,
2103.156,799.61874,
2100.245,778.23118,
2097.335,745.60079,
2094.424,726.7287,
2091.514,721.45693,
2088.603,696.90904,
2085.692,687.9786,
2082.782,685.59542,
2079.871,698.85793,
2076.961,695.70205,
2074.050,685.44394,
2071.140,685.22733,
2068.229,665.61067,
2065.318,673.84301,
2062.408,678.78782,
2059.497,670.23809,
2056.587,646.38986,
2053.676,661.93189,
2050.766,646.94357,
2047.855,659.36392,
2044.944,668.03845,
2042.034,688.34812,
2039.123,661.75168,
2036.213,662.32993,
2033.302,652.03246,
2030.391,661.5381,
2027.481,660.76221,
2024.570,675.42103,
2021.660,699.89003,
2018.749,679.68014,
2015.839,666.1916,
2012.928,675.00839,
2010.017,685.87324,
2007.107,682.55092,
2004.196,676.32144,
2001.286,702.81533,
1998.375,694.59054,
1995.465,672.45089,
1992.554,677.13817,
1989.643,685.97349,
1986.733,664.19649,
1983.822,664.94276,
1980.912,673.65581,
1978.001,664.17393,
1975.090,656.84389,
1972.180,654.90559,
1969.269,670.62938,
1966.359,666.79029,
1963.448,666.47722,
1960.538,687.2917,
1957.627,663.60911,
1954.716,671.90528,
1951.806,666.15064,
1948.895,662.71966,
1945.985,650.82026,
1943.074,645.25,
1940.164,652.00977,
1937.253,663.38915,
1934.342,649.64305,
1931.432,629.74527,
1928.521,656.71978,
1925.611,643.25681,
1922.700,639.9558,
1919.790,650.00136,
1916.879,623.34248,
1913.968,649.21557,
1911.058,656.23199,
1908.147,682.52298,
1905.237,667.67645,
1902.326,642.70187,
1899.415,610.29756,
1896.505,612.47299,
1893.594,637.51529,
1890.684,652.25,
1887.773,673.62015,
1884.863,668.83998,
1881.952,658.64499,
1879.041,646.38966,
1876.131,647.95065,
1873.220,630.94462,
1870.310,643.10199,
1867.399,654.09006,
1864.489,632.54767,
1861.578,682.52524,
1858.667,619.01047,
1855.757,636.42422,
1852.846,659.47053,
1849.936,644.06381,
1847.025,660.59791,
1844.114,680.43352,
1841.204,668.13112,
1838.293,665.23836,
1835.383,688.09848,
1832.472,696.50565,
1829.562,702.19323,
1826.651,696.30956,
1823.740,675.23464,
1820.830,692.39981,
1817.919,723.68129,
1815.009,693.28817,
1812.098,715.07675,
1809.188,685.42062,
1806.277,693.02868,
1803.366,690.91545,
1800.456,729.8653,
1797.545,723.25,
1794.635,721.70198,
1791.724,715.21111,
1788.813,736.05103,
1785.903,729.40123,
1782.992,683.56888,
1780.082,647.45505,
1777.171,647.24839,
1774.261,643.44004,
1771.350,676.13976,
1768.439,727.48505,
1765.529,741.34168,
1762.618,739.48624,
1759.708,746.04362,
1756.797,780.22727,
1753.887,776.24854,
1750.976,740.3809,
1748.065,786.8506,
1745.155,781.45675,
1742.244,764.5335,
1739.334,772.35823,
1736.423,776.36962,
1733.512,769.24591,
1730.602,795.42266,
1727.691,803.71468,
1724.781,800.10369,
1721.870,792.0071,
1718.960,812.45027,
1716.049,812.21615,
1713.138,821.50995,
1710.228,816.28762,
1707.317,844.44086,
1704.407,843.75801,
1701.496,880.62346,
1698.586,853.75851,
1695.675,836.27866,
1692.764,887.3197,
1689.854,914.16734,
1686.943,878.53157,
1684.033,872.37418,
1681.122,928.28143,
1678.211,913.40228,
1675.301,935.18216,
1672.390,979.20813,
1669.480,965.28209,
1666.569,969.37696,
1663.659,979.73997,
1660.748,1009.7128,
1657.837,1033.9061,
1654.927,1062.758,
1652.016,1042.5902,
1649.106,1058.0861,
1646.195,1131.25,
1643.285,1130.9082,
1640.374,1117.2744,
1637.463,1166.2228,
1634.553,1219.4126,
1631.642,1230.6735,
1628.732,1269.6115,
1625.821,1330.3279,
1622.911,1448.5794,
1620.000,1440.3634,
1617.089,1596.0858,
1614.179,1716.8377,
1611.268,1764.5398,
1608.358,1849.1764,
1605.447,1967.3366,
1602.536,2015.253,
1599.626,2013.6503,
1596.715,2012.3424,
1593.805,1966.6391,
1590.894,2004.4028,
1587.984,1980.8029,
1585.073,1976.25,
1582.162,1897.7707,
1579.252,1834.7885,
1576.341,1858.6957,
1573.431,1805.3792,
1570.520,1798.9513,
1567.610,1759.7788,
1564.699,1771.3511,
1561.788,1746.7433,
1558.878,1723.3741,
1555.967,1708.6794,
1553.057,1691.1294,
1550.146,1647.9919,
1547.235,1615.2145,
1544.325,1591.8496,
1541.414,1560.8881,
1538.504,1530.3497,
1535.593,1505.051,
1532.683,1479.0088,
1529.772,1445.8628,
1526.861,1412.9848,
1523.951,1401.4681,
1521.040,1405.454,
1518.130,1380.6707,
1515.219,1354.3694,
1512.309,1367.0743,
1509.398,1337.9535,
1506.487,1331.1235,
1503.577,1364.7841,
1500.666,1328.0335,
1497.756,1334.1737,
1494.845,1330.4084,
1491.934,1262.4421,
1489.024,1321.1542,
1486.113,1327.8861,
1483.203,1265.1901,
1480.292,1253.856,
1477.382,1207.9881,
1474.471,1194.9479,
1471.560,1219.6483,
1468.650,1215.5845,
1465.739,1221.4193,
1462.829,1217.5073,
1459.918,1199.2002,
1457.008,1198.8809,
1454.097,1201.7041,
1451.186,1186.5169,
1448.276,1165.7637,
1445.365,1155.7508,
1442.455,1178.6427,
1439.544,1196.3026,
1436.633,1139.3185,
1433.723,1165.3686,
1430.812,1181.7277,
1427.902,1200.8814,
1424.991,1227.4187,
1422.081,1146.5945,
1419.170,1136.6578,
1416.259,1131.3896,
1413.349,1101.5508,
1410.438,1090.1507,
1407.528,1104.6998,
1404.617,1110.3144,
1401.707,1104.0105,
1398.796,1110.6346,
1395.885,1119.3563,
1392.975,1150.314,
1390.064,1203.3606,
1387.154,1159.9591,
1384.243,1116.1834,
1381.332,1178.914,
1378.422,1184.8297,
1375.511,1196.071,
1372.601,1194.4069,
1369.690,1265.3995,
1366.780,1252.6969,
1363.869,1302.9152,
1360.958,1330.1919,
1358.048,1354.6092,
1355.137,1392.9058,
1352.227,1436.2109,
1349.316,1476.2478,
1346.406,1493.7796,
1343.495,1484.9974,
1340.584,1494.7495,
1337.674,1529.8932,
1334.763,1537.1907,
1331.853,1588.1884,
1328.942,1640.06,
1326.032,1617.7033,
1323.121,1700.9067,
1320.210,1704.2813,
1317.300,1725.0737,
1314.389,1771.3477,
1311.479,1842.9292,
1308.568,1916.8706,
1305.657,1950.7932,
1302.747,2016.4471,
1299.836,2094.3926,
1296.926,2138.4209,
1294.015,2142.0982,
1291.105,2165.1441,
1288.194,2227.357,
1285.283,2288.7902,
1282.373,2361.0389,
1279.462,2403.2302,
1276.552,2435.0139,
1273.641,2486.304,
1270.731,2522.2515,
1267.820,2519.806,
1264.909,2557.4589,
1261.999,2564.752,
1259.088,2523.7066,
1256.178,2499.8386,
1253.267,2434.8744,
1250.356,2326.8525,
1247.446,2262.5411,
1244.535,2218.0135,
1241.625,2159.1834,
1238.714,2086.3593,
1235.804,2009.9831,
1232.893,1968.1329,
1229.982,1930.8088,
1227.072,1888.2591,
1224.161,1815.4882,
1221.251,1773.2141,
1218.340,1761.9544,
1215.430,1718.3082,
1212.519,1690.4942,
1209.608,1690.3906,
1206.698,1661.2284,
1203.787,1627.7676,
1200.877,1656.039,
1197.966,1717.1819,
1195.055,1749.2605,
1192.145,1784.3037,
1189.234,1822.1481,
1186.324,1875.981,
1183.413,1900.3008,
1180.503,1887.552,
1177.592,1887.3612,
1174.681,1893.7329,
1171.771,1821.7239,
1168.860,1842.265,
1165.950,1774.9091,
1163.039,1744.9803,
1160.129,1741.0196,
1157.218,1747.5381,
1154.307,1754.3631,
1151.397,1761.9849,
1148.486,1774.6534,
1145.576,1753.2092,
1142.665,1729.2356,
1139.754,1736.1999,
1136.844,1741.0512,
1133.933,1739.904,
1131.023,1747.2198,
1128.112,1759.3925,
1125.202,1762.0423,
1122.291,1754.7406,
1119.380,1730.787,
1116.470,1785.5038,
1113.559,1795.343,
1110.649,1812.6211,
1107.738,1797.1382,
1104.828,1772.089,
1101.917,1765.9541,
1099.006,1761.7449,
1096.096,1744.3362,
1093.185,1729.4101,
1090.275,1744.4354,
1087.364,1768.8337,
1084.453,1756.3139,
1081.543,1751.9584,
1078.632,1773.8911,
1075.722,1787.7545,
1072.811,1793.9397,
1069.901,1789.5734,
1066.990,1818.3499,
1064.079,1838.8603,
1061.169,1873.4174,
1058.258,1882.275,
1055.348,1861.7802,
1052.437,1863.6616,
1049.527,1888.8668,
1046.616,1827.1799,
1043.705,1861.8713,
1040.795,1853.1793,
1037.884,1851.3648,
1034.974,1857.1534,
1032.063,1851.4423,
1029.153,1855.8732,
1026.242,1861.0629,
1023.331,1892.0814,
1020.421,1916.3746,
1017.510,1946.661,
1014.600,1983.2819,
1011.689,2009.8201,
1008.778,2015.2085,
1005.868,2038.4276,
1002.957,2058.2158,
1000.047,2115.122,
997.136,2166.9656,
994.226,2202.1883,
991.315,2215.8144,
988.404,2195.1719,
985.494,2117.6336,
982.583,2134.7647,
979.673,2158.4678,
976.762,2132.7852,
973.852,2125.6044,
970.941,2143.2862,
968.030,2138.805,
965.120,2153.2786,
962.209,2160.099,
959.299,2176.8315,
956.388,2177.0904,
953.477,2164.0295,
950.567,2166.1055,
947.656,2198.7882,
944.746,2149.5139,
941.835,2199.8879,
938.925,2199.747,
936.014,2193.25,
933.103,2187.2474,
930.193,2165.8626,
927.282,2123.7459,
924.372,2114.4442,
921.461,2069.066,
918.551,2012.0037,
915.640,1991.5988,
912.729,1989.222,
909.819,1948.806,
906.908,1953.0181,
903.998,1933.3659,
901.087,1944.7992,
898.176,1981.4501,
895.266,2016.3284,
892.355,2028.8206,
889.445,2037.2133,
886.534,2043.0941,
883.624,2073.1818,
880.713,2070.9186,
877.802,2039.6174,
874.892,1994.2553,
871.981,1921.435,
869.071,1844.577,
866.160,1893.3464,
863.250,1979.9607,
860.339,2059.3821,
857.428,2094.5802,
854.518,2043.7816,
851.607,1993.0254,
848.697,1958.8008,
845.786,1928.5672,
842.875,1943.758,
839.965,2016.2843,
837.054,2071.5663,
834.144,2099.7439,
831.233,2103.9168,
828.323,2106.712,
825.412,2097.6934,
822.501,2075.2714,
819.591,2097.5842,
816.680,2054.9807,
813.770,2020.4429,
810.859,2013.4699,
807.949,2009.2963,
805.038,1978.0376,
802.127,2001.0852,
799.217,1954.7996,
796.306,1908.7363,
793.396,1894.815,
790.485,1910.3558,
787.574,1917.129,
784.664,1887.605,
781.753,1871.5143,
778.843,1902.026,
775.932,1928.4477,
773.022,1910.7167,
770.111,1952.4132,
767.200,1951.4434,
764.290,1941.004,
761.379,1933.4623,
758.469,1935.5983,
755.558,1946.7183,
752.648,1895.3983,
749.737,1902.2225,
746.826,1906.5878,
743.916,1895.9447,
741.005,1885.7348,
738.095,1916.5861,
735.184,1908.809,
732.274,1842.72,
729.363,1797.0007,
726.452,1824.8745,
723.542,1872.6287,
720.631,1859.1947,
717.721,1848.5215,
714.810,1864.8067,
711.899,1893.3589,
708.989,1872.3788,
706.078,1881.0643,
703.168,1866.2478,
700.257,1868.8649,
697.347,1872.8168,
694.436,1817.5992,
691.525,1830.46,
688.615,1828.8476,
685.704,1827.5451,
682.794,1840.0158,
679.883,1875.214,
676.973,1874.4126,
674.062,1894.6686,
671.151,1898.7984,
668.241,1887.344,
665.330,1881.9685,
662.420,1897.1444,
659.509,1905.3294,
656.598,1922.5307,
653.688,1937.5693,
650.777,1923.9539,
647.867,1885.7301,
644.956,1845.6733,
642.046,1815.4704,
639.135,1805.2806,
636.224,1824.4768,
633.314,1869.7313,
630.403,1871.1994,
627.493,1883.4537,
624.582,1914.25,
621.672,1914.25,
618.761,1908.9304,
615.850,1899.5362,
612.940,1895.2992,
610.029,1899.1185,
607.119,1898.3288,
604.208,1884.7597,
601.297,1889.7189,
598.387,1896.2371,
595.476,1887.2156,
592.566,1897.4475,
589.655,1926.4614,
586.745,1917.3817,
583.834,1897.6684,
580.923,1938.0889,
578.013,1911.4079,
575.102,1901.3821,
572.192,1917.1142,
569.281,1954.171,
566.371,1981.5628,
563.460,1975.7844,
560.549,1937.1659,
557.639,1921.4665,
554.728,1978.0182,
551.818,1958.5103,
548.907,1952.4218,
545.996,1945.8069,
543.086,1942.6184,
540.175,1967.5351,
537.265,1941.7274,
534.354,1958.843,
531.444,1975.3823,
528.533,1950.3954,
525.622,1994.6244,
522.712,2001.2162,
519.801,1996.5768,
516.891,2002.1098,
513.980,2050.8905,
511.070,2041.8674,
508.159,2067.7694,
505.248,2110.7623,
502.338,2137.9218,
499.427,2195.0374,
496.517,2215.9066,
493.606,2231.3542,
490.695,2249.7195,
487.785,2224.3164,
484.874,2252.5612,
481.964,2266.0972,
479.053,2249.0347,
476.143,2202.1889,
473.232,2211.4799,
470.321,2218.6829,
467.411,2218.9707,
464.500,2212.2306,
461.590,2211.4649,
458.679,2263.528,
455.769,2310.0308,
452.858,2316.4207,
449.947,2298.8503,
447.037,2304.3514,
444.126,2319.1227,
441.216,2336.2343,
438.305,2347.6633,
435.395,2353.1838,
432.484,2379.4216,
429.573,2403.4874,
426.663,2361.6797,
423.752,2251.5449,
420.842,2107.5192,
417.931,1988.018,
415.020,1976.6426,
412.110,2224.9985,
409.199,2361.7267,
406.289,2412.2018,
403.378,2421.1117,
400.468,2380.288,
397.557,2408.8961,
394.646,2481.1102,
391.736,2569.1635,
388.825,2535.2231,
385.915,2515.6705,
383.004,2528.9513,
380.094,2582.7509,
377.183,2572.9687,
374.272,2581.1056,
371.362,2602.0231,
368.451,2629.3838,
365.541,2615.1236,
362.630,2638.0158,
359.719,2657.8823,
356.809,2651.8875,
353.898,2645.8971,
350.988,2679.5116,
348.077,2691.5351,
345.167,2648.969,
342.256,2663.1633,
339.345,2654.4956,
336.435,2640.4741,
333.524,2634.5653,
330.614,2676.294,
327.703,2702.5985,
324.793,2697.978,
321.882,2648.3329,
318.971,2682.5313,
316.061,2721.1073,
313.150,2749.019,
310.240,2748.2769,
307.329,2817.5698,
304.418,2822.9083,
301.508,2795.4623,
298.597,2792.5006,
295.687,2820.0169,
292.776,2871.1669,
289.866,2936.2382,
286.955,2993.12,
284.044,3020.8575,
281.134,3048.1724,
278.223,3078.0523,
275.313,3097.2105,
272.402,3093.6983,
269.492,3092.3691,
266.581,3105.9796,
263.670,3172.1458,
260.760,3204.832,
257.849,3236.497,
254.939,3291.5382,
252.028,3272.7062,
249.117,3267.991,
246.207,3283.1829,
243.296,3329.3012,
240.386,3364.9406,
237.475,3360.1197,
234.565,3327.0552,
231.654,3332.1679,
228.743,3332.0993,
225.833,3304.1142,
222.922,3242.4199,
220.012,3246.0626,
217.101,3264.4251,
214.191,3298.2049,
211.280,3351.3097,
208.369,3327.6647,
205.459,3350.1825,
202.548,3390.7123,
199.638,3312.3422,
196.727,3348.6856,
193.816,3395.0766,
190.906,3413.377,
187.995,3416.9971,
185.085,3422.5057,
182.174,3442.9207,
179.264,3500.742,
176.353,3551.4637,
173.442,3587.8519,
170.532,3601.6974,
167.621,3545.4614,
164.711,3446.6847,
161.800,3337.0887,
158.890,3237.0466,
155.979,3057.6485,
153.068,2816.6145,
150.158,2526.4823,
147.247,2216.3269,
144.337,1862.2963,
141.426,1475.1836,
138.516,1055.0853,
135.605,782.64777,
132.694,542.56255,
129.784,342.69651,
126.873,221.83957,
123.963,156.27695,
121.052,110.80225,
118.141,74.393248,
115.231,55.775171,
112.320,46.13182,
109.410,41.750092,
106.499,33.916385,
103.589,31.689746,
100.678,29.891891,
97.767,26.337204,
94.857,26.25,
91.946,22.218891,
89.036,16.81449,
86.125,20.360516,
83.215,15.940796,
80.304,12.447163,
77.393,15.988013,
74.483,16.905135,
71.572,15.438239,
68.662,12.319267,
65.751,13.025719,
62.840,13.731702,
59.930,12.377138,
57.019,5.3263182,
54.109,5.4443217,
51.198,7.4564371,
48.288,10.255662,
45.377,10.959041,
42.466,8.3644646,
39.556,3.9046443,
36.645,1.7980736,
33.735,9.038727,
30.824,12.715808,
27.914,1.4970045,
25.003,-0.37263748,
22.092,2.8019501,
19.182,10.41018,
16.271,15.306611,
13.361,58.97434,
10.450,111.20203,
7.539,81.872785,
4.629,-29.014995,
1.718,-191.17802,
-1.192,-404.50425,
-4.103,-332.0922,
-7.013,-185.96798,
-9.924,1.25,
