,PL5C1E~1,
Raman shift [1/cm],Intensity,
3014.167,2.5,
3011.256,-0.10012884,
3008.346,295.08953,
3005.435,339.65548,
3002.525,354.63255,
2999.614,374.69738,
2996.704,369.31443,
2993.793,377.86233,
2990.882,396.53812,
2987.972,400.60594,
2985.061,420.16995,
2982.151,435.23279,
2979.240,464.48576,
2976.329,468.7814,
2973.419,492.60757,
2970.508,504.2833,
2967.598,500.88233,
2964.687,500.38111,
2961.777,528.64568,
2958.866,536.15231,
2955.955,560.81194,
2953.045,556.10406,
2950.134,592.17057,
2947.224,591.61028,
2944.313,628.60114,
2941.403,651.83394,
2938.492,640.07453,
2935.581,654.17727,
2932.671,669.29394,
2929.760,664.16158,
2926.850,669.4406,
2923.939,679.77567,
2921.028,684.48225,
2918.118,726.15869,
2915.207,710.20247,
2912.297,708.49154,
2909.386,727.11313,
2906.476,710.73317,
2903.565,697.70963,
2900.654,714.40493,
2897.744,710.70116,
2894.833,717.428,
2891.923,708.5545,
2889.012,700.86416,
2886.102,703.27706,
2883.191,683.49811,
2880.280,678.75359,
2877.370,660.37214,
2874.459,664.61327,
2871.549,698.26345,
2868.638,737.50204,
2865.727,726.10386,
2862.817,728.05748,
2859.906,742.72792,
2856.996,745.99321,
2854.085,751.90127,
2851.175,759.99704,
2848.264,741.28917,
2845.353,723.6294,
2842.443,731.89582,
2839.532,732.39554,
2836.622,712.528,
2833.711,708.86265,
2830.801,701.11176,
2827.890,727.08039,
2824.979,721.48794,
2822.069,760.14746,
2819.158,726.83962,
2816.248,721.75289,
2813.337,746.9122,
2810.427,735.93388,
2807.516,748.44234,
2804.605,745.18749,
2801.695,743.17109,
2798.784,747.31315,
2795.874,741.51585,
2792.963,728.42862,
2790.052,736.4985,
2787.142,726.84192,
2784.231,725.95029,
2781.321,718.05998,
2778.410,713.57487,
2775.500,727.98793,
2772.589,738.26911,
2769.678,747.17572,
2766.768,757.8767,
2763.857,736.39788,
2760.947,759.48109,
2758.036,753.11144,
2755.126,777.26068,
2752.215,775.71358,
2749.304,774.9892,
2746.394,774.77015,
2743.483,797.64992,
2740.573,785.88484,
2737.662,761.9778,
2734.751,775.00985,
2731.841,796.04213,
2728.930,778.74174,
2726.020,763.51563,
2723.109,782.59267,
2720.199,787.22496,
2717.288,799.48176,
2714.377,794.05016,
2711.467,829.71319,
2708.556,818.15979,
2705.646,802.04927,
2702.735,810.67268,
2699.825,823.3473,
2696.914,837.78592,
2694.003,844.62845,
2691.093,839.69616,
2688.182,839.37333,
2685.272,842.89829,
2682.361,844.34716,
2679.450,840.91563,
2676.540,853.97157,
2673.629,831.81837,
2670.719,847.49261,
2667.808,827.76453,
2664.898,829.42218,
2661.987,848.43382,
2659.076,857.89871,
2656.166,858.7728,
2653.255,858.34525,
2650.345,867.87568,
2647.434,887.47199,
2644.524,900.77814,
2641.613,888.5,
2638.702,891.45266,
2635.792,897.21884,
2632.881,893.03577,
2629.971,874.79521,
2627.060,906.00031,
2624.149,899.36563,
2621.239,894.5,
2618.328,909.1609,
2615.418,913.11365,
2612.507,919.12457,
2609.597,916.67365,
2606.686,936.6044,
2603.775,918.57936,
2600.865,919.55803,
2597.954,932.97914,
2595.044,944.48229,
2592.133,952.16883,
2589.223,958.9579,
2586.312,963.11301,
2583.401,971.5839,
2580.491,953.77404,
2577.580,966.4835,
2574.670,962.31148,
2571.759,967.59076,
2568.848,963.61604,
2565.938,987.45245,
2563.027,984.08632,
2560.117,975.16351,
2557.206,982.48524,
2554.296,1015.0378,
2551.385,1002.2601,
2548.474,1003.648,
2545.564,998.53166,
2542.653,1009.2886,
2539.743,1017.6355,
2536.832,1026.1337,
2533.922,1022.4527,
2531.011,1023.8996,
2528.100,1036.5662,
2525.190,1014.5734,
2522.279,1023.7345,
2519.369,1029.1037,
2516.458,1041.063,
2513.548,1044.6455,
2510.637,1032.1148,
2507.726,1043.6859,
2504.816,1045.1246,
2501.905,1040.0652,
2498.995,1044.6347,
2496.084,1056.0609,
2493.173,1049.7897,
2490.263,1063.6797,
2487.352,1068.5417,
2484.442,1070.0696,
2481.531,1080.452,
2478.621,1114.6044,
2475.710,1101.27,
2472.799,1074.213,
2469.889,1104.3144,
2466.978,1113.7888,
2464.068,1146.807,
2461.157,1129.2651,
2458.247,1120.0295,
2455.336,1112.3747,
2452.425,1121.2217,
2449.515,1131.3586,
2446.604,1135.7373,
2443.694,1142.3841,
2440.783,1143.8322,
2437.872,1162.9011,
2434.962,1168.7719,
2432.051,1175.0065,
2429.141,1183.4002,
2426.230,1165.4127,
2423.320,1176.6997,
2420.409,1181.6924,
2417.498,1172.2949,
2414.588,1183.3098,
2411.677,1197.8546,
2408.767,1188.5945,
2405.856,1221.8809,
2402.946,1216.7556,
2400.035,1184.3263,
2397.124,1195.4198,
2394.214,1222.0684,
2391.303,1231.6436,
2388.393,1214.8372,
2385.482,1216.1475,
2382.571,1217.0941,
2379.661,1241.7791,
2376.750,1255.1797,
2373.840,1262.4407,
2370.929,1257.5325,
2368.019,1286.2125,
2365.108,1262.9634,
2362.197,1284.0836,
2359.287,1294.4833,
2356.376,1315.4665,
2353.466,1277.3494,
2350.555,1257.3897,
2347.645,1262.4854,
2344.734,1288.4724,
2341.823,1299.3839,
2338.913,1302.3418,
2336.002,1317.3541,
2333.092,1304.7302,
2330.181,1348.331,
2327.270,1355.1601,
2324.360,1335.0212,
2321.449,1334.5476,
2318.539,1348.9037,
2315.628,1338.223,
2312.718,1360.2313,
2309.807,1376.2951,
2306.896,1365.4374,
2303.986,1350.6364,
2301.075,1363.734,
2298.165,1360.5095,
2295.254,1390.8106,
2292.344,1361.9688,
2289.433,1379.8282,
2286.522,1385.1741,
2283.612,1417.722,
2280.701,1424.3072,
2277.791,1422.9408,
2274.880,1431.36,
2271.969,1425.0473,
2269.059,1446.4919,
2266.148,1450.5568,
2263.238,1469.8899,
2260.327,1459.5,
2257.417,1468.9889,
2254.506,1480.8902,
2251.595,1478.0489,
2248.685,1497.2365,
2245.774,1500.2033,
2242.864,1523.2307,
2239.953,1489.1345,
2237.043,1486.4482,
2234.132,1503.2662,
2231.221,1535.8179,
2228.311,1568.8556,
2225.400,1557.9503,
2222.490,1571.4576,
2219.579,1583.0142,
2216.669,1617.5238,
2213.758,1597.4974,
2210.847,1636.2506,
2207.937,1658.0521,
2205.026,1678.2773,
2202.116,1695.9087,
2199.205,1711.6871,
2196.294,1738.4839,
2193.384,1761.026,
2190.473,1773.0798,
2187.563,1784.9157,
2184.652,1870.5,
2181.742,1889.7069,
2178.831,1968.9165,
2175.920,2076.1995,
2173.010,2172.5289,
2170.099,2279.8899,
2167.189,2437.1386,
2164.278,2539.7332,
2161.368,2667.066,
2158.457,2820.4391,
2155.546,2944.2088,
2152.636,3087.0849,
2149.725,3233.0234,
2146.815,3283.4989,
2143.904,3357.8197,
2140.993,3422.0289,
2138.083,3472.1231,
2135.172,3466.4832,
2132.262,3445.9683,
2129.351,3406.824,
2126.441,3355.2086,
2123.530,3206.6256,
2120.619,3025.2622,
2117.709,2874.4541,
2114.798,2689.3302,
2111.888,2531.5036,
2108.977,2341.6059,
2106.067,2247.1649,
2103.156,2146.877,
2100.245,2074.4567,
2097.335,1998.7566,
2094.424,1946.8672,
2091.514,1907.3949,
2088.603,1849.1267,
2085.692,1843.5446,
2082.782,1808.2793,
2079.871,1785.4638,
2076.961,1773.2104,
2074.050,1807.4515,
2071.140,1805.6955,
2068.229,1803.6771,
2065.318,1805.6725,
2062.408,1796.053,
2059.497,1770.2559,
2056.587,1743.4421,
2053.676,1753.1991,
2050.766,1777.7294,
2047.855,1750.0159,
2044.944,1732.7019,
2042.034,1735.3209,
2039.123,1757.7795,
2036.213,1749.4044,
2033.302,1757.4563,
2030.391,1772.6524,
2027.481,1772.5244,
2024.570,1784.9854,
2021.660,1738.5747,
2018.749,1769.0699,
2015.839,1782.9619,
2012.928,1782.0285,
2010.017,1803.1612,
2007.107,1803.5411,
2004.196,1790.5358,
2001.286,1783.4965,
1998.375,1747.7992,
1995.465,1748.3661,
1992.554,1759.2646,
1989.643,1754.7074,
1986.733,1780.5035,
1983.822,1729.757,
1980.912,1750.3322,
1978.001,1767.2291,
1975.090,1761.8679,
1972.180,1744.5719,
1969.269,1748.1639,
1966.359,1745.6618,
1963.448,1733.8831,
1960.538,1759.8453,
1957.627,1746.7755,
1954.716,1754.2127,
1951.806,1706.1891,
1948.895,1743.3461,
1945.985,1770.5768,
1943.074,1748.0609,
1940.164,1749.8558,
1937.253,1733.7134,
1934.342,1719.5684,
1931.432,1731.541,
1928.521,1726.7073,
1925.611,1728.9869,
1922.700,1690.3453,
1919.790,1775.9613,
1916.879,1738.4757,
1913.968,1736.4975,
1911.058,1715.8123,
1908.147,1743.3189,
1905.237,1710.0956,
1902.326,1708.2807,
1899.415,1697.4841,
1896.505,1709.2893,
1893.594,1714.0518,
1890.684,1721.6371,
1887.773,1738.1897,
1884.863,1737.7756,
1881.952,1721.0627,
1879.041,1733.1687,
1876.131,1730.5418,
1873.220,1741.5753,
1870.310,1724.0068,
1867.399,1724.468,
1864.489,1750.1759,
1861.578,1716.7528,
1858.667,1707.2994,
1855.757,1700.6778,
1852.846,1721.2282,
1849.936,1728.7542,
1847.025,1775.8528,
1844.114,1766.4411,
1841.204,1758.7168,
1838.293,1784.4717,
1835.383,1793.3025,
1832.472,1775.8252,
1829.562,1824.0758,
1826.651,1872.5944,
1823.740,1850.6532,
1820.830,1816.3502,
1817.919,1797.2844,
1815.009,1803.9186,
1812.098,1830.6338,
1809.188,1818.4923,
1806.277,1829.2344,
1803.366,1867.8179,
1800.456,1830.7425,
1797.545,1883.181,
1794.635,1849.984,
1791.724,1851.7815,
1788.813,1887.9121,
1785.903,1917.2927,
1782.992,1896.4017,
1780.082,1910.0899,
1777.171,1893.4941,
1774.261,1875.1501,
1771.350,1907.6195,
1768.439,1938.137,
1765.529,1942.776,
1762.618,1959.635,
1759.708,1949.3695,
1756.797,1935.4318,
1753.887,1971.3746,
1750.976,2013.3449,
1748.065,2002.2957,
1745.155,1974.255,
1742.244,1990.9855,
1739.334,2014.7706,
1736.423,2036.457,
1733.512,2014.3942,
1730.602,2064.8374,
1727.691,2071.6821,
1724.781,2084.8047,
1721.870,2121.6907,
1718.960,2130.3222,
1716.049,2161.5421,
1713.138,2170.92,
1710.228,2160.1861,
1707.317,2178.8451,
1704.407,2206.6551,
1701.496,2245.0504,
1698.586,2216.1605,
1695.675,2253.7355,
1692.764,2301.9426,
1689.854,2283.4527,
1686.943,2297.9604,
1684.033,2259.4934,
1681.122,2383.342,
1678.211,2370.6428,
1675.301,2489.1331,
1672.390,2463.6555,
1669.480,2516.1498,
1666.569,2596.8682,
1663.659,2626.7249,
1660.748,2701.6762,
1657.837,2762.2217,
1654.927,2796.1869,
1652.016,2867.5935,
1649.106,2911.9162,
1646.195,2930.3462,
1643.285,3006.2292,
1640.374,3039.6324,
1637.463,3140.0585,
1634.553,3172.7462,
1631.642,3323.8464,
1628.732,3447.6851,
1625.821,3646.6289,
1622.911,3842.3899,
1620.000,4057.7661,
1617.089,4295.7239,
1614.179,4526.9292,
1611.268,4769.3914,
1608.358,4973.9013,
1605.447,5129.644,
1602.536,5142.2275,
1599.626,5213.3348,
1596.715,5257.6192,
1593.805,5199.7911,
1590.894,5163.4379,
1587.984,5169.027,
1585.073,5171.3508,
1582.162,5077.1579,
1579.252,5034.7693,
1576.341,4991.049,
1573.431,5026.9241,
1570.520,5020.3906,
1567.610,4945.9499,
1564.699,4929.0253,
1561.788,4827.9799,
1558.878,4710.7616,
1555.967,4675.1787,
1553.057,4616.4489,
1550.146,4514.0565,
1547.235,4351.2541,
1544.325,4246.4443,
1541.414,4196.5565,
1538.504,4151.5445,
1535.593,4100.4422,
1532.683,4037.3145,
1529.772,3973.2943,
1526.861,3902.544,
1523.951,3844.2367,
1521.040,3793.6309,
1518.130,3764.8476,
1515.219,3759.7419,
1512.309,3689.7838,
1509.398,3679.3593,
1506.487,3685.0353,
1503.577,3687.6828,
1500.666,3631.4634,
1497.756,3588.3725,
1494.845,3548.9391,
1491.934,3511.1976,
1489.024,3418.7983,
1486.113,3436.826,
1483.203,3415.4076,
1480.292,3368.3774,
1477.382,3316.8546,
1474.471,3345.6363,
1471.560,3276.2254,
1468.650,3231.1513,
1465.739,3222.5785,
1462.829,3208.37,
1459.918,3206.1299,
1457.008,3203.3768,
1454.097,3187.1812,
1451.186,3216.175,
1448.276,3235.0789,
1445.365,3205.0411,
1442.455,3262.9403,
1439.544,3222.8414,
1436.633,3159.8803,
1433.723,3222.2809,
1430.812,3149.0223,
1427.902,3129.9814,
1424.991,3108.1828,
1422.081,3067.131,
1419.170,3076.4609,
1416.259,3060.6786,
1413.349,3056.5,
1410.438,2992.8201,
1407.528,3024.0805,
1404.617,3055.9129,
1401.707,3052.8503,
1398.796,3053.8042,
1395.885,3082.7167,
1392.975,3133.7298,
1390.064,3156.2024,
1387.154,3122.0032,
1384.243,3044.2573,
1381.332,3020.7879,
1378.422,3119.7602,
1375.511,3279.9497,
1372.601,3279.7353,
1369.690,3444.9439,
1366.780,3483.5885,
1363.869,3558.4212,
1360.958,3640.298,
1358.048,3685.706,
1355.137,3737.9777,
1352.227,3814.7617,
1349.316,3887.7739,
1346.406,3972.523,
1343.495,4065.7596,
1340.584,4070.5348,
1337.674,4134.3592,
1334.763,4170.4167,
1331.853,4273.3393,
1328.942,4257.9318,
1326.032,4356.637,
1323.121,4432.8494,
1320.210,4533.4083,
1317.300,4588.6656,
1314.389,4665.8208,
1311.479,4733.8689,
1308.568,4775.7783,
1305.657,4858.2003,
1302.747,4929.5825,
1299.836,5047.8564,
1296.926,5162.4566,
1294.015,5269.0981,
1291.105,5425.8337,
1288.194,5564.714,
1285.283,5715.5045,
1282.373,5831.2107,
1279.462,5906.1856,
1276.552,5967.0907,
1273.641,6025.8968,
1270.731,6068.9687,
1267.820,6075.775,
1264.909,6043.2253,
1261.999,6048.3336,
1259.088,6043.773,
1256.178,5965.5625,
1253.267,5838.1879,
1250.356,5682.9488,
1247.446,5519.3024,
1244.535,5346.8797,
1241.625,5172.0076,
1238.714,5023.4479,
1235.804,4907.2041,
1232.893,4782.2535,
1229.982,4760.7045,
1227.072,4589.6005,
1224.161,4541.3583,
1221.251,4426.5462,
1218.340,4348.04,
1215.430,4279.8056,
1212.519,4196.3185,
1209.608,4165.3063,
1206.698,4211.266,
1203.787,4210.2286,
1200.877,4197.292,
1197.966,4274.6197,
1195.055,4364.6781,
1192.145,4454.6343,
1189.234,4554.1111,
1186.324,4674.6895,
1183.413,4715.4441,
1180.503,4689.9196,
1177.592,4684.2874,
1174.681,4611.798,
1171.771,4571.7376,
1168.860,4538.6933,
1165.950,4458.9025,
1163.039,4363.6757,
1160.129,4354.6841,
1157.218,4325.8301,
1154.307,4277.2421,
1151.397,4262.0772,
1148.486,4213.1023,
1145.576,4194.7586,
1142.665,4085.5454,
1139.754,4113.1133,
1136.844,4070.3779,
1133.933,4023.2802,
1131.023,3985.672,
1128.112,3962.0716,
1125.202,3949.5967,
1122.291,3925.5189,
1119.380,3974.6732,
1116.470,3992.3238,
1113.559,4004.5522,
1110.649,4011.4291,
1107.738,4025.288,
1104.828,4008.4535,
1101.917,3973.4587,
1099.006,3977.6959,
1096.096,3967.3489,
1093.185,4013.8831,
1090.275,3968.1345,
1087.364,3962.6751,
1084.453,3946.9387,
1081.543,3954.8493,
1078.632,3974.0982,
1075.722,3946.3537,
1072.811,3916.3687,
1069.901,3928.5944,
1066.990,3987.6999,
1064.079,4031.4426,
1061.169,4081.9519,
1058.258,4125.0515,
1055.348,4154.3765,
1052.437,4188.6994,
1049.527,4231.1378,
1046.616,4247.6455,
1043.705,4254.1246,
1040.795,4298.2798,
1037.884,4320.477,
1034.974,4334.5142,
1032.063,4356.7309,
1029.153,4343.5772,
1026.242,4360.8764,
1023.331,4360.6667,
1020.421,4400.9319,
1017.510,4435.3083,
1014.600,4487.4096,
1011.689,4561.3101,
1008.778,4618.9246,
1005.868,4652.5464,
1002.957,4880.5403,
1000.047,5008.684,
997.136,5155.0919,
994.226,5261.6073,
991.315,5291.0198,
988.404,5252.8834,
985.494,5118.6779,
982.583,5037.3051,
979.673,5034.2798,
976.762,5022.8224,
973.852,5012.058,
970.941,5029.2828,
968.030,5061.2802,
965.120,5003.6217,
962.209,5032.6082,
959.299,5027.5845,
956.388,5029.0996,
953.477,5033.911,
950.567,5029.7944,
947.656,5023.2961,
944.746,5075.119,
941.835,5066.9724,
938.925,5072.3966,
936.014,5061.831,
933.103,5055.6212,
930.193,5054.7192,
927.282,4987.1463,
924.372,4906.8136,
921.461,4869.2532,
918.551,4804.3113,
915.640,4730.0796,
912.729,4674.3759,
909.819,4649.6112,
906.908,4650.4536,
903.998,4626.6391,
901.087,4652.9618,
898.176,4699.1773,
895.266,4751.7179,
892.355,4817.876,
889.445,4916.0703,
886.534,4925.6836,
883.624,4983.3451,
880.713,5042.6524,
877.802,5055.783,
874.892,5020.11,
871.981,5008.849,
869.071,4981.2804,
866.160,4966.1506,
863.250,4950.4917,
860.339,4945.8696,
857.428,4954.7348,
854.518,4949.3335,
851.607,4874.4473,
848.697,4819.5432,
845.786,4799.981,
842.875,4818.3756,
839.965,4836.9753,
837.054,4762.3094,
834.144,4834.4109,
831.233,4813.8358,
828.323,4791.0597,
825.412,4762.9626,
822.501,4713.4148,
819.591,4701.8453,
816.680,4637.3973,
813.770,4593.3074,
810.859,4553.0355,
807.949,4511.2707,
805.038,4477.8938,
802.127,4489.4176,
799.217,4445.7765,
796.306,4439.0136,
793.396,4419.4158,
790.485,4379.9741,
787.574,4387.991,
784.664,4453.6,
781.753,4422.557,
778.843,4420.1231,
775.932,4445.6727,
773.022,4460.768,
770.111,4468.9438,
767.200,4505.2817,
764.290,4459.2901,
761.379,4442.7075,
758.469,4471.2459,
755.558,4431.4302,
752.648,4395.5877,
749.737,4351.9438,
746.826,4329.2365,
743.916,4289.48,
741.005,4174.6742,
738.095,3981.4475,
735.184,3752.5628,
732.274,3683.6474,
729.363,3816.543,
726.452,4082.3967,
723.542,4231.325,
720.631,4275.4333,
717.721,4340.9203,
714.810,4380.7386,
711.899,4371.4109,
708.989,4336.7131,
706.078,4327.6857,
703.168,4298.1751,
700.257,4263.9971,
697.347,4235.9353,
694.436,4220.1765,
691.525,4245.0944,
688.615,4213.3942,
685.704,4210.4945,
682.794,4234.3298,
679.883,4231.0046,
676.973,4242.2238,
674.062,4231.1003,
671.151,4228.76,
668.241,4235.2618,
665.330,4232.6848,
662.420,4194.3457,
659.509,4212.5322,
656.598,4238.7515,
653.688,4248.209,
650.777,4231.0941,
647.867,4248.6133,
644.956,4217.8276,
642.046,4198.1584,
639.135,4210.3516,
636.224,4247.8302,
633.314,4313.7271,
630.403,4297.9834,
627.493,4307.3782,
624.582,4353.556,
621.672,4331.3802,
618.761,4386.7355,
615.850,4401.1941,
612.940,4421.0413,
610.029,4467.262,
607.119,4483.8442,
604.208,4492.6001,
601.297,4481.5415,
598.387,4465.7802,
595.476,4456.5233,
592.566,4403.7897,
589.655,4428.1903,
586.745,4423.0657,
583.834,4381.5208,
580.923,4342.7132,
578.013,4378.0263,
575.102,4408.1492,
572.192,4405.2785,
569.281,4384.0292,
566.371,4448.2043,
563.460,4474.9586,
560.549,4477.1654,
557.639,4474.2599,
554.728,4488.6388,
551.818,4554.1853,
548.907,4543.5141,
545.996,4540.7188,
543.086,4565.5263,
540.175,4584.2138,
537.265,4621.714,
534.354,4658.5778,
531.444,4696.8262,
528.533,4739.9765,
525.622,4788.8612,
522.712,4826.1971,
519.801,4897.727,
516.891,4988.1606,
513.980,5001.3236,
511.070,5058.1434,
508.159,5131.1669,
505.248,5219.7997,
502.338,5324.714,
499.427,5400.3536,
496.517,5457.8333,
493.606,5488.519,
490.695,5500.8448,
487.785,5560.8885,
484.874,5550.4671,
481.964,5528.7028,
479.053,5509.8228,
476.143,5494.4636,
473.232,5465.4433,
470.321,5475.9094,
467.411,5493.6881,
464.500,5478.5885,
461.590,5442.5987,
458.679,5456.713,
455.769,5465.7878,
452.858,5448.3856,
449.947,5504.9165,
447.037,5524.9946,
444.126,5552.3121,
441.216,5591.0875,
438.305,5600.2306,
435.395,5594.9436,
432.484,5612.3376,
429.573,5648.6001,
426.663,5679.0057,
423.752,5667.5516,
420.842,5671.0904,
417.931,5687.8867,
415.020,5706.8457,
412.110,5779.1981,
409.199,5850.4877,
406.289,5888.1528,
403.378,5859.6076,
400.468,5891.3593,
397.557,5886.5897,
394.646,5883.2738,
391.736,5910.6167,
388.825,5851.7867,
385.915,5824.3883,
383.004,5848.9086,
380.094,5936.6076,
377.183,6017.1226,
374.272,6123.631,
371.362,6214.8086,
368.451,6265.5972,
365.541,6300.1218,
362.630,6341.7282,
359.719,6376.1952,
356.809,6395.4515,
353.898,6411.1763,
350.988,6356.3689,
348.077,6336.4121,
345.167,6410.7488,
342.256,6435.402,
339.345,6433.4656,
336.435,6434.9381,
333.524,6458.2551,
330.614,6418.7619,
327.703,6453.2199,
324.793,6513.4831,
321.882,6559.5018,
318.971,6560.2452,
316.061,6584.4274,
313.150,6644.1428,
310.240,6755.4602,
307.329,6793.8026,
304.418,6845.8001,
301.508,6884.6077,
298.597,6858.6931,
295.687,6900.5206,
292.776,6980.2503,
289.866,7118.0815,
286.955,7381.8065,
284.044,7671.8672,
281.134,7888.4844,
278.223,8048.2412,
275.313,8326.7725,
272.402,8487.739,
269.492,8628.3559,
266.581,8787.1616,
263.670,8992.2769,
260.760,9134.0366,
257.849,9227.7205,
254.939,9279.8262,
252.028,9347.0937,
249.117,9406.7621,
246.207,9470.4187,
243.296,9558.9952,
240.386,9483.6111,
237.475,9376.6459,
234.565,9256.6788,
231.654,9124.4794,
228.743,9042.9908,
225.833,8935.2032,
222.922,8775.695,
220.012,8694.0968,
217.101,8579.1712,
214.191,8480.2875,
211.280,8456.2812,
208.369,8395.2924,
205.459,8386.4625,
202.548,8415.3719,
199.638,8408.841,
196.727,8424.7865,
193.816,8438.4031,
190.906,8439.8905,
187.995,8422.5139,
185.085,8433.05,
182.174,8466.3871,
179.264,8521.3174,
176.353,8567.2283,
173.442,8596.7512,
170.532,8603.6195,
167.621,8553.1512,
164.711,8392.341,
161.800,8174.2197,
158.890,7924.4742,
155.979,7453.7431,
153.068,6880.8684,
150.158,6208.8398,
147.247,5399.7076,
144.337,4475.0515,
141.426,3522.7877,
138.516,2579.3588,
135.605,1882.5038,
132.694,1302.4055,
129.784,842.19463,
126.873,553.28217,
123.963,376.13341,
121.052,260.1541,
118.141,193.76122,
115.231,152.99749,
112.320,118.28366,
109.410,91.591026,
106.499,81.620853,
103.589,77.258982,
100.678,70.882431,
97.767,58.796492,
94.857,59.885978,
91.946,53.244004,
89.036,43.403183,
86.125,49.076825,
83.215,45.190796,
80.304,39.063404,
77.393,34.814384,
74.483,39.74108,
71.572,38.514127,
68.662,30.807325,
65.751,23.742814,
62.840,25.353616,
59.930,29.125428,
57.019,27.715264,
54.109,20.931231,
51.198,17.103219,
48.288,18.556624,
45.377,25.590405,
42.466,27.263342,
39.556,24.69417,
36.645,19.778838,
33.735,19.019248,
30.824,21.267096,
27.914,26.876498,
25.003,29.99055,
22.092,29.562573,
19.182,25.843243,
16.271,36.335595,
13.361,130.27055,
10.450,307.58539,
7.539,621.82731,
4.629,707.11427,
1.718,590.76244,
-1.192,200.3615,
-4.103,72.110636,
-7.013,14.203463,
-9.924,-2.5,
