,PLD74F~1,
Wavenumbers [1/cm],Intensity,
3014.167,-4.875,
3011.256,2.2749248,
3008.346,82.542787,
3005.435,88.81758,
3002.525,94.880034,
2999.614,106.46135,
2996.704,104.53222,
2993.793,88.611176,
2990.882,103.64406,
2987.972,105.13509,
2985.061,103.5782,
2982.151,105.28971,
2979.240,111.39116,
2976.329,125.39548,
2973.419,125.9404,
2970.508,134.99161,
2967.598,125.50733,
2964.687,130.73709,
2961.777,132.65496,
2958.866,128.12203,
2955.955,119.22457,
2953.045,131.69325,
2950.134,157.67897,
2947.224,145.036,
2944.313,161.74323,
2941.403,150.20848,
2938.492,155.25236,
2935.581,148.82929,
2932.671,155.2495,
2929.760,163.15575,
2926.850,163.39342,
2923.939,156.04556,
2921.028,165.68394,
2918.118,159.00662,
2915.207,175.65669,
2912.297,169.16308,
2909.386,153.71624,
2906.476,174.31036,
2903.565,172.07685,
2900.654,171.18364,
2897.744,159.52731,
2894.833,163.90901,
2891.923,148.64111,
2889.012,169.96315,
2886.102,163.1858,
2883.191,153.1401,
2880.280,116.86183,
2877.370,83.84595,
2874.459,18.647112,
2871.549,76.428142,
2868.638,129.12704,
2865.727,154.52114,
2862.817,156.93917,
2859.906,170.15064,
2856.996,176.13406,
2854.085,170.60399,
2851.175,185.81477,
2848.264,194.32616,
2845.353,202.1897,
2842.443,190.35076,
2839.532,184.42341,
2836.622,177.97331,
2833.711,176.5991,
2830.801,192.31177,
2827.890,184.125,
2824.979,183.483,
2822.069,185.34107,
2819.158,198.42419,
2816.248,189.125,
2813.337,202.9189,
2810.427,197.17597,
2807.516,194.22562,
2804.605,206.10336,
2801.695,202.69079,
2798.784,201.27285,
2795.874,191.83476,
2792.963,203.83947,
2790.052,200.12672,
2787.142,196.34865,
2784.231,200.22126,
2781.321,204.8107,
2778.410,201.7849,
2775.500,203.35914,
2772.589,184.78019,
2769.678,211.62326,
2766.768,205.32692,
2763.857,198.65294,
2760.947,208.60294,
2758.036,211.05497,
2755.126,211.83654,
2752.215,214.33858,
2749.304,224.08182,
2746.394,214.33669,
2743.483,216.77499,
2740.573,200.38156,
2737.662,206.47559,
2734.751,209.19309,
2731.841,207.47665,
2728.930,219.40901,
2726.020,214.24769,
2723.109,205.39334,
2720.199,214.84996,
2717.288,216.77463,
2714.377,213.125,
2711.467,226.38763,
2708.556,227.80542,
2705.646,225.37847,
2702.735,221.45489,
2699.825,231.8196,
2696.914,237.21999,
2694.003,231.43719,
2691.093,233.73152,
2688.182,233.16278,
2685.272,240.13354,
2682.361,222.24836,
2679.450,243.57351,
2676.540,227.06403,
2673.629,223.79316,
2670.719,233.40227,
2667.808,244.83319,
2664.898,249.74854,
2661.987,244.65842,
2659.076,245.50647,
2656.166,233.96477,
2653.255,253.8631,
2650.345,247.7965,
2647.434,238.83978,
2644.524,255.19454,
2641.613,259.66806,
2638.702,247.3775,
2635.792,248.09608,
2632.881,242.2498,
2629.971,258.9774,
2627.060,254.29281,
2624.149,251.09687,
2621.239,258.87648,
2618.328,256.63365,
2615.418,270.77955,
2612.507,261.85233,
2609.597,265.83957,
2606.686,262.95632,
2603.775,256.20436,
2600.865,257.18303,
2597.954,258.4604,
2595.044,269.75034,
2592.133,279.125,
2589.223,274.6671,
2586.312,261.66267,
2583.401,267.32937,
2580.491,276.74035,
2577.580,270.11675,
2574.670,270.93648,
2571.759,269.05909,
2568.848,286.40693,
2565.938,271.50593,
2563.027,277.32044,
2560.117,279.85397,
2557.206,279.125,
2554.296,291.4385,
2551.385,289.00101,
2548.474,281.68039,
2545.564,295.5552,
2542.653,290.04111,
2539.743,281.14965,
2536.832,285.16612,
2533.922,297.17231,
2531.011,301.22491,
2528.100,292.39674,
2525.190,298.72705,
2522.279,304.31259,
2519.369,298.76708,
2516.458,281.57259,
2513.548,296.45211,
2510.637,294.61686,
2507.726,300.87593,
2504.816,301.50042,
2501.905,299.25549,
2498.995,310.64725,
2496.084,303.125,
2493.173,310.30944,
2490.263,308.94533,
2487.352,301.16673,
2484.442,310.66887,
2481.531,326.8591,
2478.621,337.48051,
2475.710,293.33203,
2472.799,324.31778,
2469.889,340.51836,
2466.978,333.30036,
2464.068,331.04035,
2461.157,328.125,
2458.247,336.22803,
2455.336,324.70227,
2452.425,320.25708,
2449.515,352.51169,
2446.604,348.47753,
2443.694,337.49668,
2440.783,342.07996,
2437.872,350.86975,
2434.962,342.02362,
2432.051,342.95229,
2429.141,356.5308,
2426.230,343.23325,
2423.320,357.45391,
2420.409,349.55436,
2417.498,361.32163,
2414.588,353.95013,
2411.677,363.94571,
2408.767,356.34252,
2405.856,345.31073,
2402.946,366.76843,
2400.035,341.26347,
2397.124,368.79879,
2394.214,365.04181,
2391.303,354.16362,
2388.393,350.67381,
2385.482,348.08094,
2382.571,328.58017,
2379.661,349.47378,
2376.750,362.07077,
2373.840,374.18434,
2370.929,379.09251,
2368.019,367.78693,
2365.108,380.75327,
2362.197,381.9031,
2359.287,367.56176,
2356.376,387.08273,
2353.466,391.41447,
2350.555,369.31004,
2347.645,382.96604,
2344.734,418.70571,
2341.823,394.65566,
2338.913,418.84286,
2336.002,395.13687,
2333.092,398.608,
2330.181,404.72342,
2327.270,398.78506,
2324.360,404.20046,
2321.449,403.69301,
2318.539,395.27486,
2315.628,411.19175,
2312.718,404.52588,
2309.807,398.90115,
2306.896,422.36913,
2303.986,414.90417,
2301.075,414.91221,
2298.165,403.16316,
2295.254,433.37099,
2292.344,416.91757,
2289.433,409.49182,
2286.522,427.87938,
2283.612,434.36479,
2280.701,434.85594,
2277.791,424.16882,
2274.880,465.42115,
2271.969,435.19084,
2269.059,433.24217,
2266.148,441.42049,
2263.238,445.02461,
2260.327,455.74577,
2257.417,466.26,
2254.506,472.31588,
2251.595,472.83772,
2248.685,478.54421,
2245.774,467.50983,
2242.864,457.02277,
2239.953,449.54553,
2237.043,467.9943,
2234.132,449.92241,
2231.221,475.83832,
2228.311,483.64562,
2225.400,480.49089,
2222.490,489.04022,
2219.579,473.17642,
2216.669,480.60831,
2213.758,489.9956,
2210.847,500.3794,
2207.937,506.92141,
2205.026,516.90314,
2202.116,504.76513,
2199.205,506.37441,
2196.294,504.63704,
2193.384,497.67751,
2190.473,509.42078,
2187.563,529.13467,
2184.652,532.78173,
2181.742,545.07991,
2178.831,552.125,
2175.920,563.19969,
2173.010,571.125,
2170.099,597.9886,
2167.189,613.29721,
2164.278,638.0054,
2161.368,651.98107,
2158.457,679.20852,
2155.546,710.79043,
2152.636,749.63558,
2149.725,774.76928,
2146.815,800.35751,
2143.904,806.52277,
2140.993,806.94503,
2138.083,842.90303,
2135.172,856.25935,
2132.262,848.26144,
2129.351,858.41124,
2126.441,837.15406,
2123.530,811.10255,
2120.619,804.17108,
2117.709,765.47806,
2114.798,728.97483,
2111.888,696.92536,
2108.977,672.59519,
2106.067,660.84987,
2103.156,624.9316,
2100.245,612.12625,
2097.335,611.59621,
2094.424,591.2102,
2091.514,581.5497,
2088.603,567.53056,
2085.692,562.08037,
2082.782,574.02052,
2079.871,578.125,
2076.961,598.70429,
2074.050,582.07652,
2071.140,577.42414,
2068.229,564.11197,
2065.318,577.063,
2062.408,579.01909,
2059.497,569.29164,
2056.587,566.63649,
2053.676,571.75823,
2050.766,561.97179,
2047.855,572.55219,
2044.944,587.65705,
2042.034,583.77808,
2039.123,569.30682,
2036.213,580.49164,
2033.302,581.36399,
2030.391,585.90475,
2027.481,598.25901,
2024.570,592.16815,
2021.660,610.82416,
2018.749,602.31495,
2015.839,607.66306,
2012.928,610.4354,
2010.017,605.52782,
2007.107,601.38108,
2004.196,598.51784,
2001.286,617.69033,
1998.375,609.46554,
1995.465,584.17947,
1992.554,599.40719,
1989.643,588.60889,
1986.733,597.58991,
1983.822,590.80521,
1980.912,608.94693,
1978.001,610.73538,
1975.090,611.48532,
1972.180,623.2633,
1969.269,615.16234,
1966.359,604.34112,
1963.448,602.31655,
1960.538,638.01992,
1957.627,632.75038,
1954.716,602.95808,
1951.806,629.02564,
1948.895,619.60082,
1945.985,575.68219,
1943.074,604.28368,
1940.164,601.76922,
1937.253,606.72053,
1934.342,605.55228,
1931.432,590.19755,
1928.521,610.45143,
1925.611,585.20333,
1922.700,592.28522,
1919.790,609.32141,
1916.879,599.96199,
1913.968,646.06721,
1911.058,648.15201,
1908.147,609.31335,
1905.237,623.37496,
1902.326,599.02573,
1899.415,598.92377,
1896.505,604.05297,
1893.594,636.76219,
1890.684,634.60866,
1887.773,651.45215,
1884.863,662.84937,
1881.952,640.50271,
1879.041,607.6738,
1876.131,626.9995,
1873.220,620.04973,
1870.310,654.32673,
1867.399,633.50885,
1864.489,632.0207,
1861.578,652.25701,
1858.667,633.83159,
1855.757,638.3028,
1852.846,656.08912,
1849.936,635.125,
1847.025,652.05928,
1844.114,683.125,
1841.204,660.12151,
1838.293,640.61086,
1835.383,665.51998,
1832.472,676.75283,
1829.562,661.71015,
1826.651,678.05721,
1823.740,661.46211,
1820.830,688.1647,
1817.919,654.33429,
1815.009,654.39981,
1812.098,682.15648,
1809.188,671.99325,
1806.277,665.25779,
1803.366,673.34127,
1800.456,686.67457,
1797.545,695.57184,
1794.635,692.96304,
1791.724,707.5037,
1788.813,692.73606,
1785.903,718.91769,
1782.992,680.8582,
1780.082,662.77802,
1777.171,683.7872,
1774.261,666.75999,
1771.350,695.41051,
1768.439,729.48521,
1765.529,724.67225,
1762.618,723.56373,
1759.708,717.27725,
1756.797,737.57197,
1753.887,748.56086,
1750.976,733.38351,
1748.065,770.43682,
1745.155,747.75117,
1742.244,738.65123,
1739.334,747.75559,
1736.423,761.96236,
1733.512,746.29567,
1730.602,772.53378,
1727.691,789.49862,
1724.781,773.82032,
1721.870,777.97743,
1718.960,742.30232,
1716.049,783.62451,
1713.138,797.39998,
1710.228,777.23787,
1707.317,814.81528,
1704.407,776.10354,
1701.496,805.76382,
1698.586,820.21281,
1695.675,828.61067,
1692.764,836.69877,
1689.854,855.30218,
1686.943,826.17049,
1684.033,829.02566,
1681.122,851.73417,
1678.211,872.92514,
1675.301,864.15275,
1672.390,950.99341,
1669.480,907.25335,
1666.569,923.56936,
1663.659,957.09606,
1660.748,896.35903,
1657.837,959.14687,
1654.927,960.35929,
1652.016,970.0035,
1649.106,965.59014,
1646.195,985.13201,
1643.285,1025.7148,
1640.374,1009.0449,
1637.463,1052.8456,
1634.553,1092.0807,
1631.642,1089.4073,
1628.732,1115.5279,
1625.821,1183.1394,
1622.911,1205.001,
1620.000,1272.2683,
1617.089,1340.7519,
1614.179,1385.856,
1611.268,1443.9315,
1608.358,1543.349,
1605.447,1552.8393,
1602.536,1623.0165,
1599.626,1595.9273,
1596.715,1613.0922,
1593.805,1548.0501,
1590.894,1584.1585,
1587.984,1571.071,
1585.073,1563.8709,
1582.162,1560.6203,
1579.252,1523.3014,
1576.341,1498.3027,
1573.431,1479.2447,
1570.520,1475.125,
1567.610,1479.5957,
1564.699,1480.4,
1561.788,1431.5339,
1558.878,1438.4355,
1555.967,1437.251,
1553.057,1402.0563,
1550.146,1389.8123,
1547.235,1398.0283,
1544.325,1377.2416,
1541.414,1353.8045,
1538.504,1328.5453,
1535.593,1287.1877,
1532.683,1274.3129,
1529.772,1274.3439,
1526.861,1247.6528,
1523.951,1264.1607,
1521.040,1304.6262,
1518.130,1252.9225,
1515.219,1229.4441,
1512.309,1249.9763,
1509.398,1214.836,
1506.487,1207.5897,
1503.577,1200.8275,
1500.666,1221.6334,
1497.756,1176.38,
1494.845,1249.4435,
1491.934,1185.1911,
1489.024,1205.4035,
1486.113,1218.1788,
1483.203,1187.151,
1480.292,1168.7003,
1477.382,1170.9745,
1474.471,1159.8469,
1471.560,1176.4437,
1468.650,1167.0432,
1465.739,1131.5839,
1462.829,1138.8041,
1459.918,1164.6223,
1457.008,1164.4941,
1454.097,1151.5034,
1451.186,1127.4113,
1448.276,1118.4666,
1445.365,1139.4449,
1442.455,1132.0578,
1439.544,1161.3493,
1436.633,1161.9502,
1433.723,1163.119,
1430.812,1174.8346,
1427.902,1146.5985,
1424.991,1166.5016,
1422.081,1136.8483,
1419.170,1135.8531,
1416.259,1106.1527,
1413.349,1110.4536,
1410.438,1154.7122,
1407.528,1157.9627,
1404.617,1141.9052,
1401.707,1151.4933,
1398.796,1167.0131,
1395.885,1159.617,
1392.975,1149.3126,
1390.064,1153.0648,
1387.154,1135.5073,
1384.243,1101.1953,
1381.332,1139.109,
1378.422,1171.8013,
1375.511,1184.9162,
1372.601,1202.6348,
1369.690,1212.6972,
1366.780,1213.333,
1363.869,1260.346,
1360.958,1274.8239,
1358.048,1315.2501,
1355.137,1348.3305,
1352.227,1350.2949,
1349.316,1388.1744,
1346.406,1438.6718,
1343.495,1417.855,
1340.584,1437.6248,
1337.674,1451.4834,
1334.763,1470.7721,
1331.853,1461.4998,
1328.942,1477.1354,
1326.032,1482.3875,
1323.121,1546.8479,
1320.210,1568.4591,
1317.300,1544.5157,
1314.389,1538.9169,
1311.479,1571.4064,
1308.568,1630.2971,
1305.657,1688.9013,
1302.747,1709.4148,
1299.836,1745.1963,
1296.926,1767.1677,
1294.015,1768.0871,
1291.105,1770.7666,
1288.194,1862.9804,
1285.283,1873.2369,
1282.373,1930.7732,
1279.462,1953.9488,
1276.552,1986.3299,
1273.641,2030.8105,
1270.731,2033.8862,
1267.820,2059.8399,
1264.909,2053.7846,
1261.999,2072.1597,
1259.088,2045.7081,
1256.178,1997.0199,
1253.267,1936.9557,
1250.356,1889.2941,
1247.446,1872.3648,
1244.535,1848.826,
1241.625,1827.3361,
1238.714,1809.8206,
1235.804,1759.4794,
1232.893,1728.5056,
1229.982,1701.3158,
1227.072,1647.9024,
1224.161,1634.8795,
1221.251,1610.7897,
1218.340,1597.9425,
1215.430,1585.2154,
1212.519,1564.4477,
1209.608,1559.0475,
1206.698,1568.6993,
1203.787,1544.4366,
1200.877,1545.1777,
1197.966,1529.892,
1195.055,1579.4667,
1192.145,1612.9193,
1189.234,1639.2912,
1186.324,1672.0363,
1183.413,1709.6732,
1180.503,1714.5759,
1177.592,1683.4685,
1174.681,1691.3682,
1171.771,1624.9698,
1168.860,1661.5865,
1165.950,1595.7841,
1163.039,1613.3467,
1160.129,1627.5351,
1157.218,1612.7029,
1154.307,1595.6409,
1151.397,1597.0352,
1148.486,1609.0241,
1145.576,1612.8915,
1142.665,1584.4783,
1139.754,1592.7022,
1136.844,1594.4247,
1133.933,1587.0869,
1131.023,1584.0134,
1128.112,1611.1214,
1125.202,1648.154,
1122.291,1624.3784,
1119.380,1633.3069,
1116.470,1651.84,
1113.559,1662.6307,
1110.649,1654.6475,
1107.738,1656.6265,
1104.828,1653.1386,
1101.917,1640.3085,
1099.006,1636.6406,
1096.096,1606.8238,
1093.185,1618.2378,
1090.275,1628.027,
1087.364,1645.2197,
1084.453,1633.0012,
1081.543,1644.4183,
1078.632,1673.1107,
1075.722,1656.6712,
1072.811,1637.2204,
1069.901,1694.8557,
1066.990,1692.6583,
1064.079,1704.7353,
1061.169,1712.2296,
1058.258,1694.4916,
1055.348,1684.1169,
1052.437,1722.2568,
1049.527,1732.8229,
1046.616,1725.0034,
1043.705,1733.3742,
1040.795,1721.4394,
1037.884,1705.0332,
1034.974,1708.2977,
1032.063,1723.0713,
1029.153,1714.6949,
1026.242,1752.753,
1023.331,1756.6248,
1020.421,1757.8221,
1017.510,1771.5716,
1014.600,1818.9199,
1011.689,1855.1566,
1008.778,1825.1098,
1005.868,1853.9628,
1002.957,1835.8954,
1000.047,1914.661,
997.136,1967.4434,
994.226,1985.8019,
991.315,1984.8626,
988.404,1964.7487,
985.494,1911.125,
982.583,1911.125,
979.673,1929.4162,
976.762,1921.4474,
973.852,1921.2912,
970.941,1930.5684,
968.030,1921.5238,
965.120,1918.2503,
962.209,1948.0893,
959.299,1975.0807,
956.388,1946.0474,
953.477,1940.3756,
950.567,1976.955,
947.656,1980.5653,
944.746,1968.6715,
941.835,2018.3334,
938.925,2015.6479,
936.014,1985.3628,
933.103,1953.2384,
930.193,1937.1226,
927.282,1944.1626,
924.372,1926.4049,
921.461,1896.1418,
918.551,1858.8211,
915.640,1844.2243,
912.729,1851.125,
909.819,1847.2328,
906.908,1817.748,
903.998,1797.0363,
901.087,1828.4059,
898.176,1857.7145,
895.266,1874.1078,
892.355,1893.2086,
889.445,1915.0295,
886.534,1911.7855,
883.624,1917.1805,
880.713,1914.0007,
877.802,1908.4724,
874.892,1895.888,
871.981,1837.2631,
869.071,1843.111,
866.160,1789.6182,
863.250,1827.5051,
860.339,1901.6657,
857.428,1934.8468,
854.518,1939.79,
851.607,1859.0793,
848.697,1887.7697,
845.786,1857.8232,
842.875,1861.7609,
839.965,1944.4257,
837.054,1900.3018,
834.144,1916.0481,
831.233,1951.1227,
828.323,1969.5979,
825.412,1980.496,
822.501,1990.827,
819.591,1950.3334,
816.680,1959.5417,
813.770,1956.4865,
810.859,1953.125,
807.949,1936.3127,
805.038,1896.1073,
802.127,1929.0324,
799.217,1879.2022,
796.306,1848.0708,
793.396,1849.8045,
790.485,1868.7567,
787.574,1871.1561,
784.664,1871.9762,
781.753,1866.7571,
778.843,1886.1787,
775.932,1907.8905,
773.022,1907.661,
770.111,1924.0125,
767.200,1904.5696,
764.290,1892.3462,
761.379,1906.2429,
758.469,1924.2895,
755.558,1887.2466,
752.648,1891.3196,
749.737,1877.1108,
746.826,1877.0508,
743.916,1884.4497,
741.005,1877.649,
738.095,1855.7283,
735.184,1815.2268,
732.274,1766.9935,
729.363,1752.5916,
726.452,1793.6498,
723.542,1851.9261,
720.631,1841.3633,
717.721,1846.2905,
714.810,1861.8806,
711.899,1881.5805,
708.989,1904.9813,
706.078,1908.3302,
703.168,1883.0145,
700.257,1874.789,
697.347,1883.6471,
694.436,1871.365,
691.525,1880.2069,
688.615,1876.4648,
685.704,1863.6277,
682.794,1854.6356,
679.883,1867.3865,
676.973,1895.4345,
674.062,1900.4869,
671.151,1900.5633,
668.241,1906.1282,
665.330,1921.6334,
662.420,1911.2499,
659.509,1945.3161,
656.598,1955.3063,
653.688,1939.0546,
650.777,1931.5579,
647.867,1914.8351,
644.956,1871.4994,
642.046,1864.1235,
639.135,1890.2211,
636.224,1898.1767,
633.314,1908.4979,
630.403,1917.0371,
627.493,1922.2772,
624.582,1927.6564,
621.672,1943.4963,
618.761,1934.2458,
615.850,1925.6151,
612.940,1943.6663,
610.029,1984.363,
607.119,1967.7808,
604.208,1964.705,
601.297,1952.1606,
598.387,1953.5967,
595.476,1984.8966,
592.566,1961.2846,
589.655,1952.5898,
586.745,1945.3513,
583.834,1947.6888,
580.923,1978.3051,
578.013,2008.125,
575.102,1977.121,
572.192,1949.1969,
569.281,1959.4204,
566.371,2005.5952,
563.460,2015.7687,
560.549,2005.943,
557.639,1991.5136,
554.728,1987.6177,
551.818,1995.4209,
548.907,1980.0614,
545.996,1978.4559,
543.086,2000.8421,
540.175,2036.6598,
537.265,1971.0427,
534.354,1977.2332,
531.444,2020.2713,
528.533,2047.4695,
525.622,2024.1911,
522.712,1995.4616,
519.801,1995.0183,
516.891,2026.9502,
513.980,2065.665,
511.070,2074.0554,
508.159,2078.9904,
505.248,2085.6301,
502.338,2095.8313,
499.427,2085.7975,
496.517,2132.9027,
493.606,2183.5752,
490.695,2205.7713,
487.785,2188.8359,
484.874,2180.309,
481.964,2190.4139,
479.053,2203.7931,
476.143,2181.5222,
473.232,2179.4056,
470.321,2186.9102,
467.411,2170.3055,
464.500,2097.3965,
461.590,2108.1169,
458.679,2170.5568,
455.769,2198.9609,
452.858,2159.738,
449.947,2204.046,
447.037,2218.5858,
444.126,2238.022,
441.216,2261.2886,
438.305,2239.1926,
435.395,2239.4032,
432.484,2246.5428,
429.573,2240.4573,
426.663,2181.9265,
423.752,2115.0547,
420.842,2030.1259,
417.931,1971.4675,
415.020,2007.8687,
412.110,2132.036,
409.199,2211.3548,
406.289,2247.617,
403.378,2249.3299,
400.468,2309.8095,
397.557,2274.111,
394.646,2251.4837,
391.736,2331.4872,
388.825,2342.8006,
385.915,2322.1763,
383.004,2326.5384,
380.094,2389.1653,
377.183,2370.3534,
374.272,2386.2934,
371.362,2408.8342,
368.451,2420.1706,
365.541,2420.9211,
362.630,2414.0239,
359.719,2405.1653,
356.809,2400.8889,
353.898,2446.5655,
350.988,2434.1706,
348.077,2411.3825,
345.167,2407.9575,
342.256,2424.393,
339.345,2445.5994,
336.435,2451.242,
333.524,2429.1115,
330.614,2460.408,
327.703,2476.2859,
324.793,2466.9153,
321.882,2423.2476,
318.971,2473.8017,
316.061,2502.8445,
313.150,2521.3607,
310.240,2541.3978,
307.329,2560.7056,
304.418,2548.0631,
301.508,2519.5958,
298.597,2502.5662,
295.687,2496.3843,
292.776,2505.3751,
289.866,2541.2091,
286.955,2636.5047,
284.044,2601.4225,
281.134,2610.1538,
278.223,2678.0829,
275.313,2711.9783,
272.402,2696.4698,
269.492,2697.8688,
266.581,2731.7107,
263.670,2669.9556,
260.760,2721.602,
257.849,2793.5937,
254.939,2817.8118,
252.028,2831.8781,
249.117,2844.8911,
246.207,2842.3815,
243.296,2796.9952,
240.386,2835.8754,
237.475,2849.1361,
234.565,2832.7799,
231.654,2830.5887,
228.743,2798.4798,
225.833,2766.5879,
222.922,2748.9936,
220.012,2789.0641,
217.101,2779.0614,
214.191,2778.9481,
211.280,2858.2415,
208.369,2836.5397,
205.459,2823.5243,
202.548,2818.1083,
199.638,2783.2771,
196.727,2834.3228,
193.816,2885.5536,
190.906,2904.4393,
187.995,2884.8907,
185.085,2856.3736,
182.174,2834.6715,
179.264,2844.0674,
176.353,2886.7756,
173.442,2921.7269,
170.532,2936.0765,
167.621,2884.1662,
164.711,2800.2245,
161.800,2698.54,
158.890,2585.5427,
155.979,2430.8578,
153.068,2222.8807,
150.158,1980.4808,
147.247,1765.0951,
144.337,1433.2866,
141.426,1107.802,
138.516,846.13674,
135.605,595.34516,
132.694,399.88566,
129.784,256.54,
126.873,171.43955,
123.963,119.98079,
121.052,84.493166,
118.141,60.220499,
115.231,45.913593,
112.320,39.701364,
109.410,38.306868,
106.499,34.033937,
103.589,26.401946,
100.678,20.310135,
97.767,18.177322,
94.857,17.432011,
91.946,16.721889,
89.036,15.673408,
86.125,12.836587,
83.215,11.063159,
80.304,9.8855673,
77.393,9.1773974,
74.483,10.43527,
71.572,9.6755915,
68.662,6.9171975,
65.751,4.7978443,
62.840,7.9786159,
59.930,11.937714,
57.019,11.232632,
54.109,5.1533915,
51.198,2.9346557,
48.288,7.1419873,
45.377,9.2521215,
42.466,8.4761226,
39.556,5.8947628,
36.645,4.4903824,
33.735,6.2019939,
30.824,6.7996782,
27.914,2.5926267,
25.003,8.3513748,
22.092,9.218859,
19.182,3.9945488,
16.271,30.575174,
13.361,98.021827,
10.450,187.06227,
7.539,250.60897,
4.629,346.12272,
1.718,336.95016,
-1.192,65.760938,
-4.103,-36.326313,
-7.013,-55.249188,
-9.924,1.125,
