,PLD23C~1,
Raman shift [1/cm],Intensity,
3014.167,2,
3011.256,-0.95009663,
3008.346,297.98372,
3005.435,366.03887,
3002.525,377.51007,
2999.614,378.81168,
2996.704,391.35463,
2993.793,404.38076,
2990.882,410.16788,
2987.972,442.99496,
2985.061,438.89655,
2982.151,460.53952,
2979.240,479.26616,
2976.329,486.50819,
2973.419,507.95353,
2970.508,527.16663,
2967.598,532.71687,
2964.687,547.47758,
2961.777,550.71798,
2958.866,582.67162,
2955.955,590.41812,
2953.045,605.43175,
2950.134,615.83095,
2947.224,635.76866,
2944.313,661.55057,
2941.403,662.73814,
2938.492,680.88348,
2935.581,704.26869,
2932.671,693.55792,
2929.760,688.34616,
2926.850,719.53684,
2923.939,717.84113,
2921.028,728.64132,
2918.118,754.41687,
2915.207,743.12676,
2912.297,750.01269,
2909.386,753.0073,
2906.476,745.51968,
2903.565,759.16148,
2900.654,747.43581,
2897.744,734.55997,
2894.833,714.84509,
2891.923,736,
2889.012,720,
2886.102,732.08107,
2883.191,740,
2880.280,710.25359,
2877.370,711.49417,
2874.459,686.74865,
2871.549,726.39478,
2868.638,773.868,
2865.727,759.21535,
2862.817,753.87034,
2859.906,774.46725,
2856.996,756.45698,
2854.085,761.59873,
2851.175,769.1175,
2848.264,761.64217,
2845.353,776.59023,
2842.443,756.00348,
2839.532,774.73121,
2836.622,749.72461,
2833.711,740.15542,
2830.801,734.00735,
2827.890,742.03843,
2824.979,742.69189,
2822.069,764.94314,
2819.158,746.6981,
2816.248,750.40158,
2813.337,757.81463,
2810.427,771.52204,
2807.516,763.42453,
2804.605,781.16105,
2801.695,772.30263,
2798.784,781.18685,
2795.874,766.98415,
2792.963,777.49989,
2790.052,740.00751,
2787.142,758.69719,
2784.231,735.74224,
2781.321,765.11996,
2778.410,742.87057,
2775.500,743.01965,
2772.589,776.34481,
2769.678,766.21155,
2766.768,780.43495,
2763.857,780.21195,
2760.947,806.08826,
2758.036,794.58583,
2755.126,800.90171,
2752.215,805.80905,
2749.304,805.6169,
2746.394,794.65721,
2743.483,805.95003,
2740.573,816.9691,
2737.662,794.56361,
2734.751,804.46595,
2731.841,795.51282,
2728.930,814,
2726.020,821.22975,
2723.109,818.13417,
2720.199,822.94058,
2717.288,838.15694,
2714.377,831.9377,
2711.467,847.42637,
2708.556,844.12758,
2705.646,836.85913,
2702.735,835.68042,
2699.825,865.14006,
2696.914,877.14272,
2694.003,846.61464,
2691.093,851.14319,
2688.182,864.58222,
2685.272,846.87624,
2682.361,864.09389,
2679.450,859.42804,
2676.540,872.83741,
2673.629,869.64571,
2670.719,879,
2667.808,891.36774,
2664.898,861.46691,
2661.987,899.26671,
2659.076,889.65303,
2656.166,900.06491,
2653.255,907.40646,
2650.345,908.43194,
2647.434,918.28608,
2644.524,930.06954,
2641.613,929.0572,
2638.702,930.98422,
2635.792,954.25223,
2632.881,929.49417,
2629.971,949.30217,
2627.060,940.66937,
2624.149,916.70313,
2621.239,914,
2618.328,937.76297,
2615.418,959.97728,
2612.507,958.83008,
2609.597,943.82635,
2606.686,983.44176,
2603.775,978.92064,
2600.865,958.82928,
2597.954,994.04172,
2595.044,975.66076,
2592.133,977,
2589.223,990.3737,
2586.312,1006.0502,
2583.401,1002.9817,
2580.491,1011.6826,
2577.580,1024.9934,
2574.670,1017.1257,
2571.759,1003.1464,
2568.848,1009.0553,
2565.938,1024.4286,
2563.027,1021.9273,
2560.117,1028.271,
2557.206,1043.4649,
2554.296,1053.7094,
2551.385,1027.3059,
2548.474,1049.5561,
2545.564,1044.5698,
2542.653,1058.3792,
2539.743,1058.9261,
2536.832,1067.2654,
2533.922,1056.7727,
2531.011,1100.8753,
2528.100,1079.871,
2525.190,1078.1152,
2522.279,1085.6248,
2519.369,1078.9056,
2516.458,1097.6785,
2513.548,1086.7276,
2510.637,1086.0326,
2507.726,1066.9294,
2504.816,1088.7497,
2501.905,1099.9854,
2498.995,1094.4625,
2496.084,1089.0662,
2493.173,1111.4742,
2490.263,1098.4723,
2487.352,1112.1653,
2484.442,1102.1135,
2481.531,1125,
2478.621,1134.9811,
2475.710,1129.977,
2472.799,1133.4125,
2469.889,1161.7258,
2466.978,1165.2269,
2464.068,1161.0846,
2461.157,1148.2675,
2458.247,1159.3384,
2455.336,1178.7241,
2452.425,1178.6745,
2449.515,1171.5011,
2446.604,1206.3664,
2443.694,1188.4885,
2440.783,1205.5743,
2437.872,1236.6718,
2434.962,1225.6359,
2432.051,1218.0247,
2429.141,1212.0177,
2426.230,1214.674,
2423.320,1245.2716,
2420.409,1233.7308,
2417.498,1225.2135,
2414.588,1242.4372,
2411.677,1241.3586,
2408.767,1249.2293,
2405.856,1258.5404,
2402.946,1275.6845,
2400.035,1245.4319,
2397.124,1281.5508,
2394.214,1276.378,
2391.303,1290.149,
2388.393,1296.0418,
2385.482,1256.6743,
2382.571,1278.4552,
2379.661,1301.9534,
2376.750,1305.0542,
2373.840,1305.4906,
2370.929,1287.2166,
2368.019,1337.8547,
2365.108,1345.699,
2362.197,1340.1672,
2359.287,1322.6468,
2356.376,1324.9859,
2353.466,1353.363,
2350.555,1360.2349,
2347.645,1356,
2344.734,1370.9724,
2341.823,1359.2653,
2338.913,1388.4477,
2336.002,1367.5503,
2333.092,1383.6548,
2330.181,1400.4911,
2327.270,1390.5501,
2324.360,1379.1839,
2321.449,1418.6769,
2318.539,1428.7248,
2315.628,1410.4049,
2312.718,1415.6652,
2309.807,1415.298,
2306.896,1438.0391,
2303.986,1451.6948,
2301.075,1438.8937,
2298.165,1428.0095,
2295.254,1396.6678,
2292.344,1423.8381,
2289.433,1436.6486,
2286.522,1448.9418,
2283.612,1471.9005,
2280.701,1475,
2277.791,1500.3206,
2274.880,1504.5761,
2271.969,1497.0288,
2269.059,1495.5041,
2266.148,1532.5025,
2263.238,1495.0232,
2260.327,1567.4826,
2257.417,1547.2372,
2254.506,1537.0769,
2251.595,1540.4108,
2248.685,1552.0539,
2245.774,1565.4173,
2242.864,1556.3616,
2239.953,1580.5516,
2237.043,1601.455,
2234.132,1608.8987,
2231.221,1600.1834,
2228.311,1607.4381,
2225.400,1612.3228,
2222.490,1661.3421,
2219.579,1678.3933,
2216.669,1691.9571,
2213.758,1717.9595,
2210.847,1727.806,
2207.937,1737.5928,
2205.026,1754.8889,
2202.116,1771.0435,
2199.205,1811.988,
2196.294,1809.868,
2193.384,1874.9716,
2190.473,1895.5681,
2187.563,1949.261,
2184.652,2013.2416,
2181.742,2088.434,
2178.831,2178.8057,
2175.920,2320.2714,
2173.010,2447.3305,
2170.099,2571.0556,
2167.189,2776.9615,
2164.278,2935.5317,
2161.368,3120.8527,
2158.457,3282.0512,
2155.546,3478.5858,
2152.636,3657.2497,
2149.725,3779.0603,
2146.815,3937.0948,
2143.904,3965.9442,
2140.993,4058.5663,
2138.083,4030.6959,
2135.172,4058.5546,
2132.262,4028.2165,
2129.351,3940.7478,
2126.441,3793.3103,
2123.530,3651.8674,
2120.619,3439.2304,
2117.709,3233.8994,
2114.798,3015.9184,
2111.888,2789.4796,
2108.977,2597.543,
2106.067,2468.9206,
2103.156,2313.0247,
2100.245,2204.9561,
2097.335,2127.1728,
2094.424,2066.8885,
2091.514,2031.2578,
2088.603,1975.0323,
2085.692,1962.2268,
2082.782,1944.0362,
2079.871,1921.3921,
2076.961,1943.2564,
2074.050,1916.1455,
2071.140,1914.0119,
2068.229,1883.1016,
2065.318,1876.8895,
2062.408,1873.2269,
2059.497,1859.8036,
2056.587,1821.2797,
2053.676,1861.3466,
2050.766,1838.9253,
2047.855,1828.4874,
2044.944,1810.468,
2042.034,1812.9249,
2039.123,1830.2997,
2036.213,1825.6733,
2033.302,1832.152,
2030.391,1853.1691,
2027.481,1846.866,
2024.570,1843.6857,
2021.660,1836.473,
2018.749,1864.4179,
2015.839,1873.7894,
2012.928,1870.5973,
2010.017,1880.1563,
2007.107,1864.6505,
2004.196,1868.1905,
2001.286,1854.2474,
1998.375,1828.1703,
1995.465,1857.6107,
1992.554,1838.0767,
1989.643,1861.0322,
1986.733,1841.0368,
1983.822,1824.1411,
1980.912,1818.1678,
1978.001,1798.1354,
1975.090,1809.7817,
1972.180,1821.8271,
1969.269,1847.9455,
1966.359,1824.4319,
1963.448,1811.0357,
1960.538,1831.8532,
1957.627,1833.3251,
1954.716,1821.3447,
1951.806,1830.851,
1948.895,1831.4433,
1945.985,1850.5065,
1943.074,1831.5978,
1940.164,1815.5478,
1937.253,1799.026,
1934.342,1797.4187,
1931.432,1825.5237,
1928.521,1795.8532,
1925.611,1801.7594,
1922.700,1803.337,
1919.790,1806.8901,
1916.879,1821.9538,
1913.968,1795.0344,
1911.058,1830.9609,
1908.147,1789.9927,
1905.237,1809.75,
1902.326,1824.606,
1899.415,1786.3915,
1896.505,1779.3916,
1893.594,1789.9939,
1890.684,1798.902,
1887.773,1828.344,
1884.863,1818.8337,
1881.952,1823.0173,
1879.041,1799.7144,
1876.131,1813.4314,
1873.220,1788.491,
1870.310,1810.9192,
1867.399,1816.936,
1864.489,1824.0654,
1861.578,1802.2142,
1858.667,1811.2126,
1855.757,1802.7721,
1852.846,1827.2154,
1849.936,1825.1381,
1847.025,1858.1801,
1844.114,1860.1059,
1841.204,1865.3497,
1838.293,1848.4842,
1835.383,1862.372,
1832.472,1892.0939,
1829.562,1911.9164,
1826.651,1893.1705,
1823.740,1929.1342,
1820.830,1902.0154,
1817.919,1896.3294,
1815.009,1924.5433,
1812.098,1913.7402,
1809.188,1930.7596,
1806.277,1929.0664,
1803.366,1922.4159,
1800.456,1947.7144,
1797.545,1958.4327,
1794.635,1943,
1791.724,1953.2329,
1788.813,2000.1938,
1785.903,1984.2829,
1782.992,1991.7809,
1780.082,1978.7823,
1777.171,1977.3378,
1774.261,1989.2549,
1771.350,2002.3705,
1768.439,2055.4284,
1765.529,2062.9962,
1762.618,2054.46,
1759.708,2062.826,
1756.797,2045.3182,
1753.887,2048.8469,
1750.976,2070.3828,
1748.065,2082.6866,
1745.155,2103.5225,
1742.244,2130.5534,
1739.334,2095.8635,
1736.423,2126.871,
1733.512,2148,
1730.602,2165.2044,
1727.691,2181.7472,
1724.781,2191.2926,
1721.870,2200.2429,
1718.960,2229.1337,
1716.049,2233.3221,
1713.138,2242.405,
1710.228,2272.7198,
1707.317,2287.6149,
1704.407,2322.2407,
1701.496,2321.4423,
1698.586,2332.0878,
1695.675,2365.7498,
1692.764,2413.4426,
1689.854,2404.5197,
1686.943,2407.8651,
1684.033,2457.7334,
1681.122,2491.4393,
1678.211,2494.9714,
1675.301,2577.7441,
1672.390,2579.1585,
1669.480,2632.4893,
1666.569,2694.1299,
1663.659,2782.8983,
1660.748,2838.0412,
1657.837,2892.8589,
1654.927,2974.0554,
1652.016,2896.0617,
1649.106,3020.2485,
1646.195,3072.5655,
1643.285,3177.5697,
1640.374,3204.007,
1637.463,3298.5224,
1634.553,3328.9655,
1631.642,3461.987,
1628.732,3644.0784,
1625.821,3825.1204,
1622.911,4007.9631,
1620.000,4196.6062,
1617.089,4449.9055,
1614.179,4661.0214,
1611.268,4943.3299,
1608.358,5139.8695,
1605.447,5292.3154,
1602.536,5328.0247,
1599.626,5427.5129,
1596.715,5465.9508,
1593.805,5381.3555,
1590.894,5388.6134,
1587.984,5386.6695,
1585.073,5326.4428,
1582.162,5327.6884,
1579.252,5241.6235,
1576.341,5258.8489,
1573.431,5224.9254,
1570.520,5160.258,
1567.610,5114.9407,
1564.699,5157.9272,
1561.788,5050.5364,
1558.878,4904.1442,
1555.967,4800.8795,
1553.057,4773.1896,
1550.146,4654.5494,
1547.235,4558.9289,
1544.325,4513.8957,
1541.414,4437.6144,
1538.504,4357.0338,
1535.593,4312.7748,
1532.683,4269.383,
1529.772,4177.0946,
1526.861,4094.7348,
1523.951,4045.946,
1521.040,3974.5289,
1518.130,3935.0798,
1515.219,3915.2805,
1512.309,3894.7793,
1509.398,3871.2512,
1506.487,3828.9681,
1503.577,3857.7993,
1500.666,3810.9634,
1497.756,3773.8987,
1494.845,3806.1584,
1491.934,3737.7039,
1489.024,3647.2296,
1486.113,3630.0918,
1483.203,3613.013,
1480.292,3536.331,
1477.382,3529.466,
1474.471,3581.647,
1471.560,3498.3094,
1468.650,3428.8861,
1465.739,3387.7399,
1462.829,3412.9868,
1459.918,3389.1708,
1457.008,3384.0466,
1454.097,3406.5217,
1451.186,3392,
1448.276,3390.5241,
1445.365,3381.5703,
1442.455,3371.5532,
1439.544,3380.1026,
1436.633,3375.427,
1433.723,3365.2583,
1430.812,3341.1237,
1427.902,3279.2559,
1424.991,3247.9797,
1422.081,3223.1456,
1419.170,3226.1844,
1416.259,3237.5308,
1413.349,3224.8952,
1410.438,3165.4172,
1407.528,3170.9684,
1404.617,3198.7426,
1401.707,3214.9491,
1398.796,3216.8077,
1395.885,3273.8352,
1392.975,3325.8109,
1390.064,3295.9659,
1387.154,3361.0637,
1384.243,3267.2053,
1381.332,3238.5012,
1378.422,3350.5263,
1375.511,3418.9113,
1372.601,3573.9022,
1369.690,3679.58,
1366.780,3675.1991,
1363.869,3715.7681,
1360.958,3810.2453,
1358.048,3857.1197,
1355.137,3922.9793,
1352.227,4035.6474,
1349.316,4107.8883,
1346.406,4129.0077,
1343.495,4186.4112,
1340.584,4282.82,
1337.674,4368.2112,
1334.763,4326.8453,
1331.853,4506.7282,
1328.942,4505.1054,
1326.032,4541.5185,
1323.121,4616.6868,
1320.210,4693.9396,
1317.300,4727.4926,
1314.389,4800.3486,
1311.479,4908.689,
1308.568,4972.9022,
1305.657,5006.3861,
1302.747,5080.2628,
1299.836,5191.4793,
1296.926,5305.8883,
1294.015,5389.5468,
1291.105,5603.4495,
1288.194,5754.2077,
1285.283,5878.7964,
1282.373,5967.2576,
1279.462,6070.0182,
1276.552,6123.9606,
1273.641,6168.6265,
1270.731,6268.8776,
1267.820,6294.5357,
1264.909,6233.2184,
1261.999,6136.5618,
1259.088,6234.1588,
1256.178,6083.2685,
1253.267,5948.8254,
1250.356,5798.8351,
1247.446,5656.1644,
1244.535,5471.1164,
1241.625,5286.8668,
1238.714,5166.1275,
1235.804,5050.7721,
1232.893,4902.3929,
1229.982,4818.5776,
1227.072,4747.0579,
1224.161,4673.9192,
1221.251,4592.5052,
1218.340,4488.0235,
1215.430,4430.7872,
1212.519,4372.0075,
1209.608,4349.0832,
1206.698,4398.7018,
1203.787,4361.6734,
1200.877,4386.6657,
1197.966,4381.2707,
1195.055,4517.5198,
1192.145,4599.6048,
1189.234,4700.099,
1186.324,4797.4597,
1183.413,4845.533,
1180.503,4847.302,
1177.592,4822.0198,
1174.681,4750.298,
1171.771,4709.3928,
1168.860,4639.7318,
1165.950,4575.7534,
1163.039,4497.0485,
1160.129,4464.2812,
1157.218,4454.2697,
1154.307,4419.1731,
1151.397,4350.3636,
1148.486,4280.9077,
1145.576,4233.1497,
1142.665,4190.5299,
1139.754,4191.0681,
1136.844,4181.4955,
1133.933,4130.666,
1131.023,4077.6999,
1128.112,4050.7149,
1125.202,4042.5169,
1122.291,4044.7601,
1119.380,4070.6102,
1116.470,4030.8965,
1113.559,4094.0459,
1110.649,4079.2932,
1107.738,4101.1864,
1104.828,4118.1077,
1101.917,4089.7454,
1099.006,4074.8146,
1096.096,4044.3865,
1093.185,4099.7006,
1090.275,4085.3868,
1087.364,4098.1531,
1084.453,4082.939,
1081.543,4059.3031,
1078.632,4048.2393,
1075.722,4039.4358,
1072.811,4036.3795,
1069.901,4027.6469,
1066.990,4101.3665,
1064.079,4122.4026,
1061.169,4178.6778,
1058.258,4226.8114,
1055.348,4231.706,
1052.437,4250.0227,
1049.527,4345.5902,
1046.616,4309.0994,
1043.705,4341.9967,
1040.795,4368.3241,
1037.884,4381.0459,
1034.974,4397.6624,
1032.063,4424.0075,
1029.153,4441.5579,
1026.242,4454.5323,
1023.331,4442.5008,
1020.421,4485.3116,
1017.510,4530.2124,
1014.600,4574.5299,
1011.689,4618.5476,
1008.778,4667.8713,
1005.868,4802.8302,
1002.957,5006.7341,
1000.047,5180.6881,
997.136,5304.4791,
994.226,5398.1685,
991.315,5434.1238,
988.404,5376.4083,
985.494,5298.9286,
982.583,5206.4205,
979.673,5172.5139,
976.762,5141.5159,
973.852,5117.4858,
970.941,5114.5204,
968.030,5126.8439,
965.120,5109.0716,
962.209,5126.1224,
959.299,5090.7545,
956.388,5106.918,
953.477,5143.9198,
950.567,5142.7003,
947.656,5097.7961,
944.746,5149.619,
941.835,5137.4234,
938.925,5173.483,
936.014,5180.3427,
933.103,5157.8195,
930.193,5135.6066,
927.282,5107.584,
924.372,4989.199,
921.461,4932.7616,
918.551,4904.0576,
915.640,4851.0807,
912.729,4782.8025,
909.819,4749.6622,
906.908,4709.2258,
903.998,4747.5636,
901.087,4765.0016,
898.176,4799.0633,
895.266,4849.7743,
892.355,4905.1195,
889.445,4996.5996,
886.534,5036.239,
883.624,5072.2589,
880.713,5133.9735,
877.802,5150.1243,
874.892,5092.3454,
871.981,5085.3156,
869.071,5098.6823,
866.160,5088.5807,
863.250,5099.2503,
860.339,5097.1752,
857.428,5061.6434,
854.518,5039.4092,
851.607,5053.5544,
848.697,4992.033,
845.786,4934.4569,
842.875,4912.5441,
839.965,4933.2139,
837.054,4988.4511,
834.144,4939.5547,
831.233,4915.3344,
828.323,4935.696,
825.412,4919.5691,
822.501,4823.9148,
819.591,4812.3453,
816.680,4763.923,
813.770,4658.0246,
810.859,4609.2199,
807.949,4592.6438,
805.038,4530.4801,
802.127,4567.5208,
799.217,4582.9263,
796.306,4561.4593,
793.396,4544.3359,
790.485,4539.7874,
787.574,4510.1832,
784.664,4541.3475,
781.753,4526.1995,
778.843,4546.3851,
775.932,4579.2345,
773.022,4581.1124,
770.111,4575.3894,
767.200,4549.8767,
764.290,4568.5824,
761.379,4580.5165,
758.469,4569.6278,
755.558,4570.6628,
752.648,4525.8596,
749.737,4496.1107,
746.826,4431.8508,
743.916,4352.5712,
741.005,4289.4102,
738.095,4151.3911,
735.184,4029.1712,
732.274,3970.1713,
729.363,4038.3852,
726.452,4220.9798,
723.542,4320.5352,
720.631,4377.9887,
717.721,4434.672,
714.810,4469.9488,
711.899,4479.8812,
708.989,4487.9504,
706.078,4453.544,
703.168,4413.4245,
700.257,4402.0766,
697.347,4397.1758,
694.436,4333.2837,
691.525,4343.7332,
688.615,4356.6915,
685.704,4349.6175,
682.794,4340.4254,
679.883,4366.2699,
676.973,4327.8041,
674.062,4367.8562,
671.151,4357.3036,
668.241,4319.4829,
665.330,4352.0546,
662.420,4332.0863,
659.509,4365.4609,
656.598,4374.4503,
653.688,4349.2584,
650.777,4318.7039,
647.867,4280.4801,
644.956,4327.7235,
642.046,4339.1971,
639.135,4322.7207,
636.224,4382.0199,
633.314,4385.9896,
630.403,4390.5473,
627.493,4424.4941,
624.582,4459.6383,
621.672,4390.7348,
618.761,4459.4343,
615.850,4522.2221,
612.940,4566.6122,
610.029,4592.1565,
607.119,4611.1077,
604.208,4610.87,
601.297,4585.5726,
598.387,4578.7712,
595.476,4621.2173,
592.566,4602.3277,
589.655,4559.4787,
586.745,4532.3584,
583.834,4514.2404,
580.923,4475.981,
578.013,4472.8421,
575.102,4506.9889,
572.192,4520.495,
569.281,4512.2006,
566.371,4591.2456,
563.460,4605.3492,
560.549,4628.4657,
557.639,4660.2054,
554.728,4691.2026,
551.818,4741.9232,
548.907,4713.3881,
545.996,4707.4395,
543.086,4741.0197,
540.175,4755.0354,
537.265,4803.8024,
534.354,4865.1454,
531.444,4913.5732,
528.533,4932.5249,
525.622,4996.1526,
522.712,5049.439,
519.801,5109.3692,
516.891,5177.8334,
513.980,5241.3257,
511.070,5294.8956,
508.159,5378.9939,
505.248,5474.7873,
502.338,5554.8918,
499.427,5653.6863,
496.517,5731.4747,
493.606,5791.526,
490.695,5835.3165,
487.785,5859.18,
484.874,5836.5048,
481.964,5845.2556,
479.053,5869.5425,
476.143,5834.2162,
473.232,5804.6627,
470.321,5796.9195,
467.411,5779.7392,
464.500,5721.4351,
461.590,5778.0999,
458.679,5833.6212,
455.769,5870.726,
452.858,5877.8186,
449.947,5847.2614,
447.037,5850.1014,
444.126,5864.503,
441.216,5883.1009,
438.305,5906.7208,
435.395,5904.0993,
432.484,5887.6639,
429.573,5884.9752,
426.663,5953.3878,
423.752,5940.1697,
420.842,5902.7721,
417.931,5887.6077,
415.020,5956.6182,
412.110,5990.4594,
409.199,6053.8337,
406.289,6125.2186,
403.378,6177.8796,
400.468,6142.3479,
397.557,6142.3113,
394.646,6143.5729,
391.736,6115.3441,
388.825,6032.3786,
385.915,6024.498,
383.004,6065.8411,
380.094,6137.0692,
377.183,6216.8317,
374.272,6339.4144,
371.362,6440.4823,
368.451,6481.4589,
365.541,6505.4761,
362.630,6509.2688,
359.719,6534.821,
356.809,6603.7185,
353.898,6648.6464,
350.988,6643.0979,
348.077,6618.9973,
345.167,6598.7407,
342.256,6633.1059,
339.345,6674.3545,
336.435,6691.4515,
333.524,6664.4228,
330.614,6677.8356,
327.703,6766.1985,
324.793,6833.3682,
321.882,6797.0973,
318.971,6837.2433,
316.061,6919.8523,
313.150,7007.2428,
310.240,7056.2225,
307.329,7140.1832,
304.418,7148.8345,
301.508,7138.5108,
298.597,7208.11,
295.687,7266.8248,
292.776,7347.0003,
289.866,7473.5096,
286.955,7708.4243,
284.044,7989.9397,
281.134,8210.2793,
278.223,8381.7112,
275.313,8666.8742,
272.402,8842.0188,
269.492,9003.2626,
266.581,9185.7683,
263.670,9378.3855,
260.760,9561.9839,
257.849,9683.8759,
254.939,9697.8197,
252.028,9793.5475,
249.117,9922.2792,
246.207,10035.978,
243.296,10051.35,
240.386,9960.9282,
237.475,9903.1637,
234.565,9860.0114,
231.654,9675.9547,
228.743,9567.9558,
225.833,9504.1944,
222.922,9469.4623,
220.012,9350.7078,
217.101,9268.3263,
214.191,9192.8387,
211.280,9092.4488,
208.369,9046.6496,
205.459,9040.3768,
202.548,9058.7493,
199.638,9057.298,
196.727,9092.1492,
193.816,9106.5611,
190.906,9079.6445,
187.995,9069.5081,
185.085,9084.4414,
182.174,9094.4223,
179.264,9055.3929,
176.353,9104.1846,
173.442,9172.0686,
170.532,9225.8109,
167.621,9112.6177,
164.711,8971.1052,
161.800,8772.4484,
158.890,8483.8376,
155.979,7879.0937,
153.068,7226.3988,
150.158,6513.6365,
147.247,5629.8373,
144.337,4680.1869,
141.426,3705.6208,
138.516,2721.3291,
135.605,1929.1395,
132.694,1324.7391,
129.784,882.46471,
126.873,582.11018,
123.963,394.09736,
121.052,270.80423,
118.141,202.26964,
115.231,147.99665,
112.320,117.10365,
109.410,101.59112,
106.499,83.787238,
103.589,84.482036,
100.678,80.937836,
97.767,62.453459,
94.857,63.385978,
91.946,57.550226,
89.036,47.887102,
86.125,47.177897,
83.215,44.876319,
80.304,40.605673,
77.393,33.523974,
74.483,41.516754,
71.572,43.101183,
68.662,36.683918,
65.751,23.261347,
62.840,27.188934,
59.930,36.374572,
57.019,37.784736,
54.109,29.639748,
51.198,22.491954,
48.288,19.02265,
45.377,21.836162,
42.466,25.061097,
39.556,28,
36.645,28,
33.735,20.211273,
30.824,15.650644,
27.914,24.064747,
25.003,23.754725,
22.092,25.260332,
19.182,30.32036,
16.271,40.113222,
13.361,174.23051,
10.450,445.06536,
7.539,979.97492,
4.629,1273.3812,
1.718,1256.5681,
-1.192,730.22399,
-4.103,406.56348,
-7.013,167.73061,
-9.924,-8.1191178E-17,
