,PLFE11~1,
Wavenumbers [1/cm],Intensity,
3014.167,-4.25,
3011.256,2.0999678,
3008.346,42.40841,
3005.435,46.71113,
3002.525,47.127517,
2999.614,51.561682,
2996.704,55.927317,
2993.793,49.864632,
2990.882,53.23094,
2987.972,71.70964,
2985.061,52.666242,
2982.151,50.198749,
2979.240,62.080782,
2976.329,67.484984,
2973.419,66.827022,
2970.508,68.29997,
2967.598,67.084538,
2964.687,72.317256,
2961.777,89.775834,
2958.866,74.414192,
2955.955,70.920363,
2953.045,89.016216,
2950.134,92.420568,
2947.224,83.490189,
2944.313,93.019941,
2941.403,84.178831,
2938.492,91.9099,
2935.581,96.228535,
2932.671,96.591213,
2929.760,90.988443,
2926.850,92.122931,
2923.939,102.70793,
2921.028,100.50285,
2918.118,90.190808,
2915.207,100.28169,
2912.297,107.72884,
2909.386,90.122271,
2906.476,102.93536,
2903.565,112.76704,
2900.654,104.47901,
2897.744,109.73743,
2894.833,91.843097,
2891.923,77.480804,
2889.012,103.70376,
2886.102,114.52163,
2883.191,140.72262,
2880.280,113.06579,
2877.370,142.51156,
2874.459,198.71198,
2871.549,123.46018,
2868.638,114.1603,
2865.727,111.2269,
2862.817,107.17782,
2859.906,113.77564,
2856.996,109.30661,
2854.085,115.23533,
2851.175,112.30115,
2848.264,115.98017,
2845.353,121.6853,
2842.443,116.75348,
2839.532,110.64554,
2836.622,108.99154,
2833.711,105.2759,
2830.801,111.14559,
2827.890,105.4598,
2824.979,110.18202,
2822.069,113.86372,
2819.158,115.76886,
2816.248,108.72684,
2813.337,122.97683,
2810.427,120.44835,
2807.516,115.75,
2804.605,109.97596,
2801.695,116.44737,
2798.784,128.86292,
2795.874,121.3252,
2792.963,118.39287,
2790.052,122.74914,
2787.142,110.68419,
2784.231,112.29813,
2781.321,114.87572,
2778.410,117.16497,
2775.500,123.11103,
2772.589,100.09785,
2769.678,125.75,
2766.768,131.43156,
2763.857,116.48796,
2760.947,121.72478,
2758.036,121.98569,
2755.126,114.88462,
2752.215,131.96358,
2749.304,120.77159,
2746.394,122.65522,
2743.483,122.05003,
2740.573,113.08848,
2737.662,116.2071,
2734.751,129.21595,
2731.841,123.83058,
2728.930,138.62715,
2726.020,129.18866,
2723.109,129.18292,
2720.199,127.06239,
2717.288,136.76824,
2714.377,136.97492,
2711.467,136.99615,
2708.556,137.73905,
2705.646,144.52464,
2702.735,142.74484,
2699.825,138.72819,
2696.914,133.27363,
2694.003,153.97927,
2691.093,142.94616,
2688.182,131.93148,
2685.272,132.75,
2682.361,135.50873,
2679.450,139.04218,
2676.540,133.77032,
2673.629,141.0549,
2670.719,137.04943,
2667.808,142.97183,
2664.898,133.49027,
2661.987,136.15007,
2659.076,144.85991,
2656.166,121.4772,
2653.255,138.26871,
2650.345,144.80626,
2647.434,137.37904,
2644.524,147.41424,
2641.613,149.46465,
2638.702,140.0025,
2635.792,146.93843,
2632.881,147.25583,
2629.971,159.72991,
2627.060,146.75125,
2624.149,146.39686,
2621.239,156.99852,
2618.328,142.85207,
2615.418,162.4409,
2612.507,149.2678,
2609.597,155.01547,
2606.686,164.65962,
2603.775,142.94841,
2600.865,142.33705,
2597.954,155.84583,
2595.044,161.05381,
2592.133,150.62881,
2589.223,159.36475,
2586.312,159.02131,
2583.401,175.26093,
2580.491,168.29808,
2577.580,170.70049,
2574.670,150.4358,
2571.759,169.69435,
2568.848,164.75,
2565.938,171.94046,
2563.027,170.45684,
2560.117,165.38552,
2557.206,182.02306,
2554.296,166.123,
2551.385,170.99798,
2548.474,168.04628,
2545.564,168.71834,
2542.653,179.82383,
2539.743,161.93484,
2536.832,159.58739,
2533.922,167.79731,
2531.011,169.65009,
2528.100,182.20998,
2525.190,186.26312,
2522.279,178.64106,
2519.369,192.82571,
2516.458,193.20113,
2513.548,185.37749,
2510.637,177.58183,
2507.726,164.12176,
2504.816,170.37458,
2501.905,182.35854,
2498.995,186.57084,
2496.084,181.60365,
2493.173,183.38179,
2490.263,185.55903,
2487.352,180.54133,
2484.442,180.59153,
2481.531,196.43613,
2478.621,199.75,
2475.710,173.90336,
2472.799,193.75,
2469.889,199.08242,
2466.978,188.15222,
2464.068,220.05701,
2461.157,198.21004,
2458.247,195.1618,
2455.336,203.04746,
2452.425,202.07547,
2449.515,215.5608,
2446.604,193.45506,
2443.694,191.84292,
2440.783,201.08559,
2437.872,194.89586,
2434.962,204.79147,
2432.051,214.92271,
2429.141,214.1558,
2426.230,205.53229,
2423.320,209.49302,
2420.409,203.1282,
2417.498,207.93821,
2414.588,213.20246,
2411.677,212.99698,
2408.767,191.99114,
2405.856,187.40477,
2402.946,201.17895,
2400.035,203.35563,
2397.124,225.5254,
2394.214,212.72041,
2391.303,201.53997,
2388.393,223.69421,
2385.482,205.76342,
2382.571,219.92734,
2379.661,214.26165,
2376.750,222.16865,
2373.840,212.49383,
2370.929,236.43594,
2368.019,206.53199,
2365.108,224.82068,
2362.197,214.55547,
2359.287,216.14499,
2356.376,219.74472,
2353.466,223.32532,
2350.555,226.9849,
2347.645,220.97384,
2344.734,233.93437,
2341.823,214.148,
2338.913,232.26342,
2336.002,224.08729,
2333.092,241.01417,
2330.181,234.66053,
2327.270,240.14494,
2324.360,234.46465,
2321.449,225.24321,
2318.539,235.21789,
2315.628,239.32954,
2312.718,227.61783,
2309.807,224.11627,
2306.896,239.47457,
2303.986,227.57466,
2301.075,224.13298,
2298.165,232.52901,
2295.254,246.49148,
2292.344,227.1151,
2289.433,242.43727,
2286.522,249.80355,
2283.612,243.46938,
2280.701,237.15359,
2277.791,244.47135,
2274.880,260.03803,
2271.969,249.10802,
2269.059,244.54292,
2266.148,256.23414,
2263.238,240.85812,
2260.327,264.40513,
2257.417,260.69889,
2254.506,263.75,
2251.595,264.32091,
2248.685,265.48654,
2245.774,267.55217,
2242.864,266.16647,
2239.953,260.70857,
2237.043,260.6193,
2234.132,256.31358,
2231.221,277.11957,
2228.311,254.78483,
2225.400,269.75,
2222.490,270.30702,
2219.579,274.45952,
2216.669,271.281,
2213.758,267.35915,
2210.847,257.46538,
2207.937,280.65062,
2205.026,274.19373,
2202.116,292.96338,
2199.205,294.46224,
2196.294,298.064,
2193.384,298.171,
2190.473,297.03404,
2187.563,292.808,
2184.652,304.29816,
2181.742,297.02214,
2178.831,292.34536,
2175.920,307.16166,
2173.010,308.84977,
2170.099,338.94644,
2167.189,339.84328,
2164.278,354.65754,
2161.368,373.74903,
2158.457,391.63186,
2155.546,402.20387,
2152.636,444.1063,
2149.725,448.59565,
2146.815,470.91578,
2143.904,470.15148,
2140.993,474.91401,
2138.083,484.95058,
2135.172,484.84236,
2132.262,487.51937,
2129.351,502.54659,
2126.441,462.3421,
2123.530,486.82857,
2120.619,485.76869,
2117.709,431.79469,
2114.798,419.5846,
2111.888,396.73842,
2108.977,364.03476,
2106.067,372.67593,
2103.156,344.31627,
2100.245,340.73306,
2097.335,315.79712,
2094.424,330.2713,
2091.514,322.31446,
2088.603,320.7177,
2085.692,328.20355,
2082.782,332.81823,
2079.871,306.17708,
2076.961,326.87724,
2074.050,324.47727,
2071.140,334.24461,
2068.229,316.1927,
2065.318,328.07075,
2062.408,333.10627,
2059.497,319.90473,
2056.587,321.06369,
2053.676,311.41766,
2050.766,316.05717,
2047.855,285.31958,
2044.944,311.00158,
2042.034,340.84812,
2039.123,316.97222,
2036.213,325.9255,
2033.302,308.11959,
2030.391,316.41075,
2027.481,319.51831,
2024.570,322.96417,
2021.660,348.21264,
2018.749,350.3701,
2015.839,339.94291,
2012.928,334.52013,
2010.017,343.81407,
2007.107,355.95746,
2004.196,342.21428,
2001.286,357.6687,
1998.375,352.04921,
1995.465,340.03036,
1992.554,337.87354,
1989.643,316.5104,
1986.733,333.96404,
1983.822,337.60894,
1980.912,345.40417,
1978.001,369.7333,
1975.090,355.56221,
1972.180,347.37102,
1969.269,351.67531,
1966.359,357.75,
1963.448,348.98381,
1960.538,344.12698,
1957.627,358.01627,
1954.716,355.86491,
1951.806,357.49517,
1948.895,365.50111,
1945.985,323.56699,
1943.074,328.15219,
1940.164,342.42332,
1937.253,353.57191,
1934.342,345.27139,
1931.432,337.93612,
1928.521,363.21978,
1925.611,350.47759,
1922.700,356.1616,
1919.790,353.8599,
1916.879,332.28449,
1913.968,357.7168,
1911.058,341.5428,
1908.147,357.79822,
1905.237,384.99261,
1902.326,366.76036,
1899.415,369.26828,
1896.505,370.81054,
1893.594,408.38719,
1890.684,393.32525,
1887.773,374.39671,
1884.863,374.21469,
1881.952,385.11992,
1879.041,369.83774,
1876.131,357.23497,
1873.220,354.00663,
1870.310,351.8935,
1867.399,380.28619,
1864.489,407.77641,
1861.578,382.62921,
1858.667,371.75,
1855.757,372.9457,
1852.846,378.00128,
1849.936,375.42468,
1847.025,369.16119,
1844.114,383.01592,
1841.204,390.72902,
1838.293,386.23919,
1835.383,396.029,
1832.472,390.44739,
1829.562,374.52916,
1826.651,372.85266,
1823.740,371.11015,
1820.830,386.72653,
1817.919,415.36692,
1815.009,398.48792,
1812.098,401.03346,
1809.188,388.61825,
1806.277,361.34756,
1803.366,410.60027,
1800.456,399.60667,
1797.545,366.71434,
1794.635,402.39595,
1791.724,388.49745,
1788.813,431.14794,
1785.903,425.45348,
1782.992,417.01971,
1780.082,401.30681,
1777.171,442.08834,
1774.261,443.22965,
1771.350,443.61851,
1768.439,463.08655,
1765.529,417.56664,
1762.618,409.6825,
1759.708,404.08688,
1756.797,417.72727,
1753.887,427.85204,
1750.976,413.49477,
1748.065,439.70084,
1745.155,423.98251,
1742.244,416.3306,
1739.334,448.76882,
1736.423,438.14069,
1733.512,435.2988,
1730.602,480.38697,
1727.691,471.72018,
1724.781,450.59162,
1721.870,453.9929,
1718.960,433.54973,
1716.049,438.8177,
1713.138,461.2699,
1710.228,446.47376,
1707.317,447.28829,
1704.407,456.73397,
1701.496,500.59275,
1698.586,465.01867,
1695.675,495.43551,
1692.764,487.33606,
1689.854,486.75,
1686.943,470.32334,
1684.033,468.77484,
1681.122,496.27421,
1678.211,508.63579,
1675.301,526.6945,
1672.390,553.63336,
1669.480,514.99066,
1666.569,544.49608,
1663.659,525.41963,
1660.748,565.63431,
1657.837,559.35634,
1654.927,542.40602,
1652.016,569.50701,
1649.106,559.94585,
1646.195,568.82894,
1643.285,612.27148,
1640.374,592.16812,
1637.463,611.76801,
1634.553,613.44456,
1631.642,659.43512,
1628.732,631.0522,
1625.821,681.76832,
1622.911,709.59222,
1620.000,765.04447,
1617.089,785.35199,
1614.179,825.59376,
1611.268,843.11798,
1608.358,863.76671,
1605.447,964.69367,
1602.536,987.52397,
1599.626,922.51483,
1596.715,967.57567,
1593.805,895.83746,
1590.894,939.59021,
1587.984,920.76724,
1585.073,955.88757,
1582.162,934.36387,
1579.252,895.19965,
1576.341,893.35744,
1573.431,892.40048,
1570.520,887.16374,
1567.610,864.14182,
1564.699,860.37515,
1561.788,849.77828,
1558.878,862.50184,
1555.967,862.16136,
1553.057,808.62981,
1550.146,812.09175,
1547.235,823.48543,
1544.325,790.03894,
1541.414,776.3108,
1538.504,781.72239,
1535.593,784.1584,
1532.683,773.96817,
1529.772,752.57508,
1526.861,732.47316,
1523.951,721.69529,
1521.040,730.58373,
1518.130,719.37317,
1515.219,721.58994,
1512.309,725.73199,
1509.398,731.75,
1506.487,731.56891,
1503.577,730.30914,
1500.666,728.75732,
1497.756,735.52951,
1494.845,720.91009,
1491.934,724.7752,
1489.024,732.47514,
1486.113,734.60443,
1483.203,719.65115,
1480.292,713.50744,
1477.382,685.26956,
1474.471,686.42379,
1471.560,711.97132,
1468.650,702.98488,
1465.739,694.10951,
1462.829,697.3309,
1459.918,677.09787,
1457.008,665.85778,
1454.097,680.60669,
1451.186,685.59139,
1448.276,671.63268,
1445.365,669.32346,
1442.455,704.13615,
1439.544,715.14866,
1436.633,668.93569,
1433.723,721.12689,
1430.812,714.6074,
1427.902,688.85494,
1424.991,735.2953,
1422.081,716.5655,
1419.170,719.0703,
1416.259,712.45943,
1413.349,679.78512,
1410.438,671.14956,
1407.528,708.44328,
1404.617,705.852,
1401.707,678.62125,
1398.796,679.60661,
1395.885,703.3249,
1392.975,710.1871,
1390.064,693.33862,
1387.154,675.35616,
1384.243,621.9243,
1381.332,677.05793,
1378.422,727.46017,
1375.511,721.83948,
1372.601,730.9657,
1369.690,724.035,
1366.780,731.46239,
1363.869,795.50055,
1360.958,757.34989,
1358.048,758.38215,
1355.137,793.8921,
1352.227,827.2534,
1349.316,853.13883,
1346.406,859.49762,
1343.495,864.52524,
1340.584,844.17847,
1337.674,851.286,
1334.763,856.10285,
1331.853,865.37516,
1328.942,903.10749,
1326.032,855.55028,
1323.121,864.497,
1320.210,905.71196,
1317.300,914.48675,
1314.389,888.70794,
1311.479,908.19632,
1308.568,942.66397,
1305.657,932.04554,
1302.747,975.16533,
1299.836,984.80409,
1296.926,1014.3482,
1294.015,1027.2187,
1291.105,998.69212,
1288.194,1057.052,
1285.283,1077.046,
1282.373,1095.2031,
1279.462,1109.1421,
1276.552,1149.9155,
1273.641,1186.2967,
1270.731,1187.8052,
1267.820,1222.7744,
1264.909,1243.6948,
1261.999,1227.4851,
1259.088,1192.8245,
1256.178,1162.4869,
1253.267,1129.3638,
1250.356,1093.6598,
1247.446,1081.3367,
1244.535,1072.8304,
1241.625,1029.0316,
1238.714,969.96595,
1235.804,956.68201,
1232.893,964.01041,
1229.982,916.29004,
1227.072,902.71036,
1224.161,859.72481,
1221.251,874.08528,
1218.340,877.86313,
1215.430,861.43608,
1212.519,852.91932,
1209.608,847.89061,
1206.698,829.19675,
1203.787,831.25254,
1200.877,880.0754,
1197.966,836.91575,
1195.055,878.26568,
1192.145,891.76075,
1189.234,915.16015,
1186.324,926.20449,
1183.413,915.59263,
1180.503,909.49511,
1177.592,921.58836,
1174.681,916.60959,
1171.771,908.70879,
1168.860,906.92261,
1165.950,886.59276,
1163.039,895.01965,
1160.129,886.59348,
1157.218,884.92251,
1154.307,889.66872,
1151.397,874.1476,
1148.486,851.54828,
1145.576,861.0176,
1142.665,844.14725,
1139.754,864.71798,
1136.844,864.84788,
1133.933,841.63578,
1131.023,848.46641,
1128.112,867.39363,
1125.202,857.99155,
1122.291,862.25945,
1119.380,886.62874,
1116.470,874.27335,
1113.559,891.30798,
1110.649,866.6271,
1107.738,857.71563,
1104.828,872.90419,
1101.917,879.53672,
1099.006,860.54392,
1096.096,841.44879,
1093.185,852.86283,
1090.275,856.17781,
1087.364,882.13654,
1084.453,866.18925,
1081.543,870.60504,
1078.632,888.08028,
1075.722,855.44254,
1072.811,861.94332,
1069.901,850.59093,
1066.990,896.63322,
1064.079,896.86178,
1061.169,894.51151,
1058.258,891.24469,
1055.348,891.39292,
1052.437,911.71786,
1049.527,920.94441,
1046.616,900.0925,
1043.705,919.33142,
1040.795,902.76384,
1037.884,891.77295,
1034.974,898.96392,
1032.063,904.88856,
1029.153,898.13883,
1026.242,918.03283,
1023.331,936.24888,
1020.421,943.23551,
1017.510,931.30338,
1014.600,955.85319,
1011.689,985.79057,
1008.778,946.32122,
1005.868,979.03572,
1002.957,1010.8688,
1000.047,1044.87,
997.136,1073.9571,
994.226,1072.0272,
991.315,1053.4455,
988.404,1045.4541,
985.494,1008.1911,
982.583,1027.8919,
979.673,1044.6513,
976.762,1018.6336,
973.852,1000.2861,
970.941,1000.3043,
968.030,992.30495,
965.120,1006.8073,
962.209,1020.448,
959.299,1016.3758,
956.388,1019.9096,
953.477,1020.2287,
950.567,1021.8541,
947.656,1039.8479,
944.746,1002.4675,
941.835,1033.1425,
938.925,1034.8275,
936.014,1032.7617,
933.103,1033.75,
930.193,1031.9522,
927.282,1024.2001,
924.372,1014.0528,
921.461,1002.4404,
918.551,974.93173,
915.640,943.30191,
912.729,932.3374,
909.819,955.52759,
906.908,953.84274,
903.998,921.93543,
901.087,926.48012,
898.176,952.8378,
895.266,976.60659,
892.355,981.9647,
889.445,977.76837,
886.534,971.07103,
883.624,991.95346,
880.713,1003.7707,
877.802,997.80217,
874.892,983.27923,
871.981,978.34797,
869.071,1046.0164,
866.160,1011.5227,
863.250,1002.8067,
860.339,1003.0108,
857.428,987.57618,
854.518,1003.3649,
851.607,990.05174,
848.697,983.6231,
845.786,967.21895,
842.875,983.46162,
839.965,1029.0507,
837.054,984.92677,
834.144,1000.6731,
831.233,997.08382,
828.323,1003.6414,
825.412,1009.2425,
822.501,994.53711,
819.591,965.61313,
816.680,1013.6283,
813.770,971.87077,
810.859,963.66576,
807.949,981.72556,
805.038,952.55088,
802.127,950.90463,
799.217,934.3514,
796.306,919.10128,
793.396,922.65088,
790.485,935.53839,
787.574,919.65659,
784.664,917.19625,
781.753,930.16968,
778.843,950.4723,
775.932,962.89818,
773.022,955.45326,
770.111,934.19623,
767.200,934.27262,
764.290,941.68453,
761.379,940.84199,
758.469,929.44807,
755.558,920.82294,
752.648,923.26675,
749.737,942.68089,
746.826,947.15535,
743.916,935.72395,
741.005,914.67996,
738.095,843.2348,
735.184,806.14761,
732.274,783.70615,
729.363,797.28613,
726.452,855.15185,
723.542,918.28453,
720.631,903.40106,
717.721,916.6539,
714.810,936.07951,
711.899,943.24504,
708.989,936.78964,
706.078,927.93567,
703.168,922.7139,
700.257,922.40029,
697.347,918.66368,
694.436,896.99004,
691.525,905.8319,
688.615,925.98842,
685.704,935.45492,
682.794,935.85636,
679.883,943.18252,
676.973,952.79897,
674.062,936.24562,
671.151,930.57163,
668.241,932.46153,
665.330,919.16598,
662.420,927.95203,
659.509,936.09931,
656.598,947.10675,
653.688,956.05987,
650.777,953.10194,
647.867,933.99007,
644.956,927.2734,
642.046,946.47991,
639.135,970.30016,
636.224,949.72613,
633.314,944.9625,
630.403,938.4291,
627.493,940.51112,
624.582,942.86372,
621.672,911.97594,
618.761,917.58945,
615.850,928.56581,
612.940,935.40847,
610.029,934.09239,
607.119,930.14423,
604.208,935.43011,
601.297,935.25741,
598.387,941.34897,
595.476,959.48172,
592.566,924.85071,
589.655,922.63734,
586.745,924.75,
583.834,923.65208,
580.923,919.88269,
578.013,941.85524,
575.102,942.58771,
572.192,948.0394,
569.281,966.9996,
566.371,979.52158,
563.460,980.04453,
560.549,957.33518,
557.639,940.19552,
554.728,957.65146,
551.818,956.09083,
548.907,958.79707,
545.996,961.91637,
543.086,968.11183,
540.175,988.35662,
537.265,948.46608,
534.354,932.24831,
531.444,939.27376,
528.533,958.143,
525.622,949.60758,
522.712,970.80663,
519.801,988.80504,
516.891,997.19311,
513.980,1014.2276,
511.070,1013.637,
508.159,1028.5097,
505.248,1033.983,
502.338,999.94738,
499.427,1040.8545,
496.517,1063.0631,
493.606,1082.5177,
490.695,1101.7173,
487.785,1087.0913,
484.874,1068.5944,
481.964,1073.0389,
479.053,1089.9114,
476.143,1082.2318,
473.232,1086.0664,
470.321,1085.8037,
467.411,1075.8989,
464.500,1052.6918,
461.590,1050.3946,
458.679,1097.0753,
455.769,1137.6404,
452.858,1139.2049,
449.947,1114.7591,
447.037,1101.8621,
444.126,1108.2106,
441.216,1126.5594,
438.305,1119.702,
435.395,1118.0944,
432.484,1103.1637,
429.573,1091.2701,
426.663,1127.7568,
423.752,1126.5655,
420.842,1142.1041,
417.931,1153.4848,
415.020,1120.8754,
412.110,1187.0584,
409.199,1177.0312,
406.289,1141.7339,
403.378,1145.0522,
400.468,1234.2596,
397.557,1216.4765,
394.646,1183.2545,
391.736,1209.0458,
388.825,1124.5719,
385.915,1130.085,
383.004,1153.609,
380.094,1146.2874,
377.183,1156.8221,
374.272,1179.8329,
371.362,1199.9876,
368.451,1207.1573,
365.541,1197.4003,
362.630,1213.3222,
359.719,1231.7097,
356.809,1235.9861,
353.898,1190.3095,
350.988,1210.2992,
348.077,1236.298,
345.167,1232.6365,
342.256,1230.3953,
339.345,1214.8699,
336.435,1210.0778,
333.524,1232.2198,
330.614,1247.1229,
327.703,1262.5315,
324.793,1259.6026,
321.882,1221.8077,
318.971,1245.5979,
316.061,1259.1215,
313.150,1272.6024,
310.240,1297.8343,
307.329,1278.0255,
304.418,1265.1905,
301.508,1252.8577,
298.597,1226.9431,
295.687,1228.8134,
292.776,1237.4167,
289.866,1257.6483,
286.955,1309.3591,
284.044,1307.2625,
281.134,1313.9695,
278.223,1334.75,
275.313,1334.75,
272.402,1342.3017,
269.492,1360.1073,
266.581,1389.1673,
263.670,1422.9856,
260.760,1456.2572,
257.849,1452.0873,
254.939,1378.699,
252.028,1392.9507,
249.117,1413.3685,
246.207,1426.9618,
243.296,1412.321,
240.386,1419.2389,
237.475,1406.0774,
234.565,1373.9539,
231.654,1349.8512,
228.743,1358.5588,
225.833,1352.2856,
222.922,1314.0705,
220.012,1299.4994,
217.101,1293.7686,
214.191,1290.5644,
211.280,1283.2898,
208.369,1315.7178,
205.459,1314.5822,
202.548,1282.4826,
199.638,1246.2001,
196.727,1294.0667,
193.816,1333.5459,
190.906,1332.4769,
187.995,1381.7105,
185.085,1348.6273,
182.174,1308.6166,
179.264,1367.1606,
176.353,1398.0996,
173.442,1379.4824,
170.532,1326.1943,
167.621,1355.7543,
164.711,1325.9091,
161.800,1285.8516,
158.890,1268.5782,
155.979,1218.4507,
153.068,1116.6431,
150.158,987.04667,
147.247,912.37963,
144.337,742.39919,
141.426,574.02424,
138.516,452.15273,
135.605,322.61242,
132.694,214.65402,
129.784,131.10908,
126.873,86.771026,
123.963,65.230457,
121.052,47.817902,
118.141,27.828646,
115.231,24.197148,
112.320,21.055456,
109.410,18.068224,
106.499,14.507448,
103.589,12.069237,
100.678,11.293243,
97.767,12.715119,
94.857,16.907934,
91.946,11.494004,
89.036,0.86289791,
86.125,1.5721032,
83.215,0.68815929,
80.304,2.3837595,
77.393,10.173629,
74.483,3.5435155,
71.572,0.47470423,
68.662,2.0963375,
65.751,5.6285929,
62.840,5.304894,
59.930,3.0008552,
57.019,0.18052727,
54.109,2.1386434,
51.198,2.5435629,
48.288,-0.22735023,
45.377,2.586162,
42.466,7.0477547,
39.556,10.598814,
36.645,3.5769121,
33.735,5.9039877,
30.824,6.4366954,
27.914,-4.0809333,
25.003,-6.495275,
22.092,-5.9583818,
19.182,-3.2271171,
16.271,-2.527627,
13.361,-20.794151,
10.450,-91.20097,
7.539,-352.37092,
4.629,-526.61294,
1.718,-627.31909,
-1.192,-630.80481,
-4.103,-389.39754,
-7.013,-161.50072,
-9.924,2.75,
