,PLEB9E~1,
Wavenumbers [1/cm],Intensity,
3014.167,-5,
3011.256,1.1499248,
3008.346,90.408115,
3005.435,85.65371,
3002.525,92.925056,
2999.614,107.52467,
2996.704,109.40722,
2993.793,103.23848,
2990.882,100.70235,
2987.972,113.04036,
2985.061,107.69949,
2982.151,114.77817,
2979.240,125.84885,
2976.329,138.01092,
2973.419,125.03055,
2970.508,130.91668,
2967.598,137.90442,
2964.687,141.2534,
2961.777,154.24794,
2958.866,139,
2955.955,151.90043,
2953.045,149.28412,
2950.134,164.09623,
2947.224,155.39856,
2944.313,162.25855,
2941.403,164.42883,
2938.492,180,
2935.581,177.88712,
2932.671,167.88416,
2929.760,183.11922,
2926.850,183.68647,
2923.939,184.39718,
2921.028,197.85298,
2918.118,183.83879,
2915.207,182.82922,
2912.297,200.94922,
2909.386,177.78832,
2906.476,199.6039,
2903.565,196.4363,
2900.654,186.67037,
2897.744,191.07543,
2894.833,190.40218,
2891.923,165.59289,
2889.012,193.9133,
2886.102,203.18784,
2883.191,226.9764,
2880.280,200.30145,
2877.370,256.18013,
2874.459,218.52211,
2871.549,220.85509,
2868.638,186.13404,
2865.727,204.83849,
2862.817,182.07086,
2859.906,209.7094,
2856.996,212.04982,
2854.085,210.68279,
2851.175,209.52409,
2848.264,202.00967,
2845.353,210.97843,
2842.443,200.81602,
2839.532,197.86561,
2836.622,205.17969,
2833.711,197.10361,
2830.801,211.58971,
2827.890,193.60667,
2824.979,209.20998,
2822.069,214.95451,
2819.158,211,
2816.248,208.01158,
2813.337,214.4122,
2810.427,204.38981,
2807.516,203.63313,
2804.605,203.88222,
2801.695,218.43421,
2798.784,209.66531,
2795.874,208.13455,
2792.963,223.71447,
2790.052,220.00172,
2787.142,216.02623,
2784.231,194.93635,
2781.321,218.43426,
2778.410,210.82995,
2775.500,217.36103,
2772.589,198.80962,
2769.678,223.82255,
2766.768,222.24661,
2763.857,227.158,
2760.947,222.46533,
2758.036,217,
2755.126,204.98719,
2752.215,236.34088,
2749.304,231.3831,
2746.394,219.57662,
2743.483,219.1,
2740.573,227.09738,
2737.662,232.77663,
2734.751,225.30107,
2731.841,236.94689,
2728.930,232.95773,
2726.020,229.01042,
2723.109,241.43292,
2720.199,242.29372,
2717.288,230.68612,
2714.377,224.83738,
2711.467,246.67252,
2708.556,245.15916,
2705.646,252.39435,
2702.735,251.82732,
2699.825,242.08726,
2696.914,240.42864,
2694.003,256.02764,
2691.093,250.49941,
2688.182,257.14741,
2685.272,254.00854,
2682.361,236.91157,
2679.450,242.46092,
2676.540,245.87806,
2673.629,238.00898,
2670.719,244.27727,
2667.808,252.85409,
2664.898,258.18191,
2661.987,266.60027,
2659.076,256.92458,
2656.166,259.53246,
2653.255,268.7381,
2650.345,265.02359,
2647.434,261.85739,
2644.524,269.06954,
2641.613,267.37146,
2638.702,257.17359,
2635.792,262.75074,
2632.881,269.1248,
2629.971,264.04018,
2627.060,256.16344,
2624.149,271.43439,
2621.239,269.52075,
2618.328,257.42387,
2615.418,270.65,
2612.507,265.58898,
2609.597,272.53094,
2606.686,270.38956,
2603.775,271.03968,
2600.865,275.35155,
2597.954,258.52705,
2595.044,281.55448,
2592.133,297.21646,
2589.223,296.34948,
2586.312,287.19597,
2583.401,286.2664,
2580.491,283.80768,
2577.580,304.9868,
2574.670,298.66042,
2571.759,299.14641,
2568.848,297.64642,
2565.938,299.04769,
2563.027,292.92725,
2560.117,287.83175,
2557.206,327.20295,
2554.296,289.14188,
2551.385,303.83419,
2548.474,305.48104,
2545.564,293.09497,
2542.653,315.53691,
2539.743,307.5801,
2536.832,308.55141,
2533.922,304.14192,
2531.011,312.17507,
2528.100,310,
2525.190,307.62828,
2522.279,318.51588,
2519.369,323.2645,
2516.458,317.78328,
2513.548,302.96393,
2510.637,314.30741,
2507.726,314.94051,
2504.816,308.25028,
2501.905,317.30427,
2498.995,324.16393,
2496.084,313.45298,
2493.173,317.8947,
2490.263,325.77516,
2487.352,320.83467,
2484.442,342.27837,
2481.531,334.30865,
2478.621,345.03326,
2475.710,311.14569,
2472.799,331.23317,
2469.889,340.33242,
2466.978,348.88657,
2464.068,359.57675,
2461.157,329.27242,
2458.247,346.4118,
2455.336,349.68102,
2452.425,340.0849,
2449.515,362.16007,
2446.604,349.35253,
2443.694,352.90708,
2440.783,370.38401,
2437.872,364,
2434.962,363.21198,
2432.051,360.51234,
2429.141,354.30596,
2426.230,348.26076,
2423.320,369.5859,
2420.409,365.78198,
2417.498,365.41853,
2414.588,364.26995,
2411.677,344.60959,
2408.767,362.77067,
2405.856,354.39769,
2402.946,345.8454,
2400.035,350.79812,
2397.124,360.6631,
2394.214,359.9464,
2391.303,354.88957,
2388.393,352.97211,
2385.482,332.05748,
2382.571,368.73498,
2379.661,362.83683,
2376.750,388.16016,
2373.840,376.29377,
2370.929,382.91336,
2368.019,387.10901,
2365.108,376.58115,
2362.197,384.97263,
2359.287,386.60501,
2356.376,401.97182,
2353.466,395.21234,
2350.555,393.18504,
2347.645,403.28873,
2344.734,416.09218,
2341.823,396.36483,
2338.913,404.62535,
2336.002,397.52863,
2333.092,398.483,
2330.181,403.84395,
2327.270,391.0451,
2324.360,410.04249,
2321.449,399.40138,
2318.539,417.5107,
2315.628,411.02558,
2312.718,431.84803,
2309.807,393.54651,
2306.896,408.05478,
2303.986,413.33752,
2301.075,407.19144,
2298.165,427.97138,
2295.254,444.6984,
2292.344,432.95025,
2289.433,428.04637,
2286.522,441.02678,
2283.612,419.22828,
2280.701,417.65469,
2277.791,427.92172,
2274.880,451.71197,
2271.969,451.8107,
2269.059,436.97275,
2266.148,454.88648,
2263.238,441.40928,
2260.327,460.58615,
2257.417,454.52556,
2254.506,465.54137,
2251.595,469.72736,
2248.685,459,
2245.774,478.82383,
2242.864,460.12967,
2239.953,461.77242,
2237.043,464.89642,
2234.132,478.15841,
2231.221,488.26359,
2228.311,476.08249,
2225.400,485.53476,
2222.490,497.31582,
2219.579,469.36762,
2216.669,480.45946,
2213.758,477.9111,
2210.847,478.44835,
2207.937,516.45272,
2205.026,533.77814,
2202.116,513.24949,
2199.205,499.08636,
2196.294,501.76806,
2193.384,498.07852,
2190.473,501.28404,
2187.563,546.93716,
2184.652,533.84939,
2181.742,534.77295,
2178.831,536.80155,
2175.920,549.73771,
2173.010,561.72506,
2170.099,613.99407,
2167.189,612.27267,
2164.278,649.41307,
2161.368,656.85583,
2158.457,694.59068,
2155.546,731.98369,
2152.636,782.74991,
2149.725,833.61742,
2146.815,846.79979,
2143.904,889.90705,
2140.993,898.61915,
2138.083,883.03641,
2135.172,890.61336,
2132.262,910.79753,
2129.351,924.20341,
2126.441,920.233,
2123.530,887.87654,
2120.619,866.1289,
2117.709,796.94525,
2114.798,769.52665,
2111.888,714.60072,
2108.977,695.18543,
2106.067,676.31569,
2103.156,631.40742,
2100.245,619.98934,
2097.335,600.83246,
2094.424,583.80325,
2091.514,573.56446,
2088.603,564.37326,
2085.692,568.18215,
2082.782,564.75906,
2079.871,558.07118,
2076.961,582.2564,
2074.050,560.58182,
2071.140,570.55184,
2068.229,561.36719,
2065.318,553.938,
2062.408,552.44705,
2059.497,543.97617,
2056.587,539.54645,
2053.676,537.73353,
2050.766,529.61585,
2047.855,535.11392,
2044.944,541.66025,
2042.034,547.86112,
2039.123,530.7037,
2036.213,557.27107,
2033.302,552.06511,
2030.391,555.4238,
2027.481,562.92675,
2024.570,528.91526,
2021.660,559.63483,
2018.749,532.29168,
2015.839,558.67782,
2012.928,530.18289,
2010.017,563.85776,
2007.107,549.83738,
2004.196,561.75004,
2001.286,579.85511,
1998.375,542.55215,
1995.465,546.81161,
1992.554,556.50585,
1989.643,539.62215,
1986.733,550.03684,
1983.822,535.53914,
1980.912,547.35614,
1978.001,534.68646,
1975.090,544.36032,
1972.180,560,
1969.269,561.13219,
1966.359,546.43223,
1963.448,534.34742,
1960.538,542.73812,
1957.627,551.24149,
1954.716,527.71817,
1951.806,536.39742,
1948.895,537.87864,
1945.985,503.55719,
1943.074,532.43912,
1940.164,531,
1937.253,524.54362,
1934.342,504.90589,
1931.432,498.6183,
1928.521,518.23489,
1925.611,484.47447,
1922.700,493.32596,
1919.790,501.72252,
1916.879,497.34875,
1913.968,502.99262,
1911.058,520.27327,
1908.147,510.53139,
1905.237,514.39706,
1902.326,521.01036,
1899.415,518.92559,
1896.505,491.09042,
1893.594,509.90248,
1890.684,505.44456,
1887.773,505.17201,
1884.863,508.70843,
1881.952,522.13482,
1879.041,524.70457,
1876.131,509.96994,
1873.220,489.5663,
1870.310,499.99549,
1867.399,553.15234,
1864.489,510.46732,
1861.578,519.94521,
1858.667,506.30834,
1855.757,541.20644,
1852.846,536.26153,
1849.936,531.51253,
1847.025,514.17274,
1844.114,529.39058,
1841.204,533.76573,
1838.293,543.49751,
1835.383,545,
1832.472,547.96522,
1829.562,527.64192,
1826.651,536.1971,
1823.740,536.53638,
1820.830,541.48826,
1817.919,553.77252,
1815.009,548.29389,
1812.098,579.31494,
1809.188,552.04658,
1806.277,538.26558,
1803.366,533.183,
1800.456,546.3082,
1797.545,586.18439,
1794.635,585.41996,
1791.724,568.82523,
1788.813,575.40309,
1785.903,588.51742,
1782.992,593.83008,
1780.082,584.83282,
1777.171,605.00107,
1774.261,603.8899,
1771.350,607.66401,
1768.439,607.42279,
1765.529,599.18524,
1762.618,616.16874,
1759.708,609.46738,
1756.797,623.06061,
1753.887,611.17784,
1750.976,594.9483,
1748.065,630.79416,
1745.155,607.92934,
1742.244,624.71461,
1739.334,628.88236,
1736.423,609.69534,
1733.512,612.27644,
1730.602,616.49603,
1727.691,667.6656,
1724.781,625.57991,
1721.870,623.68103,
1718.960,612.19982,
1716.049,629.97437,
1713.138,634.855,
1710.228,647.18416,
1707.317,671.99886,
1704.407,666.01603,
1701.496,686.87715,
1698.586,693.61992,
1695.675,663.12162,
1692.764,673.30738,
1689.854,700.78742,
1686.943,709.73019,
1684.033,713.90066,
1681.122,695.32286,
1678.211,728.67641,
1675.301,712.05242,
1672.390,766.91925,
1669.480,740.28077,
1666.569,774.45408,
1663.659,732.45731,
1660.748,761.02193,
1657.837,812.73756,
1654.927,800.67199,
1652.016,788.19065,
1649.106,837.17509,
1646.195,883.92807,
1643.285,881.52409,
1640.374,904,
1637.463,904.36029,
1634.553,924.17733,
1631.642,936.86863,
1628.732,1016.0711,
1625.821,1028.0301,
1622.911,1073.7408,
1620.000,1193.4756,
1617.089,1277.3284,
1614.179,1325.6464,
1611.268,1405.9514,
1608.358,1489.0669,
1605.447,1518.4573,
1602.536,1618.78,
1599.626,1597.4821,
1596.715,1601.3532,
1593.805,1559.9664,
1590.894,1591.1075,
1587.984,1537.9718,
1585.073,1540.9114,
1582.162,1505.4301,
1579.252,1480.8157,
1576.341,1425.7319,
1573.431,1396.5533,
1570.520,1388.1781,
1567.610,1395.9413,
1564.699,1394.6498,
1561.788,1369.0566,
1558.878,1368.5587,
1555.967,1347.2341,
1553.057,1332.7242,
1550.146,1292.6692,
1547.235,1268,
1544.325,1211.4468,
1541.414,1218.7654,
1538.504,1223.9786,
1535.593,1141.2562,
1532.683,1127.8328,
1529.772,1142.4004,
1526.861,1112.0349,
1523.951,1113.9183,
1521.040,1097.204,
1518.130,1080.5219,
1515.219,1057.5605,
1512.309,1038.2748,
1509.398,1026.1331,
1506.487,1020.3303,
1503.577,1051.3871,
1500.666,1010.5377,
1497.756,994.50891,
1494.845,1036.2796,
1491.934,1018.8551,
1489.024,974.58044,
1486.113,1002.6709,
1483.203,1011.2172,
1480.292,981.45359,
1477.382,954.98555,
1474.471,939.25669,
1471.560,973.73464,
1468.650,972.96798,
1465.739,944.86383,
1462.829,936.5809,
1459.918,934.02758,
1457.008,916.29213,
1454.097,883.1272,
1451.186,871.22824,
1448.276,882.94134,
1445.365,877.60742,
1442.455,879.36008,
1439.544,862.21248,
1436.633,823.76762,
1433.723,856.85727,
1430.812,894.67528,
1427.902,854.66868,
1424.991,924.8031,
1422.081,850.8494,
1419.170,884.61084,
1416.259,837.53584,
1413.349,826.51048,
1410.438,842.39515,
1407.528,884.40579,
1404.617,867.01092,
1401.707,819.27244,
1398.796,805.19229,
1395.885,823.81507,
1392.975,835.97892,
1390.064,843.54148,
1387.154,870.24178,
1384.243,821.65696,
1381.332,866.67202,
1378.422,855.56525,
1375.511,847.13423,
1372.601,887.54909,
1369.690,931.28946,
1366.780,920.57523,
1363.869,958.13567,
1360.958,999.08822,
1358.048,1038.1057,
1355.137,1063.3596,
1352.227,1078.2353,
1349.316,1099.6649,
1346.406,1123.4283,
1343.495,1134.2526,
1340.584,1136.464,
1337.674,1163.2177,
1334.763,1214.9294,
1331.853,1213.075,
1328.942,1261.9205,
1326.032,1261.475,
1323.121,1346.6928,
1320.210,1378.9978,
1317.300,1391.8046,
1314.389,1397.9444,
1311.479,1444.0579,
1308.568,1514.2614,
1305.657,1561.0292,
1302.747,1652.3007,
1299.836,1688.2629,
1296.926,1683.0427,
1294.015,1683.9621,
1291.105,1735.952,
1288.194,1814.8869,
1285.283,1850.1841,
1282.373,1882.3124,
1279.462,1920.0584,
1276.552,1941.3228,
1273.641,1960.7027,
1270.731,2023.2836,
1267.820,2096.1589,
1264.909,2053.0552,
1261.999,2068.0666,
1259.088,2069.8908,
1256.178,1983.4979,
1253.267,1923.7355,
1250.356,1895.1004,
1247.446,1855.1433,
1244.535,1806.2322,
1241.625,1759.4112,
1238.714,1697.2411,
1235.804,1629.4029,
1232.893,1635.379,
1229.982,1615.0682,
1227.072,1558.0335,
1224.161,1506.0913,
1221.251,1490.2994,
1218.340,1449.7791,
1215.430,1422.9441,
1212.519,1419.811,
1209.608,1402.155,
1206.698,1378.2556,
1203.787,1408.0804,
1200.877,1377.7273,
1197.966,1405.6013,
1195.055,1505.1236,
1192.145,1526.5081,
1189.234,1559.7908,
1186.324,1594.4562,
1183.413,1584.7106,
1180.503,1554,
1177.592,1555.1616,
1174.681,1556.9726,
1171.771,1543.0618,
1168.860,1545.7411,
1165.950,1481.4968,
1163.039,1491.1425,
1160.129,1510.8478,
1157.218,1499.2128,
1154.307,1487.7915,
1151.397,1496.5685,
1148.486,1491.343,
1145.576,1531.805,
1142.665,1504.2797,
1139.754,1478.4048,
1136.844,1495.4097,
1133.933,1481.5398,
1131.023,1476.8024,
1128.112,1503.9266,
1125.202,1522.4783,
1122.291,1505.7601,
1119.380,1531.9047,
1116.470,1522.1969,
1113.559,1536.465,
1110.649,1529.2128,
1107.738,1507.9971,
1104.828,1498.3288,
1101.917,1492.3487,
1099.006,1468.9278,
1096.096,1478.1613,
1093.185,1480.7953,
1090.275,1488.2834,
1087.364,1488.6278,
1084.453,1499.8117,
1081.543,1513.8204,
1078.632,1523.4473,
1075.722,1529.6836,
1072.811,1526.8544,
1069.901,1567.0244,
1066.990,1570.8083,
1064.079,1579.8467,
1061.169,1582.8954,
1058.258,1593.0106,
1055.348,1614.1731,
1052.437,1623.7524,
1049.527,1596.5636,
1046.616,1585.2689,
1043.705,1606.3522,
1040.795,1604.6994,
1037.884,1603.5402,
1034.974,1598.0619,
1032.063,1590.392,
1029.153,1614.1039,
1026.242,1614.9688,
1023.331,1642.4982,
1020.421,1664.7304,
1017.510,1672,
1014.600,1698.6446,
1011.689,1741.8417,
1008.778,1762.2254,
1005.868,1780.7838,
1002.957,1756.6939,
1000.047,1857.832,
997.136,1887.0155,
994.226,1881.7846,
991.315,1881.2599,
988.404,1868.5148,
985.494,1834.6356,
982.583,1818.361,
979.673,1819.6582,
976.762,1811.0193,
973.852,1802.674,
970.941,1801.8891,
968.030,1808.2082,
965.120,1832.2076,
962.209,1881.6551,
959.299,1876.5433,
956.388,1862.6005,
953.477,1845.7243,
950.567,1848.7768,
947.656,1892.9838,
944.746,1847.1078,
941.835,1862.0061,
938.925,1820.5945,
936.014,1819.7622,
933.103,1831.7603,
930.193,1813.9988,
927.282,1817.4042,
924.372,1806.4113,
921.461,1790.272,
918.551,1758.2771,
915.640,1718.6027,
912.729,1688.3164,
909.819,1681.4448,
906.908,1684.8145,
903.998,1676.251,
901.087,1705.8253,
898.176,1722.0912,
895.266,1721.587,
892.355,1727.9841,
889.445,1743.9302,
886.534,1744.8349,
883.624,1760.4751,
880.713,1785.3521,
877.802,1795.0522,
874.892,1769.3146,
871.981,1713.2762,
869.071,1724.972,
866.160,1700.0916,
863.250,1721.549,
860.339,1763.8132,
857.428,1782.8956,
854.518,1773.5667,
851.607,1758.5895,
848.697,1731.9264,
845.786,1725.1517,
842.875,1757.663,
839.965,1807.4077,
837.054,1791.1768,
834.144,1806.9231,
831.233,1780.0022,
828.323,1779.8372,
825.412,1786.629,
822.501,1773.0214,
819.591,1795.3342,
816.680,1805.6154,
813.770,1780.4339,
810.859,1760.3901,
807.949,1748.8341,
805.038,1729.9004,
802.127,1729.0773,
799.217,1702.9113,
796.306,1663.3511,
793.396,1648.1757,
790.485,1660.7894,
787.574,1659.6263,
784.664,1649.785,
781.753,1663.4326,
778.843,1677.8612,
775.932,1687.1605,
773.022,1692.2536,
770.111,1693.8888,
767.200,1690.1934,
764.290,1678.0203,
761.379,1683.7854,
758.469,1709.3946,
755.558,1724.2008,
752.648,1663.9202,
749.737,1672.8893,
746.826,1690.5271,
743.916,1702.7468,
741.005,1715.7336,
738.095,1722.2287,
735.184,1660.0747,
732.274,1601.3426,
729.363,1578.3971,
726.452,1597.97,
723.542,1625.4894,
720.631,1633.8809,
717.721,1629.6987,
714.810,1634.1363,
711.899,1649,
708.989,1649,
706.078,1669.0326,
703.168,1669.1422,
700.257,1655.2731,
697.347,1633.0442,
694.436,1608.6547,
691.525,1632.7688,
688.615,1611.5857,
685.704,1607.6557,
682.794,1633.0637,
679.883,1665.3152,
676.973,1650.0891,
674.062,1655.9331,
671.151,1660.5617,
668.241,1661.1912,
665.330,1665.2269,
662.420,1670.0193,
659.509,1664.6507,
656.598,1683.9357,
653.688,1711.0094,
650.777,1699.8389,
647.867,1665.5968,
644.956,1649.951,
642.046,1649.5606,
639.135,1656.6288,
636.224,1659.0358,
633.314,1666.1813,
630.403,1711.1584,
627.493,1719.8759,
624.582,1690.4143,
621.672,1710.2141,
618.761,1682.1223,
615.850,1675.7549,
612.940,1689.6122,
610.029,1709.1065,
607.119,1691.7346,
604.208,1698.5202,
601.297,1712.4689,
598.387,1726.4396,
595.476,1734.7772,
592.566,1732.416,
589.655,1706.0844,
586.745,1682.0187,
583.834,1684.1513,
580.923,1737.9337,
578.013,1726.9474,
575.102,1687.8639,
572.192,1679.9361,
569.281,1718.0774,
566.371,1740.7735,
563.460,1728.1852,
560.549,1737.1056,
557.639,1750.0458,
554.728,1741.7044,
551.818,1737.0225,
548.907,1718.327,
545.996,1714.7758,
543.086,1728.3421,
540.175,1734.5713,
537.265,1740.7942,
534.354,1743,
531.444,1739.6561,
528.533,1733.2625,
525.622,1765.0763,
522.712,1768.3595,
519.801,1769.8188,
516.891,1789.6159,
513.980,1856.9797,
511.070,1824.2609,
508.159,1827.1027,
505.248,1858.5152,
502.338,1890.7229,
499.427,1915.4216,
496.517,1925.3939,
493.606,1939.1042,
490.695,1955.7578,
487.785,1918.038,
484.874,1910.7076,
481.964,1929.5181,
479.053,1950.9327,
476.143,1925.5899,
473.232,1978.6747,
470.321,1987.8356,
467.411,1951.4468,
464.500,1883.4739,
461.590,1941.6701,
458.679,1978.9112,
455.769,2005.1369,
452.858,2025.8749,
449.947,2034.2781,
447.037,2026.8986,
444.126,2029.503,
441.216,2044.6614,
438.305,2048.4711,
435.395,2058.8345,
432.484,2063.5832,
429.573,2058.2074,
426.663,2037.6836,
423.752,1984.391,
420.842,1956.9765,
417.931,1954.0166,
415.020,1964.6336,
412.110,2035.2349,
409.199,2118.7016,
406.289,2168.4229,
403.378,2136.1153,
400.468,2170.135,
397.557,2157.3491,
394.646,2154.1235,
391.736,2204.503,
388.825,2157.7407,
385.915,2165.8199,
383.004,2186.7133,
380.094,2190.5009,
377.183,2180.7187,
374.272,2190.4839,
371.362,2210.1241,
368.451,2233.2766,
365.541,2254.2916,
362.630,2252.8989,
359.719,2262.6863,
356.809,2298.5048,
353.898,2273.7945,
350.988,2264.2876,
348.077,2262.2904,
345.167,2265.1191,
342.256,2306.9549,
339.345,2267.9825,
336.435,2265.4716,
333.524,2375.0605,
330.614,2345.2543,
327.703,2333.9464,
324.793,2332.7734,
321.882,2334.9856,
318.971,2329.038,
316.061,2356.2988,
313.150,2382.15,
310.240,2366.5656,
307.329,2430.3173,
304.418,2415.8761,
301.508,2374.1046,
298.597,2397.0576,
295.687,2407.1269,
292.776,2443.5002,
289.866,2498.4971,
286.955,2543.5594,
284.044,2578.4625,
281.134,2584.2617,
278.223,2569.1256,
275.313,2590.4944,
272.402,2603.7135,
269.492,2621.7236,
266.581,2648.051,
263.670,2662.7546,
260.760,2687.8953,
257.849,2703.6638,
254.939,2694.1234,
252.028,2711.3723,
249.117,2716.1727,
246.207,2735.5928,
243.296,2819.045,
240.386,2726.7863,
237.475,2689.9042,
234.565,2717.5752,
231.654,2721.2271,
228.743,2716.8217,
225.833,2709.3412,
222.922,2699.0635,
220.012,2657.5358,
217.101,2649.3979,
214.191,2664.6167,
211.280,2696.625,
208.369,2713.8019,
205.459,2695.8472,
202.548,2661.2591,
199.638,2680.1259,
196.727,2711.6584,
193.816,2736.5153,
190.906,2747.8126,
187.995,2770.9814,
185.085,2785.62,
182.174,2799.8559,
179.264,2825.1527,
176.353,2842.7379,
173.442,2862.9644,
170.532,2884.9241,
167.621,2892.8548,
164.711,2823.5228,
161.800,2717.22,
158.890,2594.8663,
155.979,2497.9333,
153.068,2300.6114,
150.158,2024.3397,
147.247,1750.0819,
144.337,1459.2526,
141.426,1156.0627,
138.516,840.63059,
135.605,612.58226,
132.694,424.21777,
129.784,274.48824,
126.873,174.37006,
123.963,123.27021,
121.052,89.23501,
118.141,62.106734,
115.231,49.920304,
112.320,39.916369,
109.410,32.181868,
106.499,27.908937,
103.589,29.801272,
100.678,29.012161,
97.767,21.191848,
94.857,27.92989,
91.946,26.968891,
89.036,20.096817,
86.125,14.423175,
83.215,8.7526372,
80.304,6.9154615,
77.393,12.580821,
74.483,14.31027,
71.572,12.825887,
68.662,9.2078025,
65.751,11.327156,
62.840,10.073192,
59.930,8.5618586,
57.019,10.677105,
54.109,10.402839,
51.198,10.904828,
48.288,13.005662,
45.377,13.709041,
42.466,13.175561,
39.556,12.460474,
36.645,15.269235,
33.735,14.442255,
30.824,12.116452,
27.914,9.3117511,
25.003,9.6226375,
22.092,14.197759,
19.182,23.823783,
16.271,49.005428,
13.361,179.53698,
10.450,428.53188,
7.539,913.86106,
4.629,1344.1154,
1.718,1487.0255,
-1.192,1024.1215,
-4.103,604.04432,
-7.013,259.42379,
-9.924,4,
