,PLE80A~1,
Wavenumbers [1/cm],Intensity,
3014.167,-2.75,
3011.256,1.3999248,
3008.346,80.768755,
3005.435,68.86484,
3002.525,58.324944,
2999.614,78.824018,
2996.704,79.020101,
2993.793,77.63076,
2990.882,76.639295,
2987.972,81.265135,
2985.061,78.929796,
2982.151,84.579422,
2979.240,91.883078,
2976.329,103.01775,
2973.419,91.619191,
2970.508,101.26662,
2967.598,102.15442,
2964.687,97.384511,
2961.777,122.33576,
2958.866,102.25,
2955.955,93.902666,
2953.045,109.26791,
2950.134,117.03717,
2947.224,121.25,
2944.313,119.45228,
2941.403,116.38093,
2938.492,110.55895,
2935.581,119.13712,
2932.671,112.69208,
2929.760,114.16152,
2926.850,126.15263,
2923.939,123.32944,
2921.028,132.18536,
2918.118,128.5296,
2915.207,126.42723,
2912.297,138.20346,
2909.386,128.81206,
2906.476,130.98593,
2903.565,121.83074,
2900.654,122.69691,
2897.744,119.14942,
2894.833,106.714,
2891.923,95.384598,
2889.012,112.29624,
2886.102,93.625679,
2883.191,68.271712,
2880.280,5.4461413,
2877.370,-111.90681,
2874.459,-151.82525,
2871.549,-42.328052,
2868.638,52.390174,
2865.727,93.753816,
2862.817,95.320865,
2859.906,113.70584,
2856.996,120.73415,
2854.085,133.05254,
2851.175,135.08432,
2848.264,134.4705,
2845.353,140.14216,
2842.443,132.05557,
2839.532,130.35446,
2836.622,130.85677,
2833.711,132.67229,
2830.801,133.04853,
2827.890,139.16608,
2824.979,140.74397,
2822.069,144.38647,
2819.158,152.44946,
2816.248,146.25,
2813.337,154.8683,
2810.427,139.11777,
2807.516,150.66719,
2804.605,147.68029,
2801.695,146.46051,
2798.784,142.17608,
2795.874,154.83049,
2792.963,155.89309,
2790.052,137.25515,
2787.142,146.43408,
2784.231,137.21739,
2781.321,155.18138,
2778.410,142.15482,
2775.500,147.01586,
2772.589,132.94266,
2769.678,145.21242,
2766.768,145.94514,
2763.857,145.03998,
2760.947,155.28783,
2758.036,156.16717,
2755.126,157.29274,
2752.215,160.14533,
2749.304,156.48381,
2746.394,155.76816,
2743.483,150.25,
2740.573,144.0398,
2737.662,150.59023,
2734.751,142.41039,
2731.841,152.76466,
2728.930,158.59742,
2726.020,164.9184,
2723.109,168.02317,
2720.199,164.97496,
2717.288,172.88139,
2714.377,159.44606,
2711.467,169.06978,
2708.556,167.89884,
2705.646,170.40493,
2702.735,171.57474,
2699.825,168.63002,
2696.914,154.82088,
2694.003,170.53455,
2691.093,176.5713,
2688.182,170.95889,
2685.272,180.34674,
2682.361,152.19651,
2679.450,175.41874,
2676.540,157.41259,
2673.629,168.23653,
2670.719,161.40341,
2667.808,178.03411,
2664.898,177.393,
2661.987,169.25,
2659.076,166.63147,
2656.166,162.66989,
2653.255,173.10034,
2650.345,174.11388,
2647.434,179.19313,
2644.524,183.07251,
2641.613,184.22172,
2638.702,172.51828,
2635.792,174.40653,
2632.881,173.98211,
2629.971,193.57226,
2627.060,176.5825,
2624.149,178.19688,
2621.239,179.01334,
2618.328,173.60639,
2615.418,199.60454,
2612.507,188.38835,
2609.597,193.60729,
2606.686,195.18572,
2603.775,184.8135,
2600.865,184.01788,
2597.954,177.48337,
2595.044,172.49181,
2592.133,179.79763,
2589.223,201.56371,
2586.312,197.5917,
2583.401,197.00547,
2580.491,200.05768,
2577.580,198.26485,
2574.670,206.69653,
2571.759,196.44179,
2568.848,194.18925,
2565.938,204.77384,
2563.027,199.51819,
2560.117,200.79206,
2557.206,219.42712,
2554.296,204.90675,
2551.385,202.812,
2548.474,195.91654,
2545.564,205.83848,
2542.653,218.33389,
2539.743,207.96565,
2536.832,200.82197,
2533.922,204.43923,
2531.011,212.40033,
2528.100,212.91205,
2525.190,227.78402,
2522.279,210.71898,
2519.369,217.23131,
2516.458,215.25354,
2513.548,200.64117,
2510.637,213.6189,
2507.726,214.87824,
2504.816,213.12599,
2501.905,212.75732,
2498.995,196.38466,
2496.084,215.78311,
2493.173,231.40828,
2490.263,233.27259,
2487.352,216.16653,
2484.442,225.64183,
2481.531,235.29274,
2478.621,244.35436,
2475.710,199.38035,
2472.799,216.9899,
2469.889,231.36914,
2466.978,238.47686,
2464.068,247.7421,
2461.157,224.94493,
2458.247,228.99992,
2455.336,244.3107,
2452.425,231.3962,
2449.515,248.37266,
2446.604,248.1924,
2443.694,239.85442,
2440.783,236.86937,
2437.872,244.70303,
2434.962,235.50345,
2432.051,258.05261,
2429.141,244.89733,
2426.230,237.18481,
2423.320,260.42179,
2420.409,248.65378,
2417.498,256.04495,
2414.588,260.51995,
2411.677,248.74798,
2408.767,233.22638,
2405.856,239.44517,
2402.946,253.25,
2400.035,231.67252,
2397.124,264.68851,
2394.214,255.38401,
2391.303,247.39363,
2388.393,231.33368,
2385.482,223.33812,
2382.571,214.61749,
2379.661,219.85432,
2376.750,262.82628,
2373.840,259.48443,
2370.929,270.09838,
2368.019,251.80292,
2365.108,275.29712,
2362.197,270.44453,
2359.287,259.27507,
2356.376,264.23591,
2353.466,272.49319,
2350.555,268.75527,
2347.645,282.02616,
2344.734,287.97812,
2341.823,282.36608,
2338.913,276.76342,
2336.002,277.48673,
2333.092,272.90562,
2330.181,263.81263,
2327.270,278.58994,
2324.360,291.88919,
2321.449,274.77382,
2318.539,282.20718,
2315.628,291.40908,
2312.718,297.13326,
2309.807,283.38663,
2306.896,286.76174,
2303.986,282.11355,
2301.075,273.3351,
2298.165,292.80802,
2295.254,311.92685,
2292.344,294.98861,
2289.433,289.25773,
2286.522,295.8705,
2283.612,299.55995,
2280.701,294.92265,
2277.791,313.16985,
2274.880,314.03195,
2271.969,314.57921,
2269.059,304.83584,
2266.148,315.08639,
2263.238,308.25387,
2260.327,298.87077,
2257.417,311.75722,
2254.506,329.89104,
2251.595,332.39547,
2248.685,342.03457,
2245.774,328.22833,
2242.864,310.7313,
2239.953,307.80164,
2237.043,324.41893,
2234.132,324.04741,
2231.221,320.11821,
2228.311,328.81829,
2225.400,345.39073,
2222.490,345.05119,
2219.579,331.48141,
2216.669,342.28339,
2213.758,343.07746,
2210.847,348.05604,
2207.937,355.92426,
2205.026,347.13834,
2202.116,363.03662,
2199.205,369.78718,
2196.294,364.44803,
2193.384,368.74952,
2190.473,358.80634,
2187.563,381.18716,
2184.652,371.56346,
2181.742,389.36353,
2178.831,389.00876,
2175.920,398.24454,
2173.010,403.97506,
2170.099,436.31301,
2167.189,439.25,
2164.278,440.86407,
2161.368,467.96215,
2158.457,510.13186,
2155.546,521.26445,
2152.636,564.3031,
2149.725,573.25672,
2146.815,591.58262,
2143.904,596.0641,
2140.993,624.66277,
2138.083,627.04017,
2135.172,651.35076,
2132.262,648.6382,
2129.351,631.59469,
2126.441,646.33745,
2123.530,630.09286,
2120.619,607.85586,
2117.709,547.07569,
2114.798,525.4154,
2111.888,510.85072,
2108.977,487.62086,
2106.067,460.49867,
2103.156,441.81214,
2100.245,427.24435,
2097.335,417.88874,
2094.424,412.61716,
2091.514,403.89247,
2088.603,389.95973,
2085.692,382.3429,
2082.782,397.85234,
2079.871,395.67824,
2076.961,404.53964,
2074.050,415.73485,
2071.140,420.90552,
2068.229,396.88933,
2065.318,389.03974,
2062.408,396.03819,
2059.497,394.61902,
2056.587,377.15709,
2053.676,379.1497,
2050.766,372.86585,
2047.855,364.04741,
2044.944,394.84134,
2042.034,414.69504,
2039.123,401.54966,
2036.213,392.05886,
2033.302,382.61959,
2030.391,381.89405,
2027.481,397.87181,
2024.570,374.59361,
2021.660,398.41699,
2018.749,405.18627,
2015.839,380.40223,
2012.928,396.77853,
2010.017,401.02958,
2007.107,396.01823,
2004.196,396.13093,
2001.286,394.87544,
1998.375,386.11614,
1995.465,401.70178,
1992.554,404.62061,
1989.643,394.59564,
1986.733,381.71491,
1983.822,374.78914,
1980.912,387.06162,
1978.001,378.13126,
1975.090,383.44542,
1972.180,383.80186,
1969.269,376.58906,
1966.359,383.92583,
1963.448,401.20773,
1960.538,414.98812,
1957.627,408.33358,
1954.716,385.88199,
1951.806,378.84614,
1948.895,384.63875,
1945.985,349.10948,
1943.074,360.81088,
1940.164,366.8751,
1937.253,376.9717,
1934.342,367.65161,
1931.432,370.10489,
1928.521,388.04275,
1925.611,376.39302,
1922.700,358.37846,
1919.790,364.72388,
1916.879,370.90125,
1913.968,382.23647,
1911.058,369.39114,
1908.147,359.10987,
1905.237,373.23531,
1902.326,376.23964,
1899.415,344.86339,
1896.505,324.1297,
1893.594,352.24697,
1890.684,363.9297,
1887.773,382.53415,
1884.863,402.45501,
1881.952,386.62771,
1879.041,374.22404,
1876.131,366.73497,
1873.220,347.8163,
1870.310,347.1065,
1867.399,401.37035,
1864.489,376.49619,
1861.578,405.00841,
1858.667,378.1153,
1855.757,355.62351,
1852.846,383.74231,
1849.936,370.48324,
1847.025,368.24267,
1844.114,404.87119,
1841.204,410.70105,
1838.293,390.78409,
1835.383,383.91249,
1832.472,379.23783,
1829.562,379.10964,
1826.651,391.404,
1823.740,384.78638,
1820.830,407.48645,
1817.919,376.15993,
1815.009,404.06806,
1812.098,412.04527,
1809.188,393.49035,
1806.277,357.04675,
1803.366,395.616,
1800.456,416.64547,
1797.545,408.83143,
1794.635,431.02495,
1791.724,406.77431,
1788.813,396.45283,
1785.903,403.37404,
1782.992,390.81183,
1780.082,353.36668,
1777.171,294.91006,
1774.261,290.69041,
1771.350,365.82502,
1768.439,413.90785,
1765.529,414.07135,
1762.618,436.1825,
1759.708,436.71738,
1756.797,443.85606,
1753.887,458.58382,
1750.976,447.14987,
1748.065,465.97196,
1745.155,430.32135,
1742.244,425.73546,
1739.334,458.42176,
1736.423,443.93414,
1733.512,456.07933,
1730.602,493.42266,
1727.691,513.22959,
1724.781,480.06748,
1721.870,461.39757,
1718.960,466.65009,
1716.049,488.38539,
1713.138,484.55504,
1710.228,459.75198,
1707.317,511.09343,
1704.407,484.11091,
1701.496,479.33845,
1698.586,473.70609,
1695.675,528.45681,
1692.764,497.22129,
1689.854,500.99016,
1686.943,510.91274,
1684.033,521.9768,
1681.122,500.62383,
1678.211,541.85027,
1675.301,525.30242,
1672.390,613.14233,
1669.480,577.05747,
1666.569,553.59279,
1663.659,580.13567,
1660.748,573.90558,
1657.837,607.38122,
1654.927,613.27343,
1652.016,614.3715,
1649.106,620.32717,
1646.195,663.51374,
1643.285,674.15885,
1640.374,670.43815,
1637.463,679.57426,
1634.553,697.39778,
1631.642,707.73861,
1628.732,752.34481,
1625.821,768.28402,
1622.911,819.95697,
1620.000,864.68306,
1617.089,913.27487,
1614.179,968.67074,
1611.268,1003.9488,
1608.358,1053.862,
1605.447,1108.1076,
1602.536,1131.7515,
1599.626,1127.7304,
1596.715,1151.7552,
1593.805,1116.6881,
1590.894,1098.1593,
1587.984,1108.3753,
1585.073,1134.9237,
1582.162,1095.8359,
1579.252,1060.2461,
1576.341,1036.6266,
1573.431,997.00716,
1570.520,1008.6526,
1567.610,1005.5636,
1564.699,1019.6507,
1561.788,982.58845,
1558.878,965.61553,
1555.967,990.03393,
1553.057,942.92302,
1550.146,905.56274,
1547.235,918.59849,
1544.325,915.67724,
1541.414,882.5676,
1538.504,867.36042,
1535.593,846.41736,
1532.683,852.86699,
1529.772,866.23789,
1526.861,814.74289,
1523.951,782.03191,
1521.040,783.18455,
1518.130,791.03287,
1515.219,766.80996,
1512.309,767.7545,
1509.398,762.16832,
1506.487,753.95043,
1503.577,774.845,
1500.666,721.1454,
1497.756,732.598,
1494.845,783.08882,
1491.934,731.31614,
1489.024,751.52849,
1486.113,747.61392,
1483.203,757.90801,
1480.292,700.70271,
1477.382,690.25,
1474.471,712.50399,
1471.560,705.46234,
1468.650,708.44928,
1465.739,713.53098,
1462.829,690.97412,
1459.918,679.66993,
1457.008,683.7577,
1454.097,685.17432,
1451.186,664.20938,
1448.276,636.20175,
1445.365,638.67812,
1442.455,654.29561,
1439.544,692.07826,
1436.633,630.99776,
1433.723,643.98566,
1430.812,678.35824,
1427.902,691.57351,
1424.991,663.14063,
1422.081,645.73541,
1419.170,644.25,
1416.259,639.38962,
1413.349,596.71174,
1410.438,618.93876,
1407.528,663.21838,
1404.617,651.06784,
1401.707,616.41167,
1398.796,632.04363,
1395.885,653.08849,
1392.975,637.60418,
1390.064,642.95895,
1387.154,640.93134,
1384.243,598.28467,
1381.332,609.11526,
1378.422,656.73305,
1375.511,666.10086,
1372.601,708.64224,
1369.690,701.10611,
1366.780,696.08186,
1363.869,727.94147,
1360.958,751.47368,
1358.048,759.02994,
1355.137,793.89378,
1352.227,818.30225,
1349.316,827.96965,
1346.406,851.37619,
1343.495,837.02872,
1340.584,818.67812,
1337.674,857.57648,
1334.763,934.72072,
1331.853,920.81225,
1328.942,957.60749,
1326.032,942.6751,
1323.121,964.92472,
1320.210,1015.5371,
1317.300,1018.543,
1314.389,1026.2921,
1311.479,1046.1238,
1308.568,1059.4625,
1305.657,1105.6933,
1302.747,1177.7529,
1299.836,1211.5645,
1296.926,1186.8737,
1294.015,1221.808,
1291.105,1243.5025,
1288.194,1264.6211,
1285.283,1331.5423,
1282.373,1339.1641,
1279.462,1352.3084,
1276.552,1392.6202,
1273.641,1434.3323,
1270.731,1460.4858,
1267.820,1449.1869,
1264.909,1425.5141,
1261.999,1448.3845,
1259.088,1424.6694,
1256.178,1422.3935,
1253.267,1380.8214,
1250.356,1345.9006,
1247.446,1327.0358,
1244.535,1316.2947,
1241.625,1280.1649,
1238.714,1222.7296,
1235.804,1185.6724,
1232.893,1147.2454,
1229.982,1166.8395,
1227.072,1125.1951,
1224.161,1054.1692,
1221.251,1045.7171,
1218.340,1025.8722,
1215.430,1022.508,
1212.519,1000.2734,
1209.608,978.71627,
1206.698,1005.8033,
1203.787,1014.0289,
1200.877,1017.5256,
1197.966,1005.8366,
1195.055,1047.0592,
1192.145,1096.3252,
1189.234,1125.821,
1186.324,1144.6146,
1183.413,1134.2601,
1180.503,1122.3912,
1177.592,1142.9974,
1174.681,1127.6884,
1171.771,1096.8682,
1168.860,1123.6608,
1165.950,1099.6424,
1163.039,1110.7101,
1160.129,1103.5036,
1157.218,1084.116,
1154.307,1067.5715,
1151.397,1058.5961,
1148.486,1068.5468,
1145.576,1087.0187,
1142.665,1081.6912,
1139.754,1082.0636,
1136.844,1068.9442,
1133.933,1045.6548,
1131.023,1052.6059,
1128.112,1083.1773,
1125.202,1091.0375,
1122.291,1070.5142,
1119.380,1107.4839,
1116.470,1131.3121,
1113.559,1148.1685,
1110.649,1128.0207,
1107.738,1114.7142,
1104.828,1109.6729,
1101.917,1092.5987,
1099.006,1071.4561,
1096.096,1090.4975,
1093.185,1078.2054,
1090.275,1068.348,
1087.364,1086.8337,
1084.453,1097.3749,
1081.543,1117.9699,
1078.632,1131.9678,
1075.722,1114.9605,
1072.811,1144.3407,
1069.901,1089.3253,
1066.990,1141.8332,
1064.079,1172.9434,
1061.169,1167.4425,
1058.258,1152.8621,
1055.348,1155.305,
1052.437,1175.5298,
1049.527,1191.3773,
1046.616,1168.7877,
1043.705,1177.0407,
1040.795,1170.0339,
1037.884,1149.0779,
1034.974,1146.9124,
1032.063,1168.25,
1029.153,1168.25,
1026.242,1168.25,
1023.331,1211.5806,
1020.421,1204.9138,
1017.510,1212.2569,
1014.600,1232.9774,
1011.689,1255.3722,
1008.778,1274.2915,
1005.868,1250.8793,
1002.957,1209.5823,
1000.047,1300.802,
997.136,1344.8852,
994.226,1364.0806,
991.315,1371.5074,
988.404,1341.4677,
985.494,1301.3267,
982.583,1304.7529,
979.673,1336.7108,
976.762,1317.7207,
973.852,1315.6985,
970.941,1338.4717,
968.030,1331.0939,
965.120,1313.386,
962.209,1345.7826,
959.299,1348.417,
956.388,1349.4899,
953.477,1352.4831,
950.567,1351.1129,
947.656,1341.5815,
944.746,1336.4842,
941.835,1363.7837,
938.925,1364.9856,
936.014,1343.5344,
933.103,1328.7809,
930.193,1333.0527,
927.282,1323.1501,
924.372,1302.8556,
921.461,1289.204,
918.551,1268.9839,
915.640,1251.3008,
912.729,1232.7841,
909.819,1207.0301,
906.908,1228.0907,
903.998,1217.3195,
901.087,1221.2516,
898.176,1246.2466,
895.266,1275.2806,
892.355,1289.5065,
889.445,1296.2206,
886.534,1287.9013,
883.624,1304.4165,
880.713,1304.0636,
877.802,1278.9226,
874.892,1219.5699,
871.981,1091.7371,
869.071,1070.0163,
866.160,1086.2588,
863.250,1165.4932,
860.339,1252.5183,
857.428,1287.9368,
854.518,1259.902,
851.607,1213.3061,
848.697,1172.2348,
845.786,1158.2879,
842.875,1197.3508,
839.965,1268.4296,
837.054,1269.8361,
834.144,1322.0475,
831.233,1304.252,
828.323,1309.5383,
825.412,1328.928,
822.501,1324.0797,
819.591,1300.9405,
816.680,1307.4616,
813.770,1279.8044,
810.859,1275.336,
807.949,1283.8085,
805.038,1265.4447,
802.127,1275.3222,
799.217,1260.5968,
796.306,1246.1689,
793.396,1248.9829,
790.485,1251.8258,
787.574,1205.468,
784.664,1211.2087,
781.753,1217.6179,
778.843,1218.7798,
775.932,1231.4473,
773.022,1263.7572,
770.111,1267.0275,
767.200,1252.7851,
764.290,1244.2049,
761.379,1244.0071,
758.469,1247.6222,
755.558,1244.5206,
752.648,1220.0825,
749.737,1253.7646,
746.826,1263.5269,
743.916,1242.594,
741.005,1219.6081,
738.095,1213.9249,
735.184,1163.1958,
732.274,1111.1703,
729.363,1096.3717,
726.452,1137.9907,
723.542,1214.0737,
720.631,1191.4911,
717.721,1203.2996,
714.810,1225.4829,
711.899,1238.9431,
708.989,1246.2054,
706.078,1257.4682,
703.168,1223.2095,
700.257,1207.0889,
697.347,1214.5547,
694.436,1201.621,
691.525,1215.2857,
688.615,1217.6211,
685.704,1209.4795,
682.794,1210.4839,
679.883,1247.4663,
676.973,1252.2745,
674.062,1242.4026,
671.151,1241.0716,
668.241,1236.0523,
665.330,1200.1744,
662.420,1198.5769,
659.509,1216.0281,
656.598,1250.0512,
653.688,1270.8981,
650.777,1236.547,
647.867,1245.3066,
644.956,1198.9563,
642.046,1161.7872,
639.135,1153.5557,
636.224,1162.3415,
633.314,1180.6021,
630.403,1229.5908,
627.493,1248.7278,
624.582,1236.2534,
621.672,1263.1812,
618.761,1265.0099,
615.850,1256.9852,
612.940,1256.3976,
610.029,1269.4337,
607.119,1276.5404,
604.208,1285.0601,
601.297,1285.7574,
598.387,1275.5109,
595.476,1258.4041,
592.566,1281.2291,
589.655,1255.4471,
586.745,1250.0992,
583.834,1268.8613,
580.923,1285.2832,
578.013,1290.7763,
575.102,1277.9103,
572.192,1272.6093,
569.281,1289.28,
566.371,1328.4112,
563.460,1295.5657,
560.549,1287.0719,
557.639,1286.4617,
554.728,1266.1369,
551.818,1280.1826,
548.907,1286.9065,
545.996,1297.0258,
543.086,1314.6184,
540.175,1339.5351,
537.265,1283.3077,
534.354,1267.2703,
531.444,1279.9378,
528.533,1297.25,
525.622,1297.25,
522.712,1308.1716,
519.801,1316.3956,
516.891,1325.1362,
513.980,1359.2052,
511.070,1353.7978,
508.159,1369.8302,
505.248,1387.7449,
502.338,1378.357,
499.427,1416.1768,
496.517,1426.25,
493.606,1443.4111,
490.695,1468.9052,
487.785,1408.8615,
484.874,1396.6651,
481.964,1417.2597,
479.053,1454.1335,
476.143,1478.7083,
473.232,1460.8261,
470.321,1444.005,
467.411,1428.425,
464.500,1411.9288,
461.590,1438.7297,
458.679,1466.6109,
455.769,1490.1814,
452.858,1502.5458,
449.947,1476.5721,
447.037,1479.7446,
444.126,1483.0318,
441.216,1488.3779,
438.305,1540.9512,
435.395,1522.0245,
432.484,1501.1652,
429.573,1483.2624,
426.663,1449.0561,
423.752,1294.2127,
420.842,1159.2904,
417.931,1050.5319,
415.020,956.49546,
412.110,1240.0424,
409.199,1412.2426,
406.289,1471.4269,
403.378,1438.355,
400.468,1469.3508,
397.557,1465.8821,
394.646,1494.7292,
391.736,1607.081,
388.825,1601.8014,
385.915,1575.7691,
383.004,1569.0983,
380.094,1606.4419,
377.183,1610.2043,
374.272,1619.9345,
371.362,1620.1861,
368.451,1605.9855,
365.541,1651.0176,
362.630,1675.8135,
359.719,1678.5548,
356.809,1659.2532,
353.898,1642.7796,
350.988,1662.1194,
348.077,1669.472,
345.167,1638.6663,
342.256,1646.884,
339.345,1658.2844,
336.435,1675.4105,
333.524,1699.9312,
330.614,1721.5407,
327.703,1706.1736,
324.793,1678.0318,
321.882,1657.3095,
318.971,1681.8431,
316.061,1720.0372,
313.150,1740.6262,
310.240,1706.4889,
307.329,1730.9769,
304.418,1744.4417,
301.508,1747.6592,
298.597,1745.438,
295.687,1745.25,
292.776,1768.5835,
289.866,1809.3459,
286.955,1847.7596,
284.044,1840.6,
281.134,1850.2832,
278.223,1883.669,
275.313,1913.8801,
272.402,1884.234,
269.492,1868.3893,
266.581,1889.2515,
263.670,1875.2831,
260.760,1905.2049,
257.849,1954.9838,
254.939,2008.5572,
252.028,1960.7524,
249.117,1952.3002,
246.207,1981.1076,
243.296,2046.2588,
240.386,2022.5594,
237.475,2013.5496,
234.565,2027.7808,
231.654,2043.8492,
228.743,2039.7702,
225.833,2022.6639,
222.922,1998.4243,
220.012,2045.0519,
217.101,2030.3163,
214.191,2006.0254,
211.280,2028.5767,
208.369,2057.1625,
205.459,2063.4627,
202.548,2044.6009,
199.638,1994.5312,
196.727,2051.6673,
193.816,2105.1633,
190.906,2114.5293,
187.995,2122.4936,
185.085,2139.9085,
182.174,2162.3224,
179.264,2184.7281,
176.353,2176.9975,
173.442,2175.6007,
170.532,2185.6022,
167.621,2205.7895,
164.711,2131.8893,
161.800,2016.7497,
158.890,1889.3579,
155.979,1818.8871,
153.068,1698.8421,
150.158,1535.5682,
147.247,1361.1058,
144.337,1104.213,
141.426,848.51792,
138.516,632.73366,
135.605,452.55645,
132.694,306.7776,
129.784,195.84609,
126.873,132.19954,
123.963,90.227423,
121.052,62.300926,
118.141,47.308984,
115.231,38.723156,
112.320,29.742733,
109.410,21.840934,
106.499,19.704469,
103.589,19.810254,
100.678,18.077026,
97.767,12.389526,
94.857,17.100923,
91.946,19.653111,
89.036,19.008123,
86.125,11.206865,
83.215,6.0644779,
80.304,3.9682981,
77.393,6.0928079,
74.483,12.146215,
71.572,13.800592,
68.662,11.111465,
65.751,9.6985628,
62.840,8.286596,
59.930,6.1262828,
57.019,1.8957909,
54.109,5.4301259,
51.198,8.5516093,
48.288,9.2386751,
45.377,7.831919,
42.466,10.959974,
39.556,15.329051,
36.645,9.7115297,
33.735,11.365491,
30.824,12.703791,
27.914,7.7955645,
25.003,12.2311,
22.092,18.479046,
19.182,26.096666,
16.271,51.977801,
13.361,217.34654,
10.450,540.10344,
7.539,1178.3637,
4.629,1694.3183,
1.718,1857.6109,
-1.192,1320.8096,
-4.103,790.42119,
-7.013,341.75893,
-9.924,-2.75,
