,PL4E72~1,
Raman shift [1/cm],Intensity,
3014.167,-4.125,
3011.256,0.62505368,
3008.346,145.31638,
3005.435,176.57112,
3002.525,186.94994,
2999.614,195.39967,
2996.704,218.40695,
2993.793,211.52189,
2990.882,192.61547,
2987.972,210.83969,
2985.061,215.40211,
2982.151,214.90356,
2979.240,233.40731,
2976.329,247.89138,
2973.419,247.50581,
2970.508,266.22489,
2967.598,266.875,
2964.687,266.875,
2961.777,285.90083,
2958.866,287.19151,
2955.955,303.04536,
2953.045,297.47906,
2950.134,325.66217,
2947.224,330.35897,
2944.313,351.3693,
2941.403,333.41013,
2938.492,333.88585,
2935.581,345.21364,
2932.671,360.6776,
2929.760,360.50959,
2926.850,366.88214,
2923.939,375.59462,
2921.028,376.875,
2918.118,389.5954,
2915.207,405.82453,
2912.297,401.93001,
2909.386,401.07938,
2906.476,377.88346,
2903.565,386.03648,
2900.654,378.5929,
2897.744,384.78699,
2894.833,377.46264,
2891.923,376.875,
2889.012,385.5802,
2886.102,389.23041,
2883.191,391.86839,
2880.280,390.63576,
2877.370,368.45642,
2874.459,392.93784,
2871.549,394.62513,
2868.638,376.14513,
2865.727,402.875,
2862.817,417.44718,
2859.906,423.90064,
2856.996,423.41349,
2854.085,409.59348,
2851.175,420.68227,
2848.264,413.37016,
2845.353,411.78873,
2842.443,406.67709,
2839.532,400.99443,
2836.622,401.59961,
2833.711,388.3491,
2830.801,394.16985,
2827.890,410.04284,
2824.979,403.67708,
2822.069,400.9546,
2819.158,410.91543,
2816.248,415.12789,
2813.337,414.2567,
2810.427,421.8819,
2807.516,401.45781,
2804.605,403.60576,
2801.695,394.26974,
2798.784,398.72715,
2795.874,410.74045,
2792.963,396.44628,
2790.052,409.87135,
2787.142,394.88835,
2784.231,414.875,
2781.321,416.19507,
2778.410,421.35091,
2775.500,402.40672,
2772.589,407.75956,
2769.678,398.52009,
2766.768,414.0362,
2763.857,413.08502,
2760.947,411.89391,
2758.036,433.51206,
2755.126,403.63568,
2752.215,411.66142,
2749.304,438.55483,
2746.394,421.10882,
2743.483,442.37498,
2740.573,443.32631,
2737.662,411.92676,
2734.751,440.17607,
2731.841,433.98306,
2728.930,431.38358,
2726.020,433.6713,
2723.109,454.96767,
2720.199,446.65938,
2717.288,446.96259,
2714.377,436.55434,
2711.467,456.71126,
2708.556,456.73647,
2705.646,451.35384,
2702.735,444.71263,
2699.825,451.32046,
2696.914,461.97047,
2694.003,465.56281,
2691.093,454.33949,
2688.182,449.18315,
2685.272,447.8309,
2682.361,457.69269,
2679.450,457.29063,
2676.540,464.54981,
2673.629,453.85255,
2670.719,460.02102,
2667.808,482.61047,
2664.898,466.69309,
2661.987,480.37517,
2659.076,465.92674,
2656.166,492.45511,
2653.255,478.65561,
2650.345,481.85141,
2647.434,494.96074,
2644.524,495.10281,
2641.613,492.50354,
2638.702,504.66985,
2635.792,489.99963,
2632.881,499.80345,
2629.971,492.66016,
2627.060,516.04219,
2624.149,512.79375,
2621.239,522.89279,
2618.328,499.83261,
2615.418,502.525,
2612.507,503.66949,
2609.597,526.21233,
2606.686,516.45934,
2603.775,515.51389,
2600.865,530.22318,
2597.954,521.30623,
2595.044,532.84843,
2592.133,540.70941,
2589.223,544.54974,
2586.312,536.50818,
2583.401,528.07937,
2580.491,525.14904,
2577.580,538.90471,
2574.670,554.93784,
2571.759,541.6173,
2568.848,544.7535,
2565.938,518.97009,
2563.027,539.97272,
2560.117,552.04325,
2557.206,549.73847,
2554.296,544.38987,
2551.385,558.26311,
2548.474,551.76347,
2545.564,550.62176,
2542.653,555.89513,
2539.743,576.36884,
2536.832,566.30303,
2533.922,578.98538,
2531.011,580.65044,
2528.100,572.73913,
2525.190,564.43525,
2522.279,598.98394,
2519.369,579.66753,
2516.458,585.77018,
2513.548,592.06592,
2510.637,579.16614,
2507.726,598.56273,
2504.816,599.56271,
2501.905,601.68659,
2498.995,610.20287,
2496.084,585.40811,
2493.173,595.50679,
2490.263,606.45919,
2487.352,607.33247,
2484.442,598.29255,
2481.531,608.45477,
2478.621,608.33945,
2475.710,604.02836,
2472.799,621.40866,
2469.889,613.875,
2466.978,604.49365,
2464.068,606.62105,
2461.157,629.02997,
2458.247,636.43385,
2455.336,637.89652,
2452.425,618.15328,
2449.515,640.24299,
2446.604,642.875,
2443.694,646.3635,
2440.783,652.92342,
2437.872,641.78662,
2434.962,656.41879,
2432.051,641.09126,
2429.141,640.0634,
2426.230,644.22309,
2423.320,653.93226,
2420.409,653.79157,
2417.498,663.07163,
2414.588,653.24767,
2411.677,661.37298,
2408.767,661.02854,
2405.856,686.74174,
2402.946,681.45856,
2400.035,680.48063,
2397.124,680.00868,
2394.214,690.71141,
2391.303,673.58774,
2388.393,672.11454,
2385.482,683.39032,
2382.571,708.39421,
2379.661,692.6891,
2376.750,695.66061,
2373.840,700.81566,
2370.929,718.65841,
2368.019,704.72966,
2365.108,720.08442,
2362.197,724.25037,
2359.287,711.90842,
2356.376,700.88733,
2353.466,707.94851,
2350.555,730.60463,
2347.645,724.34783,
2344.734,733.23906,
2341.823,734.85842,
2338.913,722.00636,
2336.002,734.47067,
2333.092,749.01275,
2330.181,752.34816,
2327.270,783.00482,
2324.360,748.21932,
2321.449,755.25935,
2318.539,761.06768,
2315.628,764.29546,
2312.718,759.22522,
2309.807,743.60754,
2306.896,778.35543,
2303.986,773.05034,
2301.075,785.74731,
2298.165,780.70171,
2295.254,789.61648,
2292.344,782.34802,
2289.433,784.875,
2286.522,789.4955,
2283.612,786.97448,
2280.701,787.33688,
2277.791,814.11358,
2274.880,795.44701,
2271.969,788.84619,
2269.059,794.8396,
2266.148,808.06365,
2263.238,796.28041,
2260.327,818.18525,
2257.417,815.28,
2254.506,840.32516,
2251.595,842.87866,
2248.685,840.61154,
2245.774,833.66633,
2242.864,868.86506,
2239.953,839.19225,
2237.043,843.10928,
2234.132,855.62823,
2231.221,856.4538,
2228.311,878.49095,
2225.400,861.94452,
2222.490,893.30485,
2219.579,867.50738,
2216.669,878.31061,
2213.758,897.7456,
2210.847,922.63819,
2207.937,909.64864,
2205.026,956.32078,
2202.116,926.9546,
2199.205,944.81265,
2196.294,955.92496,
2193.384,992.45304,
2190.473,953.11208,
2187.563,993.74933,
2184.652,970.88724,
2181.742,1005.309,
2178.831,1058.7466,
2175.920,1084.9497,
2173.010,1126.9527,
2170.099,1180.6037,
2167.189,1221.7289,
2164.278,1342.8097,
2161.368,1385.3005,
2158.457,1476.4108,
2155.546,1553.1155,
2152.636,1623.593,
2149.725,1692.4723,
2146.815,1754.1064,
2143.904,1830.5702,
2140.993,1836.3351,
2138.083,1887.3097,
2135.172,1892.7323,
2132.262,1905.4938,
2129.351,1899.0991,
2126.441,1841.3311,
2123.530,1804.5506,
2120.619,1683.8843,
2117.709,1624.0682,
2114.798,1509.394,
2111.888,1432.6772,
2108.977,1347.0935,
2106.067,1274.8221,
2103.156,1206.9647,
2100.245,1188.828,
2097.335,1109.6603,
2094.424,1081.9865,
2091.514,1075.4286,
2088.603,1062.4878,
2085.692,1046.0016,
2082.782,1026.8228,
2079.871,1018.1959,
2076.961,1038.3251,
2074.050,1009.1174,
2071.140,1015.1623,
2068.229,1019.6979,
2065.318,1006.9855,
2062.408,1001.2918,
2059.497,1000.8631,
2056.587,989.78209,
2053.676,980.34207,
2050.766,959.49159,
2047.855,985.67565,
2044.944,979.14102,
2042.034,982.77098,
2039.123,995.67635,
2036.213,995.60828,
2033.302,973.98377,
2030.391,975.0274,
2027.481,983.08227,
2024.570,984.03217,
2021.660,969.76194,
2018.749,989.91299,
2015.839,993.16175,
2012.928,1002.1284,
2010.017,981.90106,
2007.107,980.29369,
2004.196,985.99407,
2001.286,990.875,
1998.375,969.30314,
1995.465,992.12589,
1992.554,977.2105,
1989.643,955.53171,
1986.733,952.40658,
1983.822,1011.3484,
1980.912,982.1318,
1978.001,967.47613,
1975.090,976.53758,
1972.180,957.66754,
1969.269,959.91234,
1966.359,953.63171,
1963.448,938.72572,
1960.538,958.22029,
1957.627,946.04217,
1954.716,950.67391,
1951.806,957.12339,
1948.895,960.34466,
1945.985,943.5433,
1943.074,921.39895,
1940.164,928.58655,
1937.253,916.10138,
1934.342,913.00334,
1931.432,913.44282,
1928.521,916.51231,
1925.611,925.31654,
1922.700,911.62915,
1919.790,911.32005,
1916.879,907.22375,
1913.968,908.87254,
1911.058,922.2804,
1908.147,913.07791,
1905.237,909.26472,
1902.326,918.56684,
1899.415,917.72132,
1896.505,898.00757,
1893.594,905.14635,
1890.684,897.03193,
1887.773,890.918,
1884.863,888.77249,
1881.952,925.63211,
1879.041,901.26803,
1876.131,910.67761,
1873.220,904.5431,
1870.310,894.52075,
1867.399,901.74705,
1864.489,868.19908,
1861.578,902.74299,
1858.667,922.04864,
1855.757,926.88216,
1852.846,914.10066,
1849.936,899.5727,
1847.025,912.28131,
1844.114,939.28913,
1841.204,931.14773,
1838.293,922.36585,
1835.383,957.38597,
1832.472,973.57239,
1829.562,946.79453,
1826.651,957.43965,
1823.740,958.41138,
1820.830,968.76489,
1817.919,953.32996,
1815.009,929.18162,
1812.098,973.44977,
1809.188,988.25482,
1806.277,983.98566,
1803.366,985.75855,
1800.456,980.30389,
1797.545,1000.7263,
1794.635,970.71117,
1791.724,1034.6324,
1788.813,991.67989,
1785.903,1012.9719,
1782.992,1015.9748,
1780.082,981.62424,
1777.171,1004.5393,
1774.261,1013.0303,
1771.350,1040.8962,
1768.439,1040.4285,
1765.529,1046.1482,
1762.618,1026.6512,
1759.708,1026.3752,
1756.797,1032.7386,
1753.887,1005.8998,
1750.976,1035.9718,
1748.065,1042.9841,
1745.155,1052.2297,
1742.244,1096.6576,
1739.334,1063.5762,
1736.423,1036.6358,
1733.512,1063.9808,
1730.602,1086.8433,
1727.691,1106.2282,
1724.781,1112.4482,
1721.870,1153.1133,
1718.960,1125.0523,
1716.049,1148.756,
1713.138,1164.28,
1710.228,1105.8245,
1707.317,1154.3721,
1704.407,1174.4526,
1701.496,1160.3787,
1698.586,1191.2145,
1695.675,1130.2468,
1692.764,1200.666,
1689.854,1225.9223,
1686.943,1222.0436,
1684.033,1219.9247,
1681.122,1231.6711,
1678.211,1250.6942,
1675.301,1276.7948,
1672.390,1299.1113,
1669.480,1377.8188,
1666.569,1371.3194,
1663.659,1406.365,
1660.748,1435.8364,
1657.837,1434.4874,
1654.927,1463.023,
1652.016,1510.9236,
1649.106,1512.7526,
1646.195,1508.1148,
1643.285,1519.6751,
1640.374,1597.0632,
1637.463,1607.0099,
1634.553,1669.4513,
1631.642,1708.5048,
1628.732,1766.5742,
1625.821,1883.9385,
1622.911,1980.3284,
1620.000,2114.1742,
1617.089,2204.084,
1614.179,2421.6144,
1611.268,2502.9751,
1608.358,2649.8047,
1605.447,2801.1333,
1602.536,2793.101,
1599.626,2829.5922,
1596.715,2870.0866,
1593.805,2773.7098,
1590.894,2783.8918,
1587.984,2770.4193,
1585.073,2784.0405,
1582.162,2714.2399,
1579.252,2694.1469,
1576.341,2706.4931,
1573.431,2647.2211,
1570.520,2619.9381,
1567.610,2612.4043,
1564.699,2592.0242,
1561.788,2558.8189,
1558.878,2483.6953,
1555.967,2443.3044,
1553.057,2405.9788,
1550.146,2382.3441,
1547.235,2321.023,
1544.325,2279.1784,
1541.414,2246.0116,
1538.504,2191.6435,
1535.593,2159.0582,
1532.683,2152.7938,
1529.772,2106.4382,
1526.861,2043.0703,
1523.951,2052.6839,
1521.040,2039.0159,
1518.130,1961.9841,
1515.219,1926.595,
1512.309,1923.6453,
1509.398,1916.4453,
1506.487,1910.891,
1503.577,1882.2944,
1500.666,1819.9796,
1497.756,1814.0955,
1494.845,1827.1541,
1491.934,1785.812,
1489.024,1766.5621,
1486.113,1751.9668,
1483.203,1741.1052,
1480.292,1716.9652,
1477.382,1691.8605,
1474.471,1678.4338,
1471.560,1677.3263,
1468.650,1668.9924,
1465.739,1665.5155,
1462.829,1668.8591,
1459.918,1629.4382,
1457.008,1639.0294,
1454.097,1648.0618,
1451.186,1632.7473,
1448.276,1661.5543,
1445.365,1652.3387,
1442.455,1632.3023,
1439.544,1611.2138,
1436.633,1649.8551,
1433.723,1630.3765,
1430.812,1622.5898,
1427.902,1568.6044,
1424.991,1557.2313,
1422.081,1516.506,
1419.170,1498.186,
1416.259,1459.4222,
1413.349,1466.7351,
1410.438,1465.577,
1407.528,1496.9933,
1404.617,1484.1701,
1401.707,1473.5337,
1398.796,1490.9554,
1395.885,1469.5244,
1392.975,1451.6052,
1390.064,1483.9856,
1387.154,1474.4649,
1384.243,1518.8731,
1381.332,1473.531,
1378.422,1500.9614,
1375.511,1618.9958,
1372.601,1679.8555,
1369.690,1667.7306,
1366.780,1713.1891,
1363.869,1762.9253,
1360.958,1863.3633,
1358.048,1925.081,
1355.137,1912.1679,
1352.227,1923.2739,
1349.316,1987.7601,
1346.406,2034.5385,
1343.495,2080.0232,
1340.584,2177.1601,
1337.674,2219.5534,
1334.763,2218.11,
1331.853,2250.5631,
1328.942,2293.6798,
1326.032,2342.9185,
1323.121,2387.7003,
1320.210,2456.4783,
1317.300,2513.7964,
1314.389,2554.431,
1311.479,2605.768,
1308.568,2655.8548,
1305.657,2669.0654,
1302.747,2686.7444,
1299.836,2792.6146,
1296.926,2854.1989,
1294.015,2990.2588,
1291.105,3054.8713,
1288.194,3110.7996,
1285.283,3185.8833,
1282.373,3250.1092,
1279.462,3319.5408,
1276.552,3403.4028,
1273.641,3473.3369,
1270.731,3497.7586,
1267.820,3492.0298,
1264.909,3507.0288,
1261.999,3499.2772,
1259.088,3455.4954,
1256.178,3460.5831,
1253.267,3365.9756,
1250.356,3311.8166,
1247.446,3203.6517,
1244.535,3066.5002,
1241.625,2942.5863,
1238.714,2837.0979,
1235.804,2761.2732,
1232.893,2692.5145,
1229.982,2625.8018,
1227.072,2594.1158,
1224.161,2560.7764,
1221.251,2537.0068,
1218.340,2442.1248,
1215.430,2387.2686,
1212.519,2356.5205,
1209.608,2336.5063,
1206.698,2360.4709,
1203.787,2381.0408,
1200.877,2420.9337,
1197.966,2438.0177,
1195.055,2513.9609,
1192.145,2574.2096,
1189.234,2630.7489,
1186.324,2700.3341,
1183.413,2746.0577,
1180.503,2738.024,
1177.592,2705.7134,
1174.681,2695.5394,
1171.771,2651.4217,
1168.860,2631.7737,
1165.950,2596.0108,
1163.039,2569.0181,
1160.129,2530.2025,
1157.218,2516.086,
1154.307,2510.1471,
1151.397,2482.1828,
1148.486,2458.2352,
1145.576,2398.6845,
1142.665,2417.3307,
1139.754,2376.5663,
1136.844,2367.5753,
1133.933,2350.2798,
1131.023,2341.1797,
1128.112,2326.6634,
1125.202,2281.3147,
1122.291,2251.0246,
1119.380,2315.0829,
1116.470,2336.2636,
1113.559,2339.6482,
1110.649,2342.4944,
1107.738,2343.875,
1104.828,2339.2979,
1101.917,2349.1479,
1099.006,2379.1123,
1096.096,2338.1438,
1093.185,2342.5338,
1090.275,2349.3492,
1087.364,2341.2693,
1084.453,2323.3759,
1081.543,2328.651,
1078.632,2344.8009,
1075.722,2337.0034,
1072.811,2344.5432,
1069.901,2382.0935,
1066.990,2366.2834,
1064.079,2399.3033,
1061.169,2431.7871,
1058.258,2454.4621,
1055.348,2470.3448,
1052.437,2478.1387,
1049.527,2501.4191,
1046.616,2541.3852,
1043.705,2544.3335,
1040.795,2552.8141,
1037.884,2573.0471,
1034.974,2591.5992,
1032.063,2596.4443,
1029.153,2598.5222,
1026.242,2653.8794,
1023.331,2635.043,
1020.421,2644.1199,
1017.510,2666.123,
1014.600,2674.2228,
1011.689,2698.3775,
1008.778,2779.1267,
1005.868,2804.2148,
1002.957,2842.0704,
1000.047,2960.715,
997.136,3075.1161,
994.226,3143.7209,
991.315,3153.3923,
988.404,3113.2016,
985.494,3051.7626,
982.583,3002.0823,
979.673,2998.5332,
976.762,2999.875,
973.852,3020.6495,
970.941,3042.1329,
968.030,3039.2913,
965.120,3086.6924,
962.209,3043.2128,
959.299,3064.205,
956.388,3059.0761,
953.477,3044.6419,
950.567,3048.1035,
947.656,3068.3341,
944.746,3109.9624,
941.835,3098.918,
938.925,3073.5013,
936.014,3049.7352,
933.103,3032.2255,
930.193,3018.6789,
927.282,3004.3627,
924.372,2976.4576,
921.461,2916.9086,
918.551,2889.9038,
915.640,2850.4546,
912.729,2809.5105,
909.819,2818.5363,
906.908,2770.5181,
903.998,2789.3498,
901.087,2824.1543,
898.176,2838.0118,
895.266,2839.0012,
892.355,2866.4081,
889.445,2965.4416,
886.534,2927.4709,
883.624,2963.6091,
880.713,3005.7996,
877.802,3043.592,
874.892,3070.6242,
871.981,3042.2437,
869.071,3015.5105,
866.160,3030.1939,
863.250,3028.3909,
860.339,3027.8244,
857.428,3030.866,
854.518,2975.7065,
851.607,2969.882,
848.697,2961.309,
845.786,2944.3819,
842.875,2942.0119,
839.965,2960.875,
837.054,2960.6238,
834.144,2938.2475,
831.233,2902.5439,
828.323,2869.0704,
825.412,2875.9881,
822.501,2908.9171,
819.591,2798.1796,
816.680,2814.1058,
813.770,2783.7909,
810.859,2760.6188,
807.949,2740.7871,
805.038,2695.0785,
802.127,2688.4935,
799.217,2686.3842,
796.306,2689.2804,
793.396,2670.4626,
790.485,2629.2941,
787.574,2602.4319,
784.664,2643.4375,
781.753,2642.1522,
778.843,2652.0874,
775.932,2677.06,
773.022,2698.0998,
770.111,2686.6537,
767.200,2698.056,
764.290,2709.9653,
761.379,2688.3043,
758.469,2647.7584,
755.558,2654.1456,
752.648,2629.7075,
749.737,2605.2913,
746.826,2586.9492,
743.916,2566.4268,
741.005,2520.1847,
738.095,2372.4231,
735.184,2224.0191,
732.274,2160.3053,
729.363,2240.9935,
726.452,2440.7551,
723.542,2550.8326,
720.631,2559.1686,
717.721,2586.2259,
714.810,2607.3977,
711.899,2599.1522,
708.989,2553.1575,
706.078,2578.5167,
703.168,2575.1595,
700.257,2567.6373,
697.347,2567.6139,
694.436,2573.0894,
691.525,2544.1524,
688.615,2551.711,
685.704,2545.6291,
682.794,2519.8538,
679.883,2498.1726,
676.973,2527.0219,
674.062,2529.6846,
671.151,2518.6701,
668.241,2517.5962,
665.330,2551.3456,
662.420,2540.1633,
659.509,2541.0497,
656.598,2537.682,
653.688,2534.7857,
650.777,2549.1711,
647.867,2587.3949,
644.956,2581.0154,
642.046,2551.9743,
639.135,2520.5213,
636.224,2507.9904,
633.314,2531.0146,
630.403,2568.8004,
627.493,2590.875,
624.582,2592.8173,
621.672,2601.5292,
618.761,2604.9148,
615.850,2642.2402,
612.940,2678.3642,
610.029,2696.662,
607.119,2731.4057,
604.208,2714.9946,
601.297,2709.8661,
598.387,2704.5627,
595.476,2683.355,
592.566,2677.8456,
589.655,2653.551,
586.745,2637.4033,
583.834,2639.4625,
580.923,2662.7755,
578.013,2646.2961,
575.102,2627.5353,
572.192,2615.4459,
569.281,2622.1546,
566.371,2673.8078,
563.460,2656.3,
560.549,2676.599,
557.639,2700.0867,
554.728,2680.5995,
551.818,2707.9106,
548.907,2714.4844,
545.996,2714.4862,
543.086,2719.5789,
540.175,2746.0529,
537.265,2735.5623,
534.354,2765.4917,
531.444,2801.8256,
528.533,2808.3097,
525.622,2828.4844,
522.712,2836.5155,
519.801,2874.008,
516.891,2935.2571,
513.980,2956.9374,
511.070,2997.6141,
508.159,3053.513,
505.248,3118.4062,
502.338,3183.372,
499.427,3200.3523,
496.517,3237.1174,
493.606,3294.5147,
490.695,3352.028,
487.785,3302.7614,
484.874,3278.7194,
481.964,3274.8583,
479.053,3292.9065,
476.143,3338.9842,
473.232,3309.5018,
470.321,3283.7374,
467.411,3257.7185,
464.500,3222.3404,
461.590,3240.7182,
458.679,3261.2832,
455.769,3300.6555,
452.858,3358.9545,
449.947,3359.7185,
447.037,3350.7736,
444.126,3361.1417,
441.216,3390.4625,
438.305,3399.6056,
435.395,3444.147,
432.484,3457.2897,
429.573,3437.3074,
426.663,3409.1822,
423.752,3431.9821,
420.842,3466.6227,
417.931,3505.2175,
415.020,3541.6187,
412.110,3567.0182,
409.199,3583.699,
406.289,3612.7833,
403.378,3676.8212,
400.468,3660.9453,
397.557,3642.5071,
394.646,3613.4449,
391.736,3569.1889,
388.825,3578.9939,
385.915,3562.1838,
383.004,3540.5919,
380.094,3535.2495,
377.183,3640.5962,
374.272,3757.2626,
371.362,3810.2721,
368.451,3764.5223,
365.541,3824.5652,
362.630,3843.06,
359.719,3834.5161,
356.809,3810.7359,
353.898,3824.963,
350.988,3872.2739,
348.077,3904.2285,
345.167,3892.0803,
342.256,3876.3919,
339.345,3879.3151,
336.435,3900.865,
333.524,3939.6401,
330.614,3932.1886,
327.703,3919.0935,
324.793,3910.164,
321.882,3913.9309,
318.971,3936.9776,
316.061,3935.597,
313.150,3937.6535,
310.240,3975.5015,
307.329,4058.3436,
304.418,4057.1345,
301.508,4003.6811,
298.597,3954.0732,
295.687,3962.7426,
292.776,3996.3751,
289.866,4060.5639,
286.955,4182.4536,
284.044,4326.3749,
281.134,4415.0568,
278.223,4460.4911,
275.313,4594.5988,
272.402,4654.8247,
269.492,4711.1445,
266.581,4786.501,
263.670,4837.2284,
260.760,4898.8895,
257.849,4941.3617,
254.939,4939.894,
252.028,5010.088,
249.117,5077.9895,
246.207,5111.9115,
243.296,5054.0806,
240.386,5051.14,
237.475,5049.8015,
234.565,5044.76,
231.654,5044.0296,
228.743,5008.7775,
225.833,4955.7392,
222.922,4891.9725,
220.012,4851.1734,
217.101,4841.8007,
214.191,4829.0459,
211.280,4773.0312,
208.369,4683.4277,
205.459,4692.5798,
202.548,4775.6438,
199.638,4814.8289,
196.727,4860.9053,
193.816,4905.7323,
190.906,4942.1577,
187.995,4864.6871,
185.085,4888.9434,
182.174,4948.8133,
179.264,4959.6547,
176.353,4914.0981,
173.442,4909.6285,
170.532,4943.6746,
167.621,4907.6259,
164.711,4807.4774,
161.800,4675.0017,
158.890,4526.0181,
155.979,4268.2705,
153.068,3926.4516,
150.158,3507.9597,
147.247,3014.7265,
144.337,2487.2032,
141.426,1954.9542,
138.516,1430.9067,
135.605,1037.6305,
132.694,711.73944,
129.784,456.18925,
126.873,303.86659,
123.963,209.70822,
121.052,144.59436,
118.141,101.04634,
115.231,78.136749,
112.320,66.333184,
109.410,59.738829,
106.499,43.359259,
103.589,44.357036,
100.678,42.985809,
97.767,30.188933,
94.857,26.410055,
91.946,27.696776,
89.036,30.633123,
86.125,22.831865,
83.215,20.34408,
80.304,20.114433,
77.393,20.822603,
74.483,18.25446,
71.572,15.787944,
68.662,13.59793,
65.751,10.772126,
62.840,13.728616,
59.930,18.624145,
57.019,21.444473,
54.109,16.500552,
51.198,12.573391,
48.288,11.85235,
45.377,9.038838,
42.466,10.760535,
39.556,15.68083,
36.645,20.596162,
33.735,14.086273,
30.824,5.5496782,
27.914,1.3426267,
25.003,5.8560998,
22.092,7.2604772,
19.182,4.03518,
16.271,8.931611,
13.361,54.285172,
10.450,110.14912,
7.539,88.501341,
4.629,-69.957193,
1.718,-324.52369,
-1.192,-687.73599,
-4.103,-563.36987,
-7.013,-314.4908,
-9.924,2.875,
