,PLEB4C~1,
Raman shift [1/cm],Intensity,
3014.167,0.5,
3011.256,0.25005368,
3008.346,301.37308,
3005.435,362.92757,
3002.525,388.46253,
2999.614,392.68832,
2996.704,414.89896,
2993.793,408.27074,
2990.882,405.4923,
2987.972,426.51513,
2985.061,429.05665,
2982.151,446.99413,
2979.240,473.76616,
2976.329,465.98089,
2973.419,502.26893,
2970.508,519.43331,
2967.598,524.54779,
2964.687,531.70856,
2961.777,561.1498,
2958.866,577.50445,
2955.955,595.02431,
2953.045,592.30541,
2950.134,627.86151,
2947.224,626.52488,
2944.313,669.14031,
2941.403,678.5,
2938.492,682.22358,
2935.581,697.76869,
2932.671,709.33688,
2929.760,706.33079,
2926.850,726.0297,
2923.939,730.90188,
2921.028,749.92967,
2918.118,759.17758,
2915.207,764.81044,
2912.297,746.65233,
2909.386,757.32481,
2906.476,765.88764,
2903.565,762.59629,
2900.654,761.32408,
2897.744,760.78916,
2894.833,771.1291,
2891.923,740.52559,
2889.012,765.66185,
2886.102,779.68784,
2883.191,771.50661,
2880.280,755.47607,
2877.370,749.34881,
2874.459,754.02832,
2871.549,760.46058,
2868.638,811.23192,
2865.727,789.50763,
2862.817,813.04278,
2859.906,796.80483,
2856.996,829.4683,
2854.085,804.81087,
2851.175,818.12046,
2848.264,819.7205,
2845.353,817.41373,
2842.443,798.32646,
2839.532,776.27611,
2836.622,776.3763,
2833.711,766.07771,
2830.801,774.69412,
2827.890,802.8549,
2824.979,800.72204,
2822.069,773.82979,
2819.158,808.20081,
2816.248,804.05211,
2813.337,804.72683,
2810.427,811.27961,
2807.516,809.76625,
2804.605,800.66105,
2801.695,798.59212,
2798.784,810.83469,
2795.874,779.77968,
2792.963,795.78596,
2790.052,813.49743,
2787.142,777.98688,
2784.231,773.27486,
2781.321,769.69434,
2778.410,785.42513,
2775.500,774.07552,
2772.589,790.23165,
2769.678,796.53758,
2766.768,807.16799,
2763.857,811.81599,
2760.947,808.46848,
2758.036,846.70408,
2755.126,841.07692,
2752.215,830.22277,
2749.304,821.28778,
2746.394,840.84279,
2743.483,828.99998,
2740.573,832.61283,
2737.662,830.0429,
2734.751,823.17473,
2731.841,835.2033,
2728.930,851.17371,
2726.020,859.61748,
2723.109,860.95367,
2720.199,865.44058,
2717.288,854.55473,
2714.377,854.30394,
2711.467,894.82856,
2708.556,868.19137,
2705.646,875.88029,
2702.735,874.5,
2699.825,870.09816,
2696.914,878.45274,
2694.003,889.27073,
2691.093,900.30384,
2688.182,895.28074,
2685.272,881.68634,
2682.361,909.04148,
2679.450,883.88276,
2676.540,885.27644,
2673.629,882.79592,
2670.719,899.5,
2667.808,907.11092,
2664.898,901.13618,
2661.987,921.7002,
2659.076,915.53449,
2656.166,939.43509,
2653.255,943.16327,
2650.345,939.1715,
2647.434,953.78522,
2644.524,942.44967,
2641.613,964.47172,
2638.702,980.32641,
2635.792,954.62463,
2632.881,962.11897,
2629.971,945.43276,
2627.060,959.83313,
2624.149,963.3375,
2621.239,966.25148,
2618.328,960.5,
2615.418,969.12728,
2612.507,980.91504,
2609.597,992.03094,
2606.686,993.88956,
2603.775,991.17857,
2600.865,1008.6707,
2597.954,1019.0271,
2595.044,1029.8304,
2592.133,1023.7738,
2589.223,1019.5,
2586.312,1023.4749,
2583.401,1029.2738,
2580.491,1018.5433,
2577.580,1024.5363,
2574.670,1043.1792,
2571.759,1046.6113,
2568.848,1041.6822,
2565.938,1021.4046,
2563.027,1042.4273,
2560.117,1052.5841,
2557.206,1031.0904,
2554.296,1069.1568,
2551.385,1061.3679,
2548.474,1079.5376,
2545.564,1071.1331,
2542.653,1077.1409,
2539.743,1094.1047,
2536.832,1094.5617,
2533.922,1091.6419,
2531.011,1095.5504,
2528.100,1094.2283,
2525.190,1110.8246,
2522.279,1110.8283,
2519.369,1114.7832,
2516.458,1107.9441,
2513.548,1126.1088,
2510.637,1086.6844,
2507.726,1102.6153,
2504.816,1125.3117,
2501.905,1136.7317,
2498.995,1146.3056,
2496.084,1129.953,
2493.173,1145.4477,
2490.263,1133.5565,
2487.352,1181.0393,
2484.442,1144.0825,
2481.531,1155.5104,
2478.621,1168.8933,
2475.710,1183.592,
2472.799,1188.5942,
2469.889,1167.0152,
2466.978,1164.3351,
2464.068,1189.3572,
2461.157,1169.8475,
2458.247,1184.0295,
2455.336,1219.9012,
2452.425,1213.7783,
2449.515,1216.8493,
2446.604,1225.7949,
2443.694,1215.7788,
2440.783,1242.6971,
2437.872,1214.1928,
2434.962,1233.0253,
2432.051,1237.9136,
2429.141,1235.806,
2426.230,1226.0215,
2423.320,1259.7144,
2420.409,1257.7692,
2417.498,1275.8596,
2414.588,1276.5076,
2411.677,1280.2849,
2408.767,1284.3652,
2405.856,1300.3667,
2402.946,1292.3454,
2400.035,1299.0962,
2397.124,1335.7941,
2394.214,1302.9316,
2391.303,1298.1795,
2388.393,1322.8954,
2385.482,1318.0728,
2382.571,1321.7266,
2379.661,1345.2678,
2376.750,1322.0246,
2373.840,1343.9718,
2370.929,1333.6624,
2368.019,1339.9218,
2365.108,1340.267,
2362.197,1355.2507,
2359.287,1385.6515,
2356.376,1356.5616,
2353.466,1381.3494,
2350.555,1368.105,
2347.645,1390.59,
2344.734,1381.2834,
2341.823,1389.2513,
2338.913,1393.6239,
2336.002,1431.9714,
2333.092,1418.0632,
2330.181,1435.0984,
2327.270,1432.94,
2324.360,1452.9623,
2321.449,1447.2381,
2318.539,1453.2248,
2315.628,1485.1207,
2312.718,1456.5198,
2309.807,1458.8663,
2306.896,1477.248,
2303.986,1469.1038,
2301.075,1484.7978,
2298.165,1488.5286,
2295.254,1469.8447,
2292.344,1501.6661,
2289.433,1469.4923,
2286.522,1490.6025,
2283.612,1507.6696,
2280.701,1490.787,
2277.791,1528.4599,
2274.880,1525.36,
2271.969,1524.463,
2269.059,1563.9878,
2266.148,1566.0726,
2263.238,1543.2066,
2260.327,1593.4997,
2257.417,1570.2956,
2254.506,1584.5228,
2251.595,1576.0819,
2248.685,1588.8595,
2245.774,1591.0935,
2242.864,1600.7593,
2239.953,1607.0034,
2237.043,1604.59,
2234.132,1604.0194,
2231.221,1617.5,
2228.311,1657.5128,
2225.400,1661.2467,
2222.490,1660.2982,
2219.579,1698.2609,
2216.669,1707.9881,
2213.758,1713.1092,
2210.847,1737.0692,
2207.937,1731.9479,
2205.026,1758.1668,
2202.116,1761.5308,
2199.205,1785.9245,
2196.294,1812.236,
2193.384,1830.184,
2190.473,1860.8134,
2187.563,1865.7997,
2184.652,1935.7837,
2181.742,2003.1844,
2178.831,2078.0021,
2175.920,2155.3816,
2173.010,2257.8305,
2170.099,2416.2183,
2167.189,2543.7772,
2164.278,2734.5864,
2161.368,2879.9209,
2158.457,3111.7875,
2155.546,3301.753,
2152.636,3479.8082,
2149.725,3663.8153,
2146.815,3763.0307,
2143.904,3914.7193,
2140.993,3966.8544,
2138.083,3996.1717,
2135.172,4018.4832,
2132.262,4015.493,
2129.351,3958.1273,
2126.441,3882.1891,
2123.530,3732.5695,
2120.619,3539.1065,
2117.709,3340.0262,
2114.798,3138.3378,
2111.888,2934.6551,
2108.977,2730.043,
2106.067,2600.6622,
2103.156,2422.5289,
2100.245,2307.4611,
2097.335,2238.1545,
2094.424,2166.5488,
2091.514,2097.344,
2088.603,2072.6521,
2085.692,2051.7678,
2082.782,2019.709,
2079.871,1998.3565,
2076.961,1995.5,
2074.050,1983.9667,
2071.140,1966.0983,
2068.229,1926.9557,
2065.318,1938.1308,
2062.408,1951.6059,
2059.497,1946.3036,
2056.587,1919.8377,
2053.676,1896.2507,
2050.766,1910.1143,
2047.855,1907.9304,
2044.944,1892.7564,
2042.034,1911.9681,
2039.123,1881.4394,
2036.213,1884.3445,
2033.302,1904.1955,
2030.391,1897.9749,
2027.481,1869.6709,
2024.570,1864.1857,
2021.660,1886.14,
2018.749,1903.7782,
2015.839,1890.477,
2012.928,1917.9027,
2010.017,1918.7324,
2007.107,1919.4233,
2004.196,1888.8572,
2001.286,1898.6661,
1998.375,1887.8455,
1995.465,1894.7259,
1992.554,1902.7588,
1989.643,1870.6752,
1986.733,1882.2693,
1983.822,1867.9764,
1980.912,1904.6181,
1978.001,1871.9916,
1975.090,1878.0557,
1972.180,1886.3285,
1969.269,1862.3477,
1966.359,1843.0675,
1963.448,1849.4577,
1960.538,1864.0496,
1957.627,1857.5836,
1954.716,1882.7244,
1951.806,1885.2212,
1948.895,1827.2186,
1945.985,1853.5768,
1943.074,1844.8024,
1940.164,1875.8076,
1937.253,1842.6874,
1934.342,1815.0214,
1931.432,1812.3044,
1928.521,1804.6036,
1925.611,1828.4478,
1922.700,1813.174,
1919.790,1786.691,
1916.879,1823.5008,
1913.968,1823.5037,
1911.058,1805.0195,
1908.147,1826.7657,
1905.237,1827.1103,
1902.326,1820.9726,
1899.415,1815.5634,
1896.505,1805.5421,
1893.594,1818.3994,
1890.684,1822.5262,
1887.773,1796.371,
1884.863,1799.6185,
1881.952,1801.6175,
1879.041,1856.9933,
1876.131,1816.0504,
1873.220,1838.2391,
1870.310,1798.0158,
1867.399,1811.2281,
1864.489,1783.0967,
1861.578,1825.4888,
1858.667,1851.1258,
1855.757,1825.92,
1852.846,1813.3,
1849.936,1840.0816,
1847.025,1858.4902,
1844.114,1876.347,
1841.204,1853.7378,
1838.293,1865.0141,
1835.383,1878.9065,
1832.472,1912.3261,
1829.562,1918.0284,
1826.651,1920.9702,
1823.740,1932.2356,
1820.830,1947.0749,
1817.919,1908.9668,
1815.009,1926.8995,
1812.098,1912.6496,
1809.188,1967.7169,
1806.277,1993.991,
1803.366,1960.3503,
1800.456,1950.9504,
1797.545,1943.3439,
1794.635,1966.4021,
1791.724,2000.1602,
1788.813,2006.9044,
1785.903,2014.1686,
1782.992,1998.8651,
1780.082,2008.3785,
1777.171,1989.1627,
1774.261,2005.1606,
1771.350,2051.3765,
1768.439,2050.2886,
1765.529,2062.5907,
1762.618,2057.1519,
1759.708,2044.326,
1756.797,2039.1894,
1753.887,2048.2697,
1750.976,2070.6001,
1748.065,2085.5722,
1745.155,2083.6678,
1742.244,2111.9583,
1739.334,2128.1847,
1736.423,2120.0215,
1733.512,2117.2276,
1730.602,2153.4048,
1727.691,2193.9034,
1724.781,2204.0732,
1721.870,2241.5193,
1718.960,2243.9221,
1716.049,2213.9749,
1713.138,2257.2348,
1710.228,2239.3911,
1707.317,2305.3811,
1704.407,2333.3663,
1701.496,2297.215,
1698.586,2354.483,
1695.675,2352.95,
1692.764,2368.5943,
1689.854,2401.0709,
1686.943,2416.9941,
1684.033,2403.8477,
1681.122,2473.2935,
1678.211,2492.3287,
1675.301,2467.5771,
1672.390,2557.8888,
1669.480,2687.0989,
1666.569,2638.7061,
1663.659,2733.7086,
1660.748,2807.1363,
1657.837,2840.5935,
1654.927,2890.0857,
1652.016,2916.3224,
1649.106,2990.1365,
1646.195,3017.0824,
1643.285,3082.4115,
1640.374,3123.2979,
1637.463,3208.761,
1634.553,3278.6822,
1631.642,3359.563,
1628.732,3548.5192,
1625.821,3719.6073,
1622.911,3882.5758,
1620.000,4128.3755,
1617.089,4334.3806,
1614.179,4619.3499,
1611.268,4819.1016,
1608.358,5012.3695,
1605.447,5258.1591,
1602.536,5410.4193,
1599.626,5512.4933,
1596.715,5506.886,
1593.805,5489.402,
1590.894,5475.1706,
1587.984,5460.5086,
1585.073,5370.0151,
1582.162,5311.9208,
1579.252,5298.5902,
1576.341,5301.5053,
1573.431,5226.5321,
1570.520,5190.9768,
1567.610,5154.4603,
1564.699,5073.1721,
1561.788,5058.4717,
1558.878,4980.2029,
1555.967,4916.3947,
1553.057,4840.9834,
1550.146,4801.1982,
1547.235,4665.6765,
1544.325,4565.017,
1541.414,4574.7017,
1538.504,4518.1091,
1535.593,4434.458,
1532.683,4373.7763,
1529.772,4309.269,
1526.861,4262.337,
1523.951,4201.4913,
1521.040,4133.5301,
1518.130,4039.2615,
1515.219,3978.7404,
1512.309,3942.9639,
1509.398,3883.1006,
1506.487,3924.2324,
1503.577,3913.0627,
1500.666,3874.7845,
1497.756,3816.4655,
1494.845,3753.659,
1491.934,3709.2417,
1489.024,3630.3173,
1486.113,3652.5348,
1483.203,3563.9069,
1480.292,3577.1068,
1477.382,3515.2236,
1474.471,3507.9412,
1471.560,3501.792,
1468.650,3445.2047,
1465.739,3411.5331,
1462.829,3411.8714,
1459.918,3407.7651,
1457.008,3399.4692,
1454.097,3384.5596,
1451.186,3379.8965,
1448.276,3387.8586,
1445.365,3377.143,
1442.455,3364.2874,
1439.544,3345.5691,
1436.633,3405.9072,
1433.723,3377.6307,
1430.812,3360.6581,
1427.902,3312.7029,
1424.991,3321.2328,
1422.081,3255.4416,
1419.170,3185.5595,
1416.259,3181.9805,
1413.349,3170.6609,
1410.438,3160.202,
1407.528,3198.6995,
1404.617,3206.2347,
1401.707,3196.0299,
1398.796,3221.9894,
1395.885,3255.8741,
1392.975,3271.6462,
1390.064,3263.8382,
1387.154,3215.3415,
1384.243,3226.2226,
1381.332,3192.4759,
1378.422,3246.683,
1375.511,3366.591,
1372.601,3533.4611,
1369.690,3511.4967,
1366.780,3629.0575,
1363.869,3686.9267,
1360.958,3800.8142,
1358.048,3904.9315,
1355.137,3922.1524,
1352.227,3980.6181,
1349.316,4096.4957,
1346.406,4183.2878,
1343.495,4304.8938,
1340.584,4407.9278,
1337.674,4474.5433,
1334.763,4590.7943,
1331.853,4572.2497,
1328.942,4712.9248,
1326.032,4732.1312,
1323.121,4833.2712,
1320.210,4857.1793,
1317.300,4894.5869,
1314.389,4987.7096,
1311.479,5106.0433,
1308.568,5192.9941,
1305.657,5232.3242,
1302.747,5317.703,
1299.836,5470.1512,
1296.926,5519.5158,
1294.015,5713.4931,
1291.105,5831.5677,
1288.194,5922.3806,
1285.283,6096.1567,
1282.373,6215.0857,
1279.462,6362.6939,
1276.552,6468.1142,
1273.641,6521.3587,
1270.731,6593.2627,
1267.820,6600.5672,
1264.909,6568.676,
1261.999,6585.0326,
1259.088,6599.6265,
1256.178,6500.2946,
1253.267,6389.9022,
1250.356,6215.2132,
1247.446,6018.1802,
1244.535,5847.7279,
1241.625,5666.5929,
1238.714,5460.0958,
1235.804,5292.8594,
1232.893,5160.8929,
1229.982,5075.9737,
1227.072,4971.8628,
1224.161,4876.2471,
1221.251,4817.8075,
1218.340,4741.3101,
1215.430,4638.1325,
1212.519,4570.6338,
1209.608,4551.4756,
1206.698,4535.6488,
1203.787,4541.1282,
1200.877,4650.1746,
1197.966,4693.3342,
1195.055,4817.5146,
1192.145,4932.4179,
1189.234,5044.599,
1186.324,5092.8641,
1183.413,5138.896,
1180.503,5182.3823,
1177.592,5143.2168,
1174.681,5069.363,
1171.771,4997.7691,
1168.860,4922.7496,
1165.950,4873.5729,
1163.039,4806.9294,
1160.129,4766.5739,
1157.218,4739.6357,
1154.307,4704.6908,
1151.397,4653.6457,
1148.486,4589.255,
1145.576,4556.1464,
1142.665,4478.8979,
1139.754,4496.0952,
1136.844,4471.387,
1133.933,4425.6557,
1131.023,4360.9556,
1128.112,4319.1422,
1125.202,4315.9058,
1122.291,4282.8841,
1119.380,4306.6386,
1116.470,4320.759,
1113.559,4329.4592,
1110.649,4354.4196,
1107.738,4373.4656,
1104.828,4372.0102,
1101.917,4358.8372,
1099.006,4345.8404,
1096.096,4314.07,
1093.185,4307.046,
1090.275,4310.5464,
1087.364,4311.5,
1084.453,4316.5622,
1081.543,4328.388,
1078.632,4325.024,
1075.722,4291.7388,
1072.811,4277.4236,
1069.901,4304.4947,
1066.990,4340.4499,
1064.079,4425.3981,
1061.169,4458.1862,
1058.258,4476.2508,
1055.348,4513.6127,
1052.437,4544.0274,
1049.527,4589.6818,
1046.616,4646.1557,
1043.705,4729.5765,
1040.795,4686.734,
1037.884,4691.4762,
1034.974,4741.0657,
1032.063,4766.9458,
1029.153,4806.3043,
1026.242,4829.6581,
1023.331,4796.3355,
1020.421,4824.3551,
1017.510,4868.6343,
1014.600,4899.9586,
1011.689,4925.4684,
1008.778,4986.157,
1005.868,5137.446,
1002.957,5354.2553,
1000.047,5537.4681,
997.136,5747.9667,
994.226,5848.9155,
991.315,5836.7599,
988.404,5808.7745,
985.494,5695.4835,
982.583,5650.086,
979.673,5597.4063,
976.762,5574.0419,
973.852,5552.7036,
970.941,5543.0588,
968.030,5572.7544,
965.120,5585.3568,
962.209,5551.2551,
959.299,5562.498,
956.388,5584.0591,
953.477,5579.4699,
950.567,5578.4596,
947.656,5647.9645,
944.746,5704.8848,
941.835,5624.899,
938.925,5651.5635,
936.014,5652.232,
933.103,5606.5489,
930.193,5559.5061,
927.282,5534.688,
924.372,5445.8993,
921.461,5389.5796,
918.551,5333.4156,
915.640,5257.3312,
912.729,5187.3278,
909.819,5164.7173,
906.908,5120.9112,
903.998,5131.2258,
901.087,5171.4174,
898.176,5210.6334,
895.266,5242.5612,
892.355,5296.9278,
889.445,5448.8352,
886.534,5440.3164,
883.624,5494.3451,
880.713,5528.645,
877.802,5530.9839,
874.892,5541.4362,
871.981,5623.9415,
869.071,5557.9439,
866.160,5559.6092,
863.250,5560.7822,
860.339,5547.5506,
857.428,5523.6563,
854.518,5488.3095,
851.607,5412.5912,
848.697,5447.6472,
845.786,5439.4,
842.875,5425.1324,
839.965,5442.9561,
837.054,5409.114,
834.144,5463.8117,
831.233,5409.1714,
828.323,5374.0271,
825.412,5351.5383,
822.501,5299.9679,
819.591,5247.0783,
816.680,5173.3845,
813.770,5094.1027,
810.859,5045.7677,
807.949,5022.4048,
805.038,4997.5044,
802.127,4989.2731,
799.217,4928.8687,
796.306,4906.7973,
793.396,4897.3243,
790.485,4875.6556,
787.574,4843.3407,
784.664,4865.4837,
781.753,4895.6684,
778.843,4873.2141,
775.932,4858.1046,
773.022,4907.134,
770.111,4911.2219,
767.200,4987.6312,
764.290,4982.0282,
761.379,4937.2618,
758.469,4898.361,
755.558,4886.2326,
752.648,4877.2719,
749.737,4863.7498,
746.826,4781.9722,
743.916,4697.7338,
741.005,4690.5696,
738.095,4576.095,
735.184,4373.7242,
732.274,4302.7072,
729.363,4399.9721,
726.452,4609.9349,
723.542,4750.7693,
720.631,4793.6688,
717.721,4807.3642,
714.810,4806.0739,
711.899,4804.6386,
708.989,4822.391,
706.078,4781.6336,
703.168,4751.4617,
700.257,4722.4097,
697.347,4700.3695,
694.436,4703.2818,
691.525,4695.2437,
688.615,4680.9218,
685.704,4661.8443,
682.794,4641.8192,
679.883,4627.6173,
676.973,4652.4598,
674.062,4637.7195,
671.151,4633.9516,
668.241,4650.6474,
665.330,4674.2941,
662.420,4691.0675,
659.509,4660.8487,
656.598,4654.9152,
653.688,4689.9832,
650.777,4747.6899,
647.867,4723.8001,
644.956,4667.7297,
642.046,4667.1803,
639.135,4703.7925,
636.224,4678.691,
633.314,4716.8,
630.403,4735.3682,
627.493,4757.6311,
624.582,4797.4491,
621.672,4860.0167,
618.761,4866.2997,
615.850,4896.7024,
612.940,4920.8415,
610.029,4929.6544,
607.119,4978.6115,
604.208,4990.6001,
601.297,4982.5326,
598.387,4963.4743,
595.476,4946.5454,
592.566,4978.8152,
589.655,4981.9084,
586.745,4961.8394,
583.834,4934.4258,
580.923,4923.6137,
578.013,4942.4473,
575.102,4938.8962,
572.192,4946.4341,
569.281,4969.8128,
566.371,4960.4213,
563.460,4965.1437,
560.549,4996.7367,
557.639,5025.3515,
554.728,5024.7228,
551.818,5107.4363,
548.907,5092.5917,
545.996,5088.6067,
543.086,5129.9276,
540.175,5196.8911,
537.265,5215.2613,
534.354,5233.544,
531.444,5262.6622,
528.533,5308.749,
525.622,5368.497,
522.712,5411.2309,
519.801,5466.0149,
516.891,5544.1587,
513.980,5646.3657,
511.070,5684.3782,
508.159,5768.6125,
505.248,5867.2786,
502.338,5929.8662,
499.427,6044.8692,
496.517,6113.9646,
493.606,6171.4288,
490.695,6234.3099,
487.785,6290.5046,
484.874,6296.2689,
481.964,6282.8722,
479.053,6263.1906,
476.143,6249.3672,
473.232,6228.3567,
470.321,6177.1947,
467.411,6159.3586,
464.500,6242.5085,
461.590,6282.3269,
458.679,6231.3167,
455.769,6199.0888,
452.858,6248.3284,
449.947,6333.1248,
447.037,6349.2865,
444.126,6355.5242,
441.216,6374.5113,
438.305,6414.8937,
435.395,6463.1164,
432.484,6472.9974,
429.573,6463.6651,
426.663,6498.6316,
423.752,6538.4632,
420.842,6567.2872,
417.931,6605.1242,
415.020,6684.7518,
412.110,6734.3232,
409.199,6764.7029,
406.289,6796.4565,
403.378,6851.3617,
400.468,6810.538,
397.557,6766.651,
394.646,6749.8899,
391.736,6782.9447,
388.825,6765.5973,
385.915,6738.6801,
383.004,6747.1977,
380.094,6817.6901,
377.183,6841.0168,
374.272,6934.3449,
371.362,7016.3298,
368.451,7039.0501,
365.541,7064.5683,
362.630,7073.685,
359.719,7107.4645,
356.809,7188.2121,
353.898,7266.0872,
350.988,7263.6306,
348.077,7245.5329,
345.167,7252.0515,
342.256,7282.6813,
339.345,7322.3231,
336.435,7347.8344,
333.524,7343.4295,
330.614,7341.1941,
327.703,7393.8941,
324.793,7467.1856,
321.882,7532.4459,
318.971,7510.1426,
316.061,7523.0092,
313.150,7555.3547,
310.240,7590.2342,
307.329,7680.115,
304.418,7678.5678,
301.508,7633.9092,
298.597,7631.688,
295.687,7648.431,
292.776,7708.1669,
289.866,7830.1653,
286.955,8065.8187,
284.044,8213.9824,
281.134,8355.6684,
278.223,8509.4752,
275.313,8687.0573,
272.402,8881.3439,
269.492,9013.1943,
266.581,9066.3749,
263.670,9246.4941,
260.760,9381.5589,
257.849,9475.9772,
254.939,9528.8167,
252.028,9633.0098,
249.117,9700.8233,
246.207,9752.6834,
243.296,9822.959,
240.386,9857.2727,
237.475,9861.127,
234.565,9836.2175,
231.654,9783.6299,
228.743,9788.0349,
225.833,9790.658,
222.922,9770.7038,
220.012,9775.0752,
217.101,9743.1313,
214.191,9687.0811,
211.280,9615.7897,
208.369,9650.8688,
205.459,9678.8843,
202.548,9695.1351,
199.638,9716.1789,
196.727,9782.1551,
193.816,9863.9237,
190.906,9949.1857,
187.995,9968.7343,
185.085,10005.29,
182.174,10011.076,
179.264,9909.8891,
176.353,9910.6748,
173.442,9960.2818,
170.532,10030.208,
167.621,9984.7861,
164.711,9799.0627,
161.800,9513.7194,
158.890,9136.5821,
155.979,8546.0809,
153.068,7815.1234,
150.158,6960.5781,
147.247,5997.0862,
144.337,4950.5022,
141.426,3902.4013,
138.516,2890.1509,
135.605,2044.5438,
132.694,1399.5912,
129.784,930.84975,
126.873,624.77418,
123.963,433.32108,
121.052,298.6724,
118.141,205.86514,
115.231,164.99749,
112.320,134.94365,
109.410,112.13663,
106.499,89.347664,
103.589,83.939746,
100.678,77.795944,
97.767,62.866255,
94.857,59.728044,
91.946,60.918665,
89.036,63.145225,
86.125,54.634762,
83.215,50.376319,
80.304,47.063404,
77.393,42.814384,
74.483,44.465405,
71.572,44.050592,
68.662,40.183918,
65.751,26.761347,
62.840,25.390212,
59.930,29.811003,
57.019,34.746577,
54.109,28.33407,
51.198,25.912874,
48.288,31.449038,
45.377,25.118635,
42.466,24.973316,
39.556,27.809289,
36.645,23.596147,
33.735,20.423006,
30.824,17.174678,
27.914,12.967627,
25.003,17.4811,
22.092,21.468714,
19.182,23.362703,
16.271,19.165762,
13.361,44.473311,
10.450,50.851612,
7.539,-127.21881,
4.629,-380.02999,
1.718,-661.80645,
-1.192,-949.72714,
-4.103,-703.32602,
-7.013,-363.62446,
-9.924,-4.5,
