,PL4FB6~1,
Raman shift [1/cm],Intensity,
3014.167,0.625,
3011.256,0.37505368,
3008.346,235.86869,
3005.435,284.66387,
3002.525,283.45498,
2999.614,306.38734,
2996.704,313.80232,
2993.793,323.63422,
2990.882,326.79288,
2987.972,339.61491,
2985.061,337.625,
2982.151,342.02837,
2979.240,384.27232,
2976.329,391.11135,
2973.419,407.47096,
2970.508,411.30836,
2967.598,417.05151,
2964.687,407.53533,
2961.777,434.08679,
2958.866,456.29365,
2955.955,453.625,
2953.045,462.25811,
2950.134,475.78538,
2947.224,508.25491,
2944.313,496.52386,
2941.403,505.44662,
2938.492,547.4651,
2935.581,524.13055,
2932.671,546.86535,
2929.760,553.97116,
2926.850,559.57274,
2923.939,560.10161,
2921.028,567.77202,
2918.118,575.50662,
2915.207,588.625,
2912.297,602.56576,
2909.386,621.95349,
2906.476,611.16711,
2903.565,601.48056,
2900.654,598.80092,
2897.744,583.00217,
2894.833,609.32609,
2891.923,585.16339,
2889.012,591.58454,
2886.102,597.28985,
2883.191,598.62972,
2880.280,562.90728,
2877.370,539.53774,
2874.459,539.56216,
2871.549,579.17801,
2868.638,594.03325,
2865.727,627.25578,
2862.817,615.15308,
2859.906,633.08084,
2856.996,634.63406,
2854.085,625.58297,
2851.175,645.7425,
2848.264,627.35034,
2845.353,626.86224,
2842.443,635.62848,
2839.532,620.20717,
2836.622,601.77669,
2833.711,603.1509,
2830.801,595.53162,
2827.890,595.87676,
2824.979,609.76096,
2822.069,625.4203,
2819.158,610.66543,
2816.248,602.92421,
2813.337,609.4189,
2810.427,612.75723,
2807.516,627.30109,
2804.605,609.52886,
2801.695,631.45395,
2798.784,642.88577,
2795.874,621.35061,
2792.963,613.19649,
2790.052,617.62436,
2787.142,617.95404,
2784.231,617.69023,
2781.321,594.50504,
2778.410,613.01966,
2775.500,609.13707,
2772.589,623.31614,
2769.678,613.05159,
2766.768,632.98812,
2763.857,637.83309,
2760.947,622.65652,
2758.036,638.63781,
2755.126,655.23825,
2752.215,667.96588,
2749.304,653.41278,
2746.394,664.70559,
2743.483,666.57507,
2740.573,644.64045,
2737.662,641.96523,
2734.751,654.99866,
2731.841,661.625,
2728.930,682.17586,
2726.020,673.39525,
2723.109,668.51158,
2720.199,679.48748,
2717.288,683.1688,
2714.377,683.625,
2711.467,675.80522,
2708.556,685.31637,
2705.646,673.56862,
2702.735,695.46263,
2699.825,706.4723,
2696.914,685.29087,
2694.003,717.77135,
2691.093,699.21464,
2688.182,720.84426,
2685.272,698.02329,
2682.361,714.44815,
2679.450,730.50155,
2676.540,715.42176,
2673.629,706.28867,
2670.719,719.18693,
2667.808,717.06272,
2664.898,705.63764,
2661.987,727.89171,
2659.076,724.38793,
2656.166,720.88466,
2653.255,747.84439,
2650.345,741.51248,
2647.434,751.45352,
2644.524,750.39719,
2641.613,756.42513,
2638.702,761.57766,
2635.792,755.31194,
2632.881,755.00603,
2629.971,776.05468,
2627.060,760.79032,
2624.149,769.32813,
2621.239,786.16354,
2618.328,761.38797,
2615.418,772.32045,
2612.507,775.75933,
2609.597,771.09406,
2606.686,783.96236,
2603.775,791.2242,
2600.865,793.21205,
2597.954,777.21236,
2595.044,817.06166,
2592.133,801.57412,
2589.223,814.64922,
2586.312,833.49943,
2583.401,814.01188,
2580.491,819.89904,
2577.580,825.65471,
2574.670,836.42983,
2571.759,831.38783,
2568.848,819.57516,
2565.938,822.52963,
2563.027,840.625,
2560.117,827.27918,
2557.206,845.84271,
2554.296,864.71425,
2551.385,869.9889,
2548.474,856.21756,
2545.564,849.81493,
2542.653,869.79278,
2539.743,885.10652,
2536.832,882.09416,
2533.922,884.23077,
2531.011,860.99988,
2528.100,876.35326,
2525.190,895.32131,
2522.279,853.36023,
2519.369,881.38016,
2516.458,870.74044,
2513.548,901.51555,
2510.637,916.96497,
2507.726,886.6287,
2504.816,880.68814,
2501.905,895.17561,
2498.995,921.86388,
2496.084,925.01176,
2493.173,907.59818,
2490.263,897.81597,
2487.352,925.20927,
2484.442,934.35307,
2481.531,938.36953,
2478.621,949.32167,
2475.710,943.76302,
2472.799,949.78657,
2469.889,938.83281,
2466.978,934.59436,
2464.068,938.90548,
2461.157,961.35258,
2458.247,942.08082,
2455.336,933.96551,
2452.425,971.95995,
2449.515,968.15306,
2446.604,969.96362,
2443.694,996.69491,
2440.783,993.95721,
2437.872,963.84379,
2434.962,972.5144,
2432.051,982.08799,
2429.141,1002.8424,
2426.230,1007.8206,
2423.320,1016.7249,
2420.409,1014.3046,
2417.498,1001.2233,
2414.588,1021.2447,
2411.677,1032.5533,
2408.767,1031.3839,
2405.856,1040.6607,
2402.946,1032.196,
2400.035,1022.8269,
2397.124,1055.8603,
2394.214,1059.4614,
2391.303,1055.1995,
2388.393,1058.1459,
2385.482,1051.8453,
2382.571,1064.561,
2379.661,1098.5551,
2376.750,1111.8886,
2373.840,1087.8782,
2370.929,1091.5167,
2368.019,1096.3233,
2365.108,1096.5569,
2362.197,1097.5429,
2359.287,1092.8601,
2356.376,1089.6232,
2353.466,1103.6559,
2350.555,1105.5004,
2347.645,1110.5601,
2344.734,1122.5375,
2341.823,1120.7411,
2338.913,1136.8877,
2336.002,1155.1418,
2333.092,1145.3033,
2330.181,1155.4689,
2327.270,1162.515,
2324.360,1146.4975,
2321.449,1191.3461,
2318.539,1168.6892,
2315.628,1186.2713,
2312.718,1164.3607,
2309.807,1178.6744,
2306.896,1202.5937,
2303.986,1198.0212,
2301.075,1191.5825,
2298.165,1218.3372,
2295.254,1206.0989,
2292.344,1186.3594,
2289.433,1199.32,
2286.522,1212.7857,
2283.612,1238.6365,
2280.701,1235.5084,
2277.791,1243.3063,
2274.880,1261.337,
2271.969,1259.5015,
2269.059,1251.6523,
2266.148,1270.9455,
2263.238,1267.6289,
2260.327,1270.6596,
2257.417,1284.1506,
2254.506,1290.7162,
2251.595,1307.1922,
2248.685,1304.7327,
2245.774,1279.1968,
2242.864,1320.7821,
2239.953,1305.2113,
2237.043,1305.3143,
2234.132,1336.8405,
2231.221,1303.5679,
2228.311,1337.8157,
2225.400,1354.779,
2222.490,1391.4686,
2219.579,1384.805,
2216.669,1397.6298,
2213.758,1390.1021,
2210.847,1435.7937,
2207.937,1457.2178,
2205.026,1507.2926,
2202.116,1489.2778,
2199.205,1528.0615,
2196.294,1540.195,
2193.384,1546.414,
2190.473,1598.814,
2187.563,1596.8377,
2184.652,1649.9629,
2181.742,1718.5815,
2178.831,1762.341,
2175.920,1789.4429,
2173.010,1905.1329,
2170.099,1973.0883,
2167.189,2029.3282,
2164.278,2134.2552,
2161.368,2217.1918,
2158.457,2336.9245,
2155.546,2414.5924,
2152.636,2499.4015,
2149.725,2557.2424,
2146.815,2631.3225,
2143.904,2641.8554,
2140.993,2716.5562,
2138.083,2725.0961,
2135.172,2722.7258,
2132.262,2676.2016,
2129.351,2639.0111,
2126.441,2583.2656,
2123.530,2515.3342,
2120.619,2393.7813,
2117.709,2308.4998,
2114.798,2178.1016,
2111.888,2096.2641,
2108.977,1983.1548,
2106.067,1880.7467,
2103.156,1837.1098,
2100.245,1774.5867,
2097.335,1711.6983,
2094.424,1689.2478,
2091.514,1653.3292,
2088.603,1608.1459,
2085.692,1604.4055,
2082.782,1615.1431,
2079.871,1588.6238,
2076.961,1582.6896,
2074.050,1592.3644,
2071.140,1577.1185,
2068.229,1609.7526,
2065.318,1575.342,
2062.408,1580.8066,
2059.497,1566.2202,
2056.587,1578.8108,
2053.676,1539.7111,
2050.766,1542.5473,
2047.855,1528.0807,
2044.944,1544.9551,
2042.034,1542.9601,
2039.123,1521.8876,
2036.213,1545.8561,
2033.302,1544.7119,
2030.391,1557.2179,
2027.481,1561.3933,
2024.570,1565.682,
2021.660,1564.7433,
2018.749,1586.8909,
2015.839,1587.8409,
2012.928,1560.0495,
2010.017,1590.0018,
2007.107,1586.2063,
2004.196,1568.2202,
2001.286,1552.8335,
1998.375,1539.0118,
1995.465,1577.4616,
1992.554,1537.0372,
1989.643,1543.1411,
1986.733,1543.732,
1983.822,1542.0984,
1980.912,1519.9418,
1978.001,1522.3282,
1975.090,1548.1655,
1972.180,1551.8338,
1969.269,1560.0619,
1966.359,1565.1113,
1963.448,1539.5537,
1960.538,1536.0595,
1957.627,1547.3247,
1954.716,1559.309,
1951.806,1547.6682,
1948.895,1568.5177,
1945.985,1565.4338,
1943.074,1532.1489,
1940.164,1528.3075,
1937.253,1522.9682,
1934.342,1538.1036,
1931.432,1512.5335,
1928.521,1512.5093,
1925.611,1536.0404,
1922.700,1503.6361,
1919.790,1514.2953,
1916.879,1497.1595,
1913.968,1508.609,
1911.058,1506.1265,
1908.147,1553.7651,
1905.237,1533.4852,
1902.326,1513.2828,
1899.415,1540.0957,
1896.505,1527.3239,
1893.594,1539.1677,
1890.684,1535.3309,
1887.773,1514.496,
1884.863,1554.0988,
1881.952,1573.9526,
1879.041,1521.4531,
1876.131,1505.625,
1873.220,1516.0852,
1870.310,1552.8985,
1867.399,1539.8809,
1864.489,1565.4706,
1861.578,1494.0696,
1858.667,1556.3316,
1855.757,1554.625,
1852.846,1557.6404,
1849.936,1575.0895,
1847.025,1575.2211,
1844.114,1550.0862,
1841.204,1569.2334,
1838.293,1590.5967,
1835.383,1599.4275,
1832.472,1581.9502,
1829.562,1605.2875,
1826.651,1599.3766,
1823.740,1614.104,
1820.830,1639.0582,
1817.919,1618.3793,
1815.009,1640.8807,
1812.098,1632.1604,
1809.188,1632.501,
1806.277,1660.0053,
1803.366,1621.1075,
1800.456,1649.4601,
1797.545,1647.5469,
1794.635,1654.819,
1791.724,1655.3336,
1788.813,1713.417,
1785.903,1692.3769,
1782.992,1688.7978,
1780.082,1661.8932,
1777.171,1685.951,
1774.261,1681.9855,
1771.350,1716.6887,
1768.439,1710.1785,
1765.529,1723.1723,
1762.618,1733.1756,
1759.708,1741.3316,
1756.797,1738.2538,
1753.887,1739.4719,
1750.976,1726.2179,
1748.065,1741.9614,
1745.155,1759.7089,
1742.244,1769.8813,
1739.334,1808.4909,
1736.423,1811.6138,
1733.512,1786.251,
1730.602,1838.4664,
1727.691,1827.1509,
1724.781,1831.7834,
1721.870,1843.6727,
1718.960,1853.8473,
1716.049,1849.7522,
1713.138,1852.045,
1710.228,1894.3993,
1707.317,1891.7793,
1704.407,1904.9994,
1701.496,1909.3596,
1698.586,1907.777,
1695.675,1920.7249,
1692.764,1961.3873,
1689.854,1985.6289,
1686.943,2003.0517,
1684.033,2080.6629,
1681.122,2053.1348,
1678.211,2110.073,
1675.301,2141.5294,
1672.390,2089.942,
1669.480,2196.0261,
1666.569,2245.9932,
1663.659,2275.8663,
1660.748,2350.49,
1657.837,2344.4342,
1654.927,2383.0382,
1652.016,2483.9409,
1649.106,2498.51,
1646.195,2573.625,
1643.285,2575.1061,
1640.374,2638.6877,
1637.463,2643.2463,
1634.553,2733.3983,
1631.642,2852.8845,
1628.732,2968.1464,
1625.821,3055.7159,
1622.911,3193.8417,
1620.000,3375.3194,
1617.089,3628.5305,
1614.179,3827.013,
1611.268,3944.3124,
1608.358,4115.431,
1605.447,4280.1406,
1602.536,4316.6497,
1599.626,4440.9761,
1596.715,4447.9946,
1593.805,4374.2898,
1590.894,4334.8015,
1587.984,4304.6422,
1585.073,4220.6482,
1582.162,4283.4345,
1579.252,4236.4341,
1576.341,4178.5665,
1573.431,4148.0456,
1570.520,4126.5731,
1567.610,4066.4869,
1564.699,4055.6003,
1561.788,4011.4424,
1558.878,3893.3071,
1555.967,3877.3549,
1553.057,3812.8844,
1550.146,3741.8142,
1547.235,3684.8925,
1544.325,3620.9965,
1541.414,3578.5034,
1538.504,3557.4042,
1535.593,3510.6718,
1532.683,3436.0892,
1529.772,3413.4435,
1526.861,3407.462,
1523.951,3342.1436,
1521.040,3292.3479,
1518.130,3255.4877,
1515.219,3211.7454,
1512.309,3188.4493,
1509.398,3174.1514,
1506.487,3198.1376,
1503.577,3133.0659,
1500.666,3128.0141,
1497.756,3073.4223,
1494.845,3140.8635,
1491.934,3074.5715,
1489.024,3058.2091,
1486.113,2968.6123,
1483.203,2966.954,
1480.292,2969.322,
1477.382,2909.8146,
1474.471,2845.7454,
1471.560,2867.634,
1468.650,2841.3119,
1465.739,2797.0054,
1462.829,2798.7391,
1459.918,2824.5423,
1457.008,2815.8094,
1454.097,2797.9358,
1451.186,2809.3581,
1448.276,2830.4803,
1445.365,2822.4781,
1442.455,2794.6706,
1439.544,2839.1835,
1436.633,2804.8683,
1433.723,2824.3908,
1430.812,2780.9756,
1427.902,2697.8054,
1424.991,2705.3875,
1422.081,2695.5328,
1419.170,2692.8969,
1416.259,2614.0489,
1413.349,2603.9327,
1410.438,2631.1173,
1407.528,2606.2192,
1404.617,2620.6784,
1401.707,2651.5142,
1398.796,2655.2649,
1395.885,2657.9991,
1392.975,2671.2919,
1390.064,2666.6152,
1387.154,2599.5481,
1384.243,2505.5575,
1381.332,2545.949,
1378.422,2571.0496,
1375.511,2695.6414,
1372.601,2861.6645,
1369.690,2919.3433,
1366.780,2983.6515,
1363.869,3072.7257,
1360.958,3076.8572,
1358.048,3121.5829,
1355.137,3209.5136,
1352.227,3262.3179,
1349.316,3341.8366,
1346.406,3457.6499,
1343.495,3485.0815,
1340.584,3519.7681,
1337.674,3525.814,
1334.763,3683.8607,
1331.853,3637.4992,
1328.942,3661.4195,
1326.032,3694.803,
1323.121,3803.8781,
1320.210,3866.2618,
1317.300,3893.7906,
1314.389,3922.1254,
1311.479,3959.7219,
1308.568,4041.2996,
1305.657,4132.7582,
1302.747,4133.4506,
1299.836,4225.576,
1296.926,4303.718,
1294.015,4456.3257,
1291.105,4474.9526,
1288.194,4600.4302,
1285.283,4681.0292,
1282.373,4769.6013,
1279.462,4839.8205,
1276.552,4870.6644,
1273.641,4899.2626,
1270.731,4926.0981,
1267.820,4916.012,
1264.909,4935.9197,
1261.999,4794.2561,
1259.088,4838.95,
1256.178,4807.3667,
1253.267,4724.9055,
1250.356,4689.4344,
1247.446,4582.1212,
1244.535,4493.7768,
1241.625,4418.8955,
1238.714,4307.782,
1235.804,4235.1154,
1232.893,4179.3754,
1229.982,4173.6387,
1227.072,4055.9481,
1224.161,4031.6554,
1221.251,3921.4157,
1218.340,3856.1213,
1215.430,3797.6832,
1212.519,3738.176,
1209.608,3714.295,
1206.698,3718.7525,
1203.787,3696.1727,
1200.877,3672.3643,
1197.966,3764.9777,
1195.055,3878.8408,
1192.145,3962.2405,
1189.234,4034.8796,
1186.324,4101.9015,
1183.413,4157.5895,
1180.503,4175.8328,
1177.592,4159.2716,
1174.681,4170.1901,
1171.771,4135.6688,
1168.860,3964.1956,
1165.950,3907.3105,
1163.039,3882.9585,
1160.129,3842.4134,
1157.218,3811.414,
1154.307,3788.0419,
1151.397,3739.728,
1148.486,3679.723,
1145.576,3689.4663,
1142.665,3639.7432,
1139.754,3633.1841,
1136.844,3592.0074,
1133.933,3585.1821,
1131.023,3571.8528,
1128.112,3558.2665,
1125.202,3573.4511,
1122.291,3574.5213,
1119.380,3629.4691,
1116.470,3613.5836,
1113.559,3613.1715,
1110.649,3622.138,
1107.738,3682.3501,
1104.828,3697.7531,
1101.917,3651.3291,
1099.006,3654.3053,
1096.096,3670.3887,
1093.185,3650.1946,
1090.275,3629.2025,
1087.364,3643.1503,
1084.453,3665.6866,
1081.543,3635.4322,
1078.632,3592.3402,
1075.722,3620.3952,
1072.811,3650.2455,
1069.901,3658.9781,
1066.990,3702.4666,
1064.079,3733.7209,
1061.169,3759.0894,
1058.258,3804.6569,
1055.348,3847.8612,
1052.437,3851.4964,
1049.527,3892.1621,
1046.616,3906.0633,
1043.705,3887.5851,
1040.795,3878.4325,
1037.884,3875.1078,
1034.974,3888.8943,
1032.063,3918.9172,
1029.153,3929.0937,
1026.242,3899.6852,
1023.331,3967.7872,
1020.421,3985.8076,
1017.510,3985.9442,
1014.600,4010.4237,
1011.689,4069.856,
1008.778,4144.2598,
1005.868,4224.3972,
1002.957,4310.4326,
1000.047,4486.6971,
997.136,4639.2478,
994.226,4680.8715,
991.315,4617.6127,
988.404,4529.8427,
985.494,4487.4193,
982.583,4388.9153,
979.673,4341.7009,
976.762,4267.3922,
973.852,4244.3995,
970.941,4264.9938,
968.030,4247.4168,
965.120,4223.668,
962.209,4233.8985,
959.299,4254.7477,
956.388,4278.304,
953.477,4283.2265,
950.567,4283.0819,
947.656,4314.8532,
944.746,4331.8443,
941.835,4326.9563,
938.925,4342.7343,
936.014,4368.3173,
933.103,4379.3286,
930.193,4359.4374,
927.282,4314.6379,
924.372,4241.0701,
921.461,4249.2986,
918.551,4178.3609,
915.640,4107.327,
912.729,4088.2351,
909.819,4084.2846,
906.908,4021.1028,
903.998,4074.0959,
901.087,4123.6328,
898.176,4139.3302,
895.266,4151.1297,
892.355,4198.0904,
889.445,4259.3569,
886.534,4249.6065,
883.624,4310.8712,
880.713,4346.2182,
877.802,4379.4585,
874.892,4415.4242,
871.981,4333.6189,
869.071,4291.0128,
866.160,4298.1142,
863.250,4296.2378,
860.339,4305.0918,
857.428,4312.2419,
854.518,4218.9971,
851.607,4266.425,
848.697,4294.5717,
845.786,4276.1198,
842.875,4255.8682,
839.965,4279.4555,
837.054,4342.318,
834.144,4314.9692,
831.233,4319.6243,
828.323,4320.1739,
825.412,4291.7997,
822.501,4247.7315,
819.591,4281.6139,
816.680,4160.0286,
813.770,4131.5045,
810.859,4112.7704,
807.949,4091.6567,
805.038,4103.2091,
802.127,4132.8417,
799.217,4081.2115,
796.306,4047.3006,
793.396,4031.3425,
790.485,4022.9404,
787.574,4017.2789,
784.664,4034.5012,
781.753,3993.3401,
778.843,4001.0299,
775.932,4039.6496,
773.022,4063.7113,
770.111,4102.955,
767.200,4051.5718,
764.290,4046.7604,
761.379,4069.0165,
758.469,4082.5099,
755.558,4054.4094,
752.648,4013.6792,
749.737,3988.6525,
746.826,3957.7126,
743.916,3887.6698,
741.005,3746.2227,
738.095,3521.3328,
735.184,3309.4245,
732.274,3278.7486,
729.363,3438.668,
726.452,3707.299,
723.542,3871.6059,
720.631,3915.7938,
717.721,3923.7608,
714.810,3948.6532,
711.899,4000.7141,
708.989,4035.4119,
706.078,4034.0224,
703.168,3980.1896,
700.257,3955.1142,
697.347,3965.3645,
694.436,3951.5301,
691.525,3874.3648,
688.615,3885.926,
685.704,3897.4447,
682.794,3880.7953,
679.883,3850.319,
676.973,3887.9835,
674.062,3890.5203,
671.151,3913.9248,
668.241,3950.9605,
665.330,3959.0535,
662.420,3904.7397,
659.509,3884.736,
656.598,3899.0987,
653.688,3931.7563,
650.777,3954.1129,
647.867,3909.5185,
644.956,3936.774,
642.046,3967.917,
639.135,3971.2406,
636.224,3939.6449,
633.314,3943.6146,
630.403,3952.3107,
627.493,3980.2854,
624.582,4021.3924,
621.672,4042.7763,
618.761,4026.9063,
615.850,4049.1744,
612.940,4114.6584,
610.029,4193.0217,
607.119,4165.3846,
604.208,4125.7043,
601.297,4106.1383,
598.387,4115.0967,
595.476,4146.3223,
592.566,4121.9232,
589.655,4137.0617,
586.745,4136.7758,
583.834,4116.6962,
580.923,4095.5255,
578.013,4079.0461,
575.102,4070.6099,
572.192,4076.9144,
569.281,4101.358,
566.371,4144.4023,
563.460,4187.4258,
560.549,4206.5487,
557.639,4212.8478,
554.728,4221.8714,
551.818,4225.7729,
548.907,4246.1262,
545.996,4264.4568,
543.086,4271.2763,
540.175,4260.3753,
537.265,4274.8349,
534.354,4304.7062,
531.444,4350.3603,
528.533,4404.9695,
525.622,4381.6911,
522.712,4385.7263,
519.801,4417.211,
516.891,4476.7796,
513.980,4566.5979,
511.070,4584.4859,
508.159,4611.0706,
505.248,4645.3891,
502.338,4675.8902,
499.427,4719.1127,
496.517,4766.2613,
493.606,4789.2506,
490.695,4782.9787,
487.785,4799.9141,
484.874,4847.2144,
481.964,4851.2764,
479.053,4813.616,
476.143,4775.9858,
473.232,4749.1653,
470.321,4775.6317,
467.411,4813.625,
464.500,4812.0347,
461.590,4749.244,
458.679,4770.1456,
455.769,4773.2692,
452.858,4715.045,
449.947,4747.894,
447.037,4807.4132,
444.126,4822.7705,
441.216,4789.8313,
438.305,4785.2597,
435.395,4788.5588,
432.484,4790.2082,
429.573,4788.205,
426.663,4782.1239,
423.752,4752.3334,
420.842,4694.8698,
417.931,4663.6028,
415.020,4740.9553,
412.110,4857.025,
409.199,4892.268,
406.289,4908.2551,
403.378,4977.438,
400.468,4922.2504,
397.557,4910.7948,
394.646,4895.616,
391.736,4837.0314,
388.825,4787.2522,
385.915,4720.47,
383.004,4699.7528,
380.094,4769.0744,
377.183,4895.4904,
374.272,4962.649,
371.362,5030.8308,
368.451,5126.0233,
365.541,5066.731,
362.630,5100.3329,
359.719,5143.9927,
356.809,5149.5344,
353.898,5148.0368,
350.988,5162.2721,
348.077,5176.3675,
345.167,5184.8254,
342.256,5267.75,
339.345,5282.0592,
336.435,5289.4478,
333.524,5331.7524,
330.614,5367.5199,
327.703,5380.1652,
324.793,5391.4211,
321.882,5419.6863,
318.971,5444.9633,
316.061,5469.7394,
313.150,5494.4774,
310.240,5519.7093,
307.329,5603.5229,
304.418,5646.656,
301.508,5658.0342,
298.597,5655.813,
295.687,5652.916,
292.776,5730.7921,
289.866,5887.7094,
286.955,6106.3721,
284.044,6340.0248,
281.134,6576.8577,
278.223,6817.3483,
275.313,7075.2477,
272.402,7230.1213,
269.492,7368.2135,
266.581,7515.0903,
263.670,7591.549,
260.760,7745.2656,
257.849,7896.4203,
254.939,7984.4862,
252.028,8066.6956,
249.117,8124.121,
246.207,8137.2522,
243.296,8066.2446,
240.386,8029.8934,
237.475,7989.6528,
234.565,7930.6444,
231.654,7810.1311,
228.743,7715.5808,
225.833,7611.573,
222.922,7491.0327,
220.012,7499.7753,
217.101,7369.641,
214.191,7227.0352,
211.280,7211.7585,
208.369,7144.0165,
205.459,7055.73,
202.548,6983.7838,
199.638,7054.1718,
196.727,7063.4391,
193.816,7075.8802,
190.906,7112.2029,
187.995,7071.6575,
185.085,7072.7564,
182.174,7080.6144,
179.264,7047.3671,
176.353,7071.1785,
173.442,7100.0396,
170.532,7118.9206,
167.621,7078.546,
164.711,6984.5853,
161.800,6810.3361,
158.890,6519.5662,
155.979,6126.2946,
153.068,5643.2694,
150.158,5064.3782,
147.247,4339.9644,
144.337,3579.7204,
141.426,2825.9196,
138.516,2098.9919,
135.605,1501.6169,
132.694,1020.8647,
129.784,656.6503,
126.873,446.40212,
123.963,312.00471,
121.052,216.84568,
118.141,151.8806,
115.231,123.91276,
112.320,103.30501,
109.410,89.125092,
106.499,81.291385,
103.589,67.299402,
100.678,56.810135,
97.767,54.677322,
94.857,50.467066,
91.946,44.593891,
89.036,38.737898,
86.125,39.447103,
83.215,41.217761,
80.304,41.188404,
77.393,36.939384,
74.483,30.07365,
71.572,29.161465,
68.662,32.724523,
65.751,23.540658,
62.840,23.515212,
59.930,25.12671,
57.019,19.486055,
54.109,17.430678,
51.198,17.831437,
48.288,20.681624,
45.377,27.715405,
42.466,30.625,
39.556,29.704051,
36.645,24.08653,
33.735,24.182745,
30.824,24.741452,
27.914,21.936751,
25.003,16.6439,
22.092,14.270809,
19.182,16.540315,
16.271,44.51992,
13.361,151.71742,
10.450,347.32557,
7.539,717.43272,
4.629,911.21042,
1.718,862.78864,
-1.192,406.85611,
-4.103,193.66928,
-7.013,66.567009,
-9.924,4.625,
