,PLCB0C~1,
Wavenumbers [1/cm],Intensity,
3014.167,-3,
3011.256,1.6999356,
3008.346,150.64331,
3005.435,169.61484,
3002.525,178.88758,
2999.614,192.43505,
2996.704,186.45154,
2993.793,173.48618,
2990.882,183.43512,
2987.972,210.96469,
2985.061,196.46304,
2982.151,206.37481,
2979.240,221.24426,
2976.329,245.23771,
2973.419,227.58434,
2970.508,236.53335,
2967.598,247.71687,
2964.687,255.79144,
2961.777,246.28202,
2958.866,254.33581,
2955.955,252.5177,
2953.045,253.31994,
2950.134,280.63849,
2947.224,281.59785,
2944.313,295.70798,
2941.403,298.42883,
2938.492,297.33064,
2935.581,301.09697,
2932.671,296.16312,
2929.760,305.04999,
2926.850,299.94774,
2923.939,306.71492,
2921.028,330.93536,
2918.118,321,
2915.207,326.88615,
2912.297,342.94922,
2909.386,331.97811,
2906.476,332.67414,
2903.565,343.8726,
2900.654,326.78765,
2897.744,332.31431,
2894.833,340.0931,
2891.923,315.1891,
2889.012,318.78613,
2886.102,346.66485,
2883.191,358.99434,
2880.280,322.26317,
2877.370,296.41296,
2874.459,303.42125,
2871.549,298.97389,
2868.638,342.54843,
2865.727,343.08075,
2862.817,338.79947,
2859.906,358.02564,
2856.996,356.04529,
2854.085,341.59873,
2851.175,348.09637,
2848.264,356.56867,
2845.353,366.59023,
2842.443,345.60418,
2839.532,361.40287,
2836.622,350.91016,
2833.711,349.68916,
2830.801,354.79118,
2827.890,336.87765,
2824.979,355.13596,
2822.069,349.0796,
2819.158,351.43935,
2816.248,344.74711,
2813.337,349.7939,
2810.427,351.69835,
2807.516,352.05031,
2804.605,368.2476,
2801.695,374.17105,
2798.784,352.55238,
2795.874,366.72032,
2792.963,359.07138,
2790.052,350.00172,
2787.142,350.19742,
2784.231,345.3556,
2781.321,359.37716,
2778.410,362.09518,
2775.500,379.44413,
2772.589,345.50228,
2769.678,380.92832,
2766.768,368.20192,
2763.857,368.73603,
2760.947,364.51576,
2758.036,385.63706,
2755.126,388.6624,
2752.215,387.76803,
2749.304,390.95682,
2746.394,377.44551,
2743.483,393.45,
2740.573,379.69242,
2737.662,365.25443,
2734.751,381.9758,
2731.841,386.02748,
2728.930,399.73315,
2726.020,385.55613,
2723.109,379.79392,
2720.199,412.27504,
2717.288,404.91241,
2714.377,410.09574,
2711.467,406,
2708.556,412.25516,
2705.646,405.32391,
2702.735,413.00516,
2699.825,422.89093,
2696.914,418.28544,
2694.003,419.48618,
2691.093,410.19616,
2688.182,407.58222,
2685.272,417.48649,
2682.361,413.00546,
2679.450,428.04529,
2676.540,396.5894,
2673.629,420.02245,
2670.719,419.63494,
2667.808,419.29181,
2664.898,456.98736,
2661.987,446.06684,
2659.076,425.06898,
2656.166,412.82251,
2653.255,421.62585,
2650.345,439.05626,
2647.434,434.94313,
2644.524,438.82251,
2641.613,442.02891,
2638.702,458.82641,
2635.792,437.68694,
2632.881,455.85691,
2629.971,447.67774,
2627.060,441.83219,
2624.149,449.1625,
2621.239,457.52075,
2618.328,441.05968,
2615.418,463.00909,
2612.507,465.20551,
2609.597,469.90818,
2606.686,455.53214,
2603.775,473.68254,
2600.865,465.94534,
2597.954,467.47295,
2595.044,470.21524,
2592.133,484.77058,
2589.223,502.85581,
2586.312,486.70852,
2583.401,492.75547,
2580.491,495.08172,
2577.580,497.9967,
2574.670,497.66042,
2571.759,494.29281,
2568.848,494.58567,
2565.938,503.42861,
2563.027,498,
2560.117,502.44861,
2557.206,511.32841,
2554.296,488.52174,
2551.385,507.73588,
2548.474,506.07435,
2545.564,507.15828,
2542.653,521.44296,
2539.743,502.50616,
2536.832,521.63365,
2533.922,505.37846,
2531.011,530.09991,
2528.100,540.99654,
2525.190,521.91107,
2522.279,532.85931,
2519.369,528.49066,
2516.458,530.00354,
2513.548,533.19092,
2510.637,528.44666,
2507.726,524.05949,
2504.816,538.06314,
2501.905,533.07256,
2498.995,516.07494,
2496.084,540.05231,
2493.173,553.23675,
2490.263,546.21355,
2487.352,537.3772,
2484.442,570.70877,
2481.531,570.26069,
2478.621,574.44553,
2475.710,548.03067,
2472.799,557.42595,
2469.889,570.60664,
2466.978,570.60821,
2464.068,594.02653,
2461.157,583.7651,
2458.247,569.4118,
2455.336,581.25441,
2452.425,593.02359,
2449.515,587.24532,
2446.604,579.48163,
2443.694,571.30266,
2440.783,593.38401,
2437.872,592,
2434.962,595.41474,
2432.051,589.88244,
2429.141,600.33496,
2426.230,587.62978,
2423.320,605.78561,
2420.409,607.73081,
2417.498,598.61516,
2414.588,595.81749,
2411.677,620.52981,
2408.767,585.3002,
2405.856,602.69045,
2402.946,620.32171,
2400.035,604.42252,
2397.124,628.67379,
2394.214,628.48521,
2391.303,623.43089,
2388.393,625.26743,
2385.482,594.36592,
2382.571,599.83547,
2379.661,619.09266,
2376.750,648.9483,
2373.840,635.80317,
2370.929,654.76175,
2368.019,651.78199,
2365.108,671.65183,
2362.197,658.43011,
2359.287,625.26016,
2356.376,652.93836,
2353.466,661.16606,
2350.555,668.02493,
2347.645,664.40795,
2344.734,678.18437,
2341.823,692.81758,
2338.913,673,
2336.002,680.78701,
2333.092,678.23016,
2330.181,693.16105,
2327.270,682.15511,
2324.360,671.92454,
2321.449,673.07825,
2318.539,685.40366,
2315.628,695.64629,
2312.718,702,
2309.807,682,
2306.896,686.0313,
2303.986,694.95452,
2301.075,691,
2298.165,715.74085,
2295.254,709.28006,
2292.344,702,
2289.433,714.76455,
2286.522,728.70545,
2283.612,718.69005,
2280.701,713.80719,
2277.791,726.16217,
2274.880,754.85598,
2271.969,749.48971,
2269.059,737.67575,
2266.148,749.21369,
2263.238,754.79923,
2260.327,756.41358,
2257.417,742.82833,
2254.506,778.92312,
2251.595,788.14913,
2248.685,769.74236,
2245.774,790.23033,
2242.864,765.62092,
2239.953,787.17934,
2237.043,781.77928,
2234.132,772.53771,
2231.221,783.89674,
2228.311,782.43171,
2225.400,792.67549,
2222.490,811.35821,
2219.579,805.01807,
2216.669,811.10016,
2213.758,803.04577,
2210.847,819.67253,
2207.937,833.51139,
2205.026,854.44402,
2202.116,862.5913,
2199.205,848.05035,
2196.294,845.49599,
2193.384,858.94702,
2190.473,883.59155,
2187.563,849.24651,
2184.652,902.25918,
2181.742,919.43237,
2178.831,933.95722,
2175.920,944.2459,
2173.010,946.54989,
2170.099,1019.6583,
2167.189,1033.3014,
2164.278,1087.0322,
2161.368,1165.8561,
2158.457,1204.9451,
2155.546,1251.5443,
2152.636,1319.4733,
2149.725,1373.4563,
2146.815,1428.3316,
2143.904,1494.0148,
2140.993,1531.164,
2138.083,1553.237,
2135.172,1572.1092,
2132.262,1594.6752,
2129.351,1581.2619,
2126.441,1561.165,
2123.530,1573.0796,
2120.619,1482.0922,
2117.709,1403.9151,
2114.798,1345.4037,
2111.888,1288.6391,
2108.977,1211.1324,
2106.067,1157.1816,
2103.156,1082.8922,
2100.245,1054.9937,
2097.335,1037.534,
2094.424,988.74439,
2091.514,987.69338,
2088.603,956.32257,
2085.692,935.17487,
2082.782,932.84328,
2079.871,944.75029,
2076.961,932.90409,
2074.050,933.72727,
2071.140,943.3337,
2068.229,913.28517,
2065.318,911.01352,
2062.408,923.13617,
2059.497,898.36902,
2056.587,892.96504,
2053.676,913.78219,
2050.766,894.92452,
2047.855,891.82589,
2044.944,917.07373,
2042.034,900.36997,
2039.123,915.14141,
2036.213,914.4066,
2033.302,904.15205,
2030.391,901.9833,
2027.481,913.3657,
2024.570,905.51464,
2021.660,939.69396,
2018.749,937.03799,
2015.839,936.1168,
2012.928,927.90772,
2010.017,934.1824,
2007.107,916.65046,
2004.196,927.8691,
2001.286,949.64663,
1998.375,924.77361,
1995.465,921.43928,
1992.554,912.60598,
1989.643,911,
1986.733,929.73246,
1983.822,925.70532,
1980.912,930,
1978.001,920.59368,
1975.090,904.78168,
1972.180,928.89492,
1969.269,932.28156,
1966.359,911.9188,
1963.448,930.3765,
1960.538,946.30359,
1957.627,905.2012,
1954.716,882.51708,
1951.806,912.04968,
1948.895,908.15392,
1945.985,878.26798,
1943.074,885.11079,
1940.164,872.13466,
1937.253,877.29128,
1934.342,891.10267,
1931.432,908.19558,
1928.521,906.15544,
1925.611,887.86379,
1922.700,876.45995,
1919.790,910.31174,
1916.879,863.90597,
1913.968,903.9459,
1911.058,875.78379,
1908.147,899.80437,
1905.237,893.38972,
1902.326,892.40742,
1899.415,874.32805,
1896.505,880.48199,
1893.594,884.91157,
1890.684,884.13069,
1887.773,891.46543,
1884.863,915.68565,
1881.952,907.07521,
1879.041,898.75649,
1876.131,874.56864,
1873.220,854.18136,
1870.310,900.26897,
1867.399,920.72811,
1864.489,920.4812,
1861.578,883.6538,
1858.667,891.76047,
1855.757,901.40215,
1852.846,905.53331,
1849.936,917.74475,
1847.025,901.3528,
1844.114,922.52007,
1841.204,933.6049,
1838.293,910.99834,
1835.383,928.94148,
1832.472,918.09217,
1829.562,926.55209,
1826.651,931.42712,
1823.740,922.63218,
1820.830,946.46479,
1817.919,940.96998,
1815.009,954.26844,
1812.098,927.37797,
1809.188,948.38754,
1806.277,918.70822,
1803.366,966.16636,
1800.456,977.64872,
1797.545,1002.3122,
1794.635,964.19397,
1791.724,957.28148,
1788.813,984.60077,
1785.903,991.2209,
1782.992,995.611,
1780.082,972.71136,
1777.171,972.66327,
1774.261,978.61538,
1771.350,1020.8938,
1768.439,1029.6161,
1765.529,1010.9981,
1762.618,1011.5613,
1759.708,1035.2175,
1756.797,1056.8333,
1753.887,1044.4344,
1750.976,1032.8966,
1748.065,1078.1674,
1745.155,1049.7101,
1742.244,1056.7418,
1739.334,1058.1977,
1736.423,1052.1196,
1733.512,1079.1952,
1730.602,1115.1806,
1727.691,1108.6468,
1724.781,1114.2255,
1721.870,1101.7094,
1718.960,1084.0221,
1716.049,1118.7539,
1713.138,1111.4651,
1710.228,1107.2594,
1707.317,1152.9977,
1704.407,1115.8769,
1701.496,1132.8771,
1698.586,1150.7077,
1695.675,1202.5283,
1692.764,1192.7459,
1689.854,1207.3071,
1686.943,1204.1349,
1684.033,1238.1307,
1681.122,1233.102,
1678.211,1227.0571,
1675.301,1218.0278,
1672.390,1337.8475,
1669.480,1287.3048,
1666.569,1325.2412,
1663.659,1344.9963,
1660.748,1405.5206,
1657.837,1432,
1654.927,1431.1331,
1652.016,1395.7047,
1649.106,1425.8361,
1646.195,1500.9421,
1643.285,1578.1543,
1640.374,1501.5087,
1637.463,1619.8107,
1634.553,1663.7783,
1631.642,1650.3572,
1628.732,1774.1718,
1625.821,1803.0837,
1622.911,1930.2787,
1620.000,2040.6015,
1617.089,2154.7114,
1614.179,2291.1083,
1611.268,2436.5348,
1608.358,2564.0066,
1605.447,2677.4866,
1602.536,2783.7119,
1599.626,2717.4054,
1596.715,2739.1356,
1593.805,2707.1211,
1590.894,2714.4487,
1587.984,2683.0885,
1585.073,2652.4755,
1582.162,2591.2277,
1579.252,2552.1778,
1576.341,2497.1351,
1573.431,2485,
1570.520,2437.6086,
1567.610,2439.3924,
1564.699,2412.3737,
1561.788,2376.0566,
1558.878,2329.1308,
1555.967,2335.1233,
1553.057,2306.1728,
1550.146,2275.0109,
1547.235,2250.5192,
1544.325,2151.6047,
1541.414,2089.2403,
1538.504,2094.569,
1535.593,2035.1619,
1532.683,1970.4594,
1529.772,1971.4312,
1526.861,1939.0091,
1523.951,1901.9271,
1521.040,1917.5466,
1518.130,1897.4713,
1515.219,1870.6001,
1512.309,1865.5135,
1509.398,1851.5477,
1506.487,1823.3382,
1503.577,1838.9212,
1500.666,1764.5669,
1497.756,1781.5006,
1494.845,1834.119,
1491.934,1789.0724,
1489.024,1811.2098,
1486.113,1744.3133,
1483.203,1768.3095,
1480.292,1716.8468,
1477.382,1663.3546,
1474.471,1665.2781,
1471.560,1681.3363,
1468.650,1645.6869,
1465.739,1643.0123,
1462.829,1646.6286,
1459.918,1617.5854,
1457.008,1604.1078,
1454.097,1613.3108,
1451.186,1607.6828,
1448.276,1601.5345,
1445.365,1608.7496,
1442.455,1603.18,
1439.544,1590.4559,
1436.633,1559.0685,
1433.723,1580.6322,
1430.812,1566.512,
1427.902,1598.3608,
1424.991,1613.525,
1422.081,1558.0339,
1419.170,1562.5047,
1416.259,1504.8654,
1413.349,1473.6295,
1410.438,1495.2914,
1407.528,1521.1623,
1404.617,1488.4882,
1401.707,1471.6587,
1398.796,1512.2097,
1395.885,1507.9682,
1392.975,1464.2713,
1390.064,1498.5984,
1387.154,1518.0081,
1384.243,1472.2783,
1381.332,1540.6479,
1378.422,1581.7195,
1375.511,1653.8516,
1372.601,1639.3333,
1369.690,1686.0045,
1366.780,1687.6637,
1363.869,1752.8359,
1360.958,1810.3506,
1358.048,1832.9331,
1355.137,1890.6198,
1352.227,1949.0654,
1349.316,1974.2202,
1346.406,2008.4111,
1343.495,2041.9826,
1340.584,2058.7856,
1337.674,2074.0753,
1334.763,2132.5766,
1331.853,2121.4498,
1328.942,2193.9361,
1326.032,2241.3342,
1323.121,2275.1928,
1320.210,2333.2781,
1317.300,2382.1995,
1314.389,2409.7919,
1311.479,2491.65,
1308.568,2611.6577,
1305.657,2673.3621,
1302.747,2726.6344,
1299.836,2818.7568,
1296.926,2868.8801,
1294.015,2909.3303,
1291.105,2985.8461,
1288.194,3053.5095,
1285.283,3108.8122,
1282.373,3152.8436,
1279.462,3216.7638,
1276.552,3303.386,
1273.641,3401.6547,
1270.731,3470.0597,
1267.820,3469.0244,
1264.909,3489.9448,
1261.999,3472.5367,
1259.088,3405.0397,
1256.178,3337.6222,
1253.267,3291.709,
1250.356,3236.3012,
1247.446,3156.914,
1244.535,3072.393,
1241.625,2974.7113,
1238.714,2853.0321,
1235.804,2746.4224,
1232.893,2698.2604,
1229.982,2648.7309,
1227.072,2581.7378,
1224.161,2479.5016,
1221.251,2414.0959,
1218.340,2369.4963,
1215.430,2339.6861,
1212.519,2302.6455,
1209.608,2282.2769,
1206.698,2296.1488,
1203.787,2286.9849,
1200.877,2313.4985,
1197.966,2305.4061,
1195.055,2406.5366,
1192.145,2466.8266,
1189.234,2528.3618,
1186.324,2564.3646,
1183.413,2589.7817,
1180.503,2603.2431,
1177.592,2591.9496,
1174.681,2595.4966,
1171.771,2529.7321,
1168.860,2518.122,
1165.950,2448.4654,
1163.039,2433.3968,
1160.129,2446.9768,
1157.218,2439.1742,
1154.307,2418.0318,
1151.397,2408.8291,
1148.486,2394.0029,
1145.576,2377.5782,
1142.665,2390.8969,
1139.754,2409.0862,
1136.844,2380.7861,
1133.933,2374.0381,
1131.023,2377.5837,
1128.112,2387.784,
1125.202,2416.0048,
1122.291,2437.1226,
1119.380,2431.1472,
1116.470,2446.1502,
1113.559,2475.837,
1110.649,2472.8676,
1107.738,2442.3524,
1104.828,2419.7517,
1101.917,2404.6858,
1099.006,2370.7217,
1096.096,2363.0639,
1093.185,2413.1101,
1090.275,2391.1034,
1087.364,2388.4306,
1084.453,2406.8739,
1081.543,2452.4284,
1078.632,2499.6411,
1075.722,2504.2895,
1072.811,2471.1862,
1069.901,2473.8059,
1066.990,2517.6499,
1064.079,2530.7221,
1061.169,2552.9874,
1058.258,2566.1886,
1055.348,2553.3571,
1052.437,2542.2155,
1049.527,2576.8853,
1046.616,2522.1491,
1043.705,2566.0997,
1040.795,2575.2535,
1037.884,2568.9656,
1034.974,2576.0554,
1032.063,2585.608,
1029.153,2563.0386,
1026.242,2571.6882,
1023.331,2596.9984,
1020.421,2633.3696,
1017.510,2685.659,
1014.600,2742.2217,
1011.689,2781.4208,
1008.778,2797.1839,
1005.868,2839.1699,
1002.957,2858.0977,
1000.047,2974.568,
997.136,3037.5564,
994.226,3065.8306,
991.315,3063.5149,
988.404,3010.0828,
985.494,2963.9425,
982.583,2961.3728,
979.673,2982.9494,
976.762,2957.5352,
973.852,2930.9059,
970.941,2931.1493,
968.030,2942.6532,
965.120,2951.9427,
962.209,2938.302,
959.299,2948.7485,
956.388,2954,
953.477,2971.2632,
950.567,3010.1169,
947.656,3045.2093,
944.746,3008.6784,
941.835,3038.5827,
938.925,3031.5229,
936.014,3005.7903,
933.103,2978.4665,
930.193,2961,
927.282,2956.3255,
924.372,2870.0736,
921.461,2797.1424,
918.551,2734.9156,
915.640,2711.0993,
912.729,2717.4633,
909.819,2711.5518,
906.908,2677.8548,
903.998,2643.3901,
901.087,2690.376,
898.176,2711.0245,
895.266,2715.8221,
892.355,2762.2089,
889.445,2816.7613,
886.534,2822.8441,
883.624,2806.5064,
880.713,2819.4349,
877.802,2838.9578,
874.892,2821.7407,
871.981,2753.4082,
869.071,2728.3458,
866.160,2730.8996,
863.250,2796.3801,
860.339,2853,
857.428,2847.0694,
854.518,2820.8205,
851.607,2780.0491,
848.697,2753.0533,
845.786,2724.2793,
842.875,2745.8485,
839.965,2835.447,
837.054,2905.6279,
834.144,2872.4778,
831.233,2866.6666,
828.323,2867,
825.412,2869.5757,
822.501,2873.5106,
819.591,2865.2466,
816.680,2861.7949,
813.770,2817.1448,
810.859,2770.6942,
807.949,2738.5585,
805.038,2715.8141,
802.127,2689.4741,
799.217,2680.2915,
796.306,2633.1618,
793.396,2600.5573,
790.485,2606.1587,
787.574,2616.0072,
784.664,2563.52,
781.753,2598.9559,
778.843,2620.0198,
775.932,2626.7159,
773.022,2650.7203,
770.111,2694.0519,
767.200,2657.4118,
764.290,2618.4176,
761.379,2633.2665,
758.469,2685.1629,
755.558,2680.6871,
752.648,2636.6985,
749.737,2632.5695,
746.826,2626.1418,
743.916,2615.4416,
741.005,2610.6986,
738.095,2581.4711,
735.184,2514.3597,
732.274,2459.5497,
729.363,2450.1478,
726.452,2489.8471,
723.542,2522.2228,
720.631,2550.7589,
717.721,2556.7086,
714.810,2554.6193,
711.899,2554.3762,
708.989,2555.9901,
706.078,2576.8339,
703.168,2564.3906,
700.257,2546.8114,
697.347,2540.6084,
694.436,2549.1271,
691.525,2516.9749,
688.615,2532.6408,
685.704,2533.4809,
682.794,2525.8935,
679.883,2554.3152,
676.973,2539.0891,
674.062,2558.971,
671.151,2578.575,
668.241,2574.6111,
665.330,2536.2101,
662.420,2561.7695,
659.509,2560.0158,
656.598,2579.3685,
653.688,2606.0893,
650.777,2591.9199,
647.867,2560.0668,
644.956,2520.8042,
642.046,2509.7066,
639.135,2532.0612,
636.224,2570.0318,
633.314,2576.3833,
630.403,2614.6551,
627.493,2625.4052,
624.582,2599.7046,
621.672,2589.4086,
618.761,2599.6392,
615.850,2592.5312,
612.940,2621.9103,
610.029,2681.1901,
607.119,2598.2789,
604.208,2591.42,
601.297,2606.457,
598.387,2628.7391,
595.476,2645.9945,
592.566,2624.7436,
589.655,2615.169,
586.745,2595.0752,
583.834,2583.1009,
580.923,2619.0711,
578.013,2630.8421,
575.102,2659.8115,
572.192,2679,
569.281,2684.9052,
566.371,2717.7754,
563.460,2673.0282,
560.549,2666.6438,
557.639,2676.703,
554.728,2665.7883,
551.818,2678.2734,
548.907,2685.2659,
545.996,2691.1103,
543.086,2690.9671,
540.175,2667.6077,
537.265,2684.8313,
534.354,2689.9932,
531.444,2693.2945,
528.533,2708.0485,
525.622,2722.7915,
522.712,2731.4608,
519.801,2748.7477,
516.891,2777.1037,
513.980,2807.3012,
511.070,2816.3391,
508.159,2858.638,
505.248,2903.5022,
502.338,2908.7455,
499.427,2934.216,
496.517,2984.5555,
493.606,3029.1042,
490.695,3048.9673,
487.785,3034.3413,
484.874,3011.9671,
481.964,3018.4417,
479.053,3046.861,
476.143,3062.9882,
473.232,3049.6119,
470.321,3043.5134,
467.411,3029.5772,
464.500,2991.0472,
461.590,3032.3972,
458.679,3066.5621,
455.769,3103.2737,
452.858,3143,
449.947,3143,
447.037,3166.6637,
444.126,3196.7879,
441.216,3222.926,
438.305,3228.2595,
435.395,3251.2916,
432.484,3255.4985,
429.573,3248.7275,
426.663,3264.6905,
423.752,3188.5865,
420.842,3133.9924,
417.931,3102.9669,
415.020,3081.7328,
412.110,3235.3704,
409.199,3346.2787,
406.289,3392.9148,
403.378,3362.1127,
400.468,3395.3765,
397.557,3405.4859,
394.646,3432.4733,
391.736,3505.4064,
388.825,3455.6272,
385.915,3456.4336,
383.004,3476.853,
380.094,3495.7275,
377.183,3529.5889,
374.272,3508.0615,
371.362,3505.5462,
368.451,3563.3677,
365.541,3585.8838,
362.630,3595.2774,
359.719,3597.704,
356.809,3597.9062,
353.898,3612.8821,
350.988,3628.3922,
348.077,3630.7398,
345.167,3613.8704,
342.256,3631.0529,
339.345,3664.1659,
336.435,3671.7893,
333.524,3627.047,
330.614,3628.5373,
327.703,3649.0228,
324.793,3669.289,
321.882,3673.0487,
318.971,3693.1216,
316.061,3726.8573,
313.150,3763.3143,
310.240,3790.0304,
307.329,3800.2903,
304.418,3811.7512,
301.508,3816.8646,
298.597,3801.3159,
295.687,3844.0206,
292.776,3888.3335,
289.866,3942.9524,
286.955,4047.1127,
284.044,4108.805,
281.134,4153.4035,
278.223,4182.5689,
275.313,4179.6215,
272.402,4177.8382,
269.492,4208.3684,
266.581,4276.1577,
263.670,4278.3632,
260.760,4342.7308,
257.849,4418.7073,
254.939,4469.3452,
252.028,4511.983,
249.117,4505.1586,
246.207,4497.6987,
243.296,4573.8306,
240.386,4522.5778,
237.475,4490.6158,
234.565,4491.4954,
231.654,4500.9904,
228.743,4462.1489,
225.833,4426.207,
222.922,4411.675,
220.012,4383.2614,
217.101,4396.5729,
214.191,4433.7693,
211.280,4479.5995,
208.369,4470.8894,
205.459,4431.0637,
202.548,4380.376,
199.638,4382.553,
196.727,4473.4659,
193.816,4523.7448,
190.906,4487.9554,
187.995,4543.7053,
185.085,4570.5657,
182.174,4602.506,
179.264,4689.2379,
176.353,4674.6504,
173.442,4701.2439,
170.532,4775.2763,
167.621,4803.3943,
164.711,4685.3893,
161.800,4527.5166,
158.890,4397.2459,
155.979,4171.2075,
153.068,3808.0592,
150.158,3352.9639,
147.247,2953.0645,
144.337,2440.7518,
141.426,1922.7695,
138.516,1447.4706,
135.605,1039.8887,
132.694,707.01681,
129.784,451.15046,
126.873,303.11859,
123.963,210.40229,
121.052,147.70238,
118.141,109.15167,
115.231,86.261749,
112.320,69.374553,
109.410,57.909158,
106.499,52.211916,
103.589,42.596183,
100.678,34.913513,
97.767,32.069763,
94.857,31.307011,
91.946,28.581335,
89.036,24.887102,
86.125,24.177897,
83.215,16.036195,
80.304,12.112625,
77.393,21.318834,
74.483,20.68973,
71.572,19.275296,
68.662,17.861465,
65.751,16.448563,
62.840,16,
59.930,15.250855,
57.019,12.430527,
54.109,14.985804,
51.198,16.698391,
48.288,15.988675,
45.377,14.581919,
42.466,14.824439,
39.556,15.19417,
36.645,10.278838,
33.735,10.557745,
30.824,12.662661,
27.914,14.766187,
25.003,16.867912,
22.092,18,
19.182,18.549189,
16.271,35.336952,
13.361,135.56367,
10.450,314.4797,
7.539,607.77215,
4.629,946.80941,
1.718,1107.2594,
-1.192,827.7044,
-4.103,510.64903,
-7.013,229.88871,
-9.924,3,
