,PL1CEB~1,
Wavenumbers [1/cm],Intensity,
3014.167,-2.5,
3011.256,0.74994632,
3008.346,48.45164,
3005.435,43.15371,
3002.525,40.122483,
2999.614,50.311682,
2996.704,51.270101,
2993.793,44.862328,
2990.882,49.416058,
2987.972,63.505045,
2985.061,53.859592,
2982.151,58.11346,
2979.240,54.881165,
2976.329,71.00819,
2973.419,75.777538,
2970.508,51.116663,
2967.598,64.882329,
2964.687,70.589674,
2961.777,83.901866,
2958.866,62.165677,
2955.955,65.776546,
2953.045,63.553721,
2950.134,85.042262,
2947.224,65.097845,
2944.313,80.556267,
2941.403,77.976277,
2938.492,63.383481,
2935.581,76.908586,
2932.671,75.864851,
2929.760,84.99613,
2926.850,75.290977,
2923.939,80.65887,
2921.028,82.958808,
2918.118,94.239293,
2915.207,84.379696,
2912.297,81.5,
2909.386,83.67519,
2906.476,95.266825,
2903.565,77.145932,
2900.654,80.40493,
2897.744,97.487428,
2894.833,89.077457,
2891.923,80.121801,
2889.012,95.291907,
2886.102,100.54053,
2883.191,114.49056,
2880.280,85.361242,
2877.370,69.511662,
2874.459,95.09736,
2871.549,80.157965,
2868.638,68.271148,
2865.727,91.311572,
2862.817,82.600263,
2859.906,96.095437,
2856.996,103.02491,
2854.085,89.577717,
2851.175,104.21683,
2848.264,99.519341,
2845.353,104.28433,
2842.443,94.5,
2839.532,93.723885,
2836.622,99.376304,
2833.711,86.974097,
2830.801,96.391915,
2827.890,89.312941,
2824.979,99.203947,
2822.069,104.47726,
2819.158,97.939348,
2816.248,98.718157,
2813.337,99.706101,
2810.427,91.588156,
2807.516,106.33437,
2804.605,92.112982,
2801.695,99.026325,
2798.784,100.64785,
2795.874,107.08049,
2792.963,104.28585,
2790.052,98.50193,
2787.142,95.565808,
2784.231,98.919253,
2781.321,114.42561,
2778.410,93.044399,
2775.500,108.03172,
2772.589,94.347088,
2769.678,106.64335,
2766.768,102.8767,
2763.857,90.029869,
2760.947,109.94011,
2758.036,103.88856,
2755.126,101.73291,
2752.215,114.96818,
2749.304,104.90469,
2746.394,104.61691,
2743.483,102.60004,
2740.573,101.59738,
2737.662,97.286979,
2734.751,101.82527,
2731.841,109.41942,
2728.930,119.58058,
2726.020,110.61227,
2723.109,100.861,
2720.199,112.79372,
2717.288,111.51824,
2714.377,108.24164,
2711.467,120.12307,
2708.556,115.02126,
2705.646,113.80985,
2702.735,123.98195,
2699.825,113.3473,
2696.914,111.59499,
2694.003,127.04146,
2691.093,123.66007,
2688.182,121.01037,
2685.272,123.50854,
2682.361,110.74673,
2679.450,118.71402,
2676.540,118.56097,
2673.629,123.15918,
2670.719,115.5804,
2667.808,127.57592,
2664.898,117.01945,
2661.987,123.03342,
2659.076,123.00862,
2656.166,121.85497,
2653.255,124.94388,
2650.345,117.09165,
2647.434,133.72835,
2644.524,124.72781,
2641.613,129.67159,
2638.702,129.54734,
2635.792,108.96959,
2632.881,120.39851,
2629.971,125.6476,
2627.060,125.66594,
2624.149,131.04063,
2621.239,130.5,
2618.328,119.60207,
2615.418,137.19999,
2612.507,120.63835,
2609.597,142.20459,
2606.686,134.77308,
2603.775,122.53968,
2600.865,120.73549,
2597.954,124.93123,
2595.044,137.13419,
2592.133,131.04763,
2589.223,137.65686,
2586.312,146.30403,
2583.401,139.15328,
2580.491,136.04808,
2577.580,143.49835,
2574.670,145.26737,
2571.759,148.64641,
2568.848,131.50545,
2565.938,134.49986,
2563.027,145.45005,
2560.117,144.21031,
2557.206,156.02029,
2554.296,140.52975,
2551.385,141.55796,
2548.474,154.79666,
2545.564,142.16477,
2542.653,154.18457,
2539.743,135.63555,
2536.832,138.09253,
2533.922,166.42115,
2531.011,157.10037,
2528.100,153.49654,
2525.190,170.77746,
2522.279,152.35931,
2519.369,145.57571,
2516.458,143.17139,
2513.548,137.98197,
2510.637,154.96293,
2507.726,139.93125,
2504.816,151.18658,
2501.905,139.8189,
2498.995,151.85831,
2496.084,155.35365,
2493.173,158.23709,
2490.263,167.69097,
2487.352,166.1244,
2484.442,163.7655,
2481.531,171.60114,
2478.621,171.40998,
2475.710,143.67636,
2472.799,164.03366,
2469.889,166.19531,
2466.978,173.61343,
2464.068,173.45768,
2461.157,171.11501,
2458.247,172.05885,
2455.336,176.81898,
2452.425,173.04245,
2449.515,181.60396,
2446.604,183.50695,
2443.694,178.89558,
2440.783,185.92905,
2437.872,162.59395,
2434.962,190.18664,
2432.051,184.06168,
2429.141,180.78824,
2426.230,171.15191,
2423.320,179.59986,
2420.409,186.2564,
2417.498,186.90168,
2414.588,182.41257,
2411.677,193.96213,
2408.767,178.23524,
2405.856,167.46432,
2402.946,180.03619,
2400.035,166.12439,
2397.124,192.48931,
2394.214,185.7976,
2391.303,179.38957,
2388.393,183.44421,
2385.482,162.64561,
2382.571,180.52562,
2379.661,180.17424,
2376.750,204.6034,
2373.840,196.38131,
2370.929,200.41336,
2368.019,178.72907,
2365.108,180.63874,
2362.197,190.88905,
2359.287,185.31504,
2356.376,198.47358,
2353.466,203.53085,
2350.555,194.31496,
2347.645,194.27616,
2344.734,201.80416,
2341.823,200.54975,
2338.913,198.12535,
2336.002,196.21997,
2333.092,208.79904,
2330.181,200.5,
2327.270,191.99505,
2324.360,213.3326,
2321.449,187.46939,
2318.539,194.09634,
2315.628,208.96163,
2312.718,202.90088,
2309.807,192.5494,
2306.896,218.7363,
2303.986,203.92848,
2301.075,192.11702,
2298.165,196.49046,
2295.254,214.13377,
2292.344,205.34233,
2289.433,203.49227,
2286.522,210.741,
2283.612,217.42984,
2280.701,210.44172,
2277.791,214.06105,
2274.880,226.64402,
2271.969,223.5,
2269.059,225.73434,
2266.148,224.5818,
2263.238,219.00193,
2260.327,228.0518,
2257.417,232.65334,
2254.506,228.75928,
2251.595,242.77996,
2248.685,238.66157,
2245.774,240.9065,
2242.864,224.95386,
2239.953,231.95516,
2237.043,226.87608,
2234.132,224.7597,
2231.221,239.31658,
2228.311,239.02062,
2225.400,241.55629,
2222.490,241.08627,
2219.579,231.86762,
2216.669,232.50954,
2213.758,242.24119,
2210.847,258.97858,
2207.937,239.43651,
2205.026,240.05539,
2202.116,247.9087,
2199.205,263.27459,
2196.294,264.75602,
2193.384,263.76301,
2190.473,240.61854,
2187.563,267.442,
2184.652,258.51224,
2181.742,276.38647,
2178.831,277.18093,
2175.920,282.49454,
2173.010,283.87472,
2170.099,312.82987,
2167.189,289.62198,
2164.278,310.90201,
2161.368,335.92864,
2158.457,338.73627,
2155.546,348.98462,
2152.636,375.49462,
2149.725,397.151,
2146.815,401.43326,
2143.904,406.7974,
2140.993,401.43121,
2138.083,409.60636,
2135.172,412.05458,
2132.262,411.7588,
2129.351,409.45858,
2126.441,385.41255,
2123.530,424.20818,
2120.619,392.58282,
2117.709,354.97262,
2114.798,354.6654,
2111.888,336.51338,
2108.977,311.77814,
2106.067,314.56702,
2103.156,310.34115,
2100.245,307.49122,
2097.335,293.13874,
2094.424,290.26065,
2091.514,284.49458,
2088.603,280.24652,
2085.692,289.63752,
2082.782,291.08635,
2079.871,288.85706,
2076.961,289.43542,
2074.050,309.72424,
2071.140,292.73003,
2068.229,284.3164,
2065.318,287.64825,
2062.408,306.73523,
2059.497,295.04162,
2056.587,278.33716,
2053.676,282.76647,
2050.766,291.80717,
2047.855,282.55696,
2044.944,287.42627,
2042.034,305.07802,
2039.123,293.69865,
2036.213,272.98219,
2033.302,278.71716,
2030.391,285.70355,
2027.481,291.42675,
2024.570,305.45685,
2021.660,314.0861,
2018.749,296.84191,
2015.839,305.63451,
2012.928,309.48826,
2010.017,309.76058,
2007.107,297.03646,
2004.196,311.59525,
2001.286,341.48228,
1998.375,316.74801,
1995.465,312.65893,
1992.554,287.57672,
1989.643,338.52987,
1986.733,309.28596,
1983.822,308.74446,
1980.912,322.12325,
1978.001,303.63544,
1975.090,317.27405,
1972.180,322.67288,
1969.269,316.36781,
1966.359,314.20269,
1963.448,314.96103,
1960.538,326.04963,
1957.627,335.63313,
1954.716,296.6778,
1951.806,309.59292,
1948.895,325.01628,
1945.985,286.47876,
1943.074,290.63271,
1940.164,308.29801,
1937.253,308.95638,
1934.342,313.97006,
1931.432,315.1183,
1928.521,309.40846,
1925.611,292.24688,
1922.700,312.82596,
1919.790,341.89281,
1916.879,298.98747,
1913.968,316.47418,
1911.058,302.96246,
1908.147,312.42265,
1905.237,331.30147,
1902.326,325.75334,
1899.415,312.17195,
1896.505,324.42184,
1893.594,348.13416,
1890.684,335.4609,
1887.773,337.40472,
1884.863,332.64123,
1881.952,325.28997,
1879.041,321.20457,
1876.131,326.01503,
1873.220,290.01755,
1870.310,334.62547,
1867.399,324.72391,
1864.489,357.09803,
1861.578,320.07162,
1858.667,302.66164,
1855.757,333.5179,
1852.846,323.04869,
1849.936,348.77928,
1847.025,335.44405,
1844.114,343.42242,
1841.204,366.38112,
1838.293,351.00915,
1835.383,354.79049,
1832.472,348.86,
1829.562,342.69401,
1826.651,378.00509,
1823.740,343.27002,
1820.830,334.53158,
1817.919,338.31438,
1815.009,347.91857,
1812.098,358.47637,
1809.188,353.87211,
1806.277,319.27461,
1803.366,362.06563,
1800.456,394.78556,
1797.545,381.48587,
1794.635,369.04896,
1791.724,353.49028,
1788.813,363.90694,
1785.903,383.15505,
1782.992,367.72054,
1780.082,357.34545,
1777.171,392.17185,
1774.261,407.84993,
1771.350,392.39775,
1768.439,381.05355,
1765.529,382.22684,
1762.618,375.63499,
1759.708,368.94563,
1756.797,385.86364,
1753.887,393.47376,
1750.976,371.16885,
1748.065,392.45084,
1745.155,388.2292,
1742.244,398.99905,
1739.334,381.37295,
1736.423,389.40277,
1733.512,383.21947,
1730.602,423.12903,
1727.691,411.63188,
1724.781,411.36577,
1721.870,415.9143,
1718.960,411.56661,
1716.049,409.66103,
1713.138,401.80504,
1710.228,387.44555,
1707.317,412.03714,
1704.407,387.64969,
1701.496,416.40417,
1698.586,417.65203,
1695.675,447.44268,
1692.764,448.55328,
1689.854,457.11024,
1686.943,439.14079,
1684.033,424.84771,
1681.122,441.21113,
1678.211,477.15737,
1675.301,476.50308,
1672.390,504.28766,
1669.480,433.70055,
1666.569,458.99514,
1663.659,497.07536,
1660.748,472.21343,
1657.837,508.17195,
1654.927,493.12513,
1652.016,478.49626,
1649.106,518.32863,
1646.195,512.55496,
1643.285,554.88476,
1640.374,529.14808,
1637.463,559.82426,
1634.553,577.26355,
1631.642,561.54343,
1628.732,565.67776,
1625.821,595.50065,
1622.911,596.49436,
1620.000,625.13464,
1617.089,684.30597,
1614.179,689.3872,
1611.268,748.23215,
1608.358,754.31271,
1605.447,780.90021,
1602.536,839.34511,
1599.626,780.02463,
1596.715,834.40168,
1593.805,816.35304,
1590.894,755.37577,
1587.984,808.12645,
1585.073,821.75408,
1582.162,795.78365,
1579.252,767.58757,
1576.341,752.88724,
1573.431,716.04034,
1570.520,760.00639,
1567.610,748.18584,
1564.699,756.62574,
1561.788,724.76798,
1558.878,710.54829,
1555.967,716.78532,
1553.057,722.0517,
1550.146,704.44914,
1547.235,735.00351,
1544.325,704.55362,
1541.414,659.58011,
1538.504,665.12422,
1535.593,651.48417,
1532.683,657.30729,
1529.772,661.05665,
1526.861,623.47671,
1523.951,635.39059,
1521.040,669.61085,
1518.130,648.83401,
1515.219,593.89937,
1512.309,621.44597,
1509.398,632.41076,
1506.487,612.65715,
1503.577,630.80109,
1500.666,578.97699,
1497.756,615.03396,
1494.845,621.21985,
1491.934,614.5252,
1489.024,622.22514,
1486.113,663.29748,
1483.203,652.28932,
1480.292,606.3774,
1477.382,580.71854,
1474.471,581.10427,
1471.560,625.3143,
1468.650,638.76691,
1465.739,623.40922,
1462.829,608.93501,
1459.918,605.60498,
1457.008,601.93071,
1454.097,608.12964,
1451.186,617.17311,
1448.276,606.59649,
1445.365,592.64218,
1442.455,586.95988,
1439.544,588.78881,
1436.633,589.45331,
1433.723,664.39047,
1430.812,627.39176,
1427.902,613.6353,
1424.991,619.32187,
1422.081,625.92234,
1419.170,616.99534,
1416.259,617.93019,
1413.349,591.31132,
1410.438,635.68325,
1407.528,675.88103,
1404.617,622.09015,
1401.707,598.16768,
1398.796,610.36365,
1395.885,598.95272,
1392.975,616.93852,
1390.064,654.73089,
1387.154,622.61107,
1384.243,581.01919,
1381.332,633.04932,
1378.422,646.80424,
1375.511,672.09732,
1372.601,643.00975,
1369.690,660.21612,
1366.780,645.28319,
1363.869,677.55033,
1360.958,696.12151,
1358.048,708.5863,
1355.137,728.6421,
1352.227,733.63721,
1349.316,746.49676,
1346.406,770.55926,
1343.495,744.27524,
1340.584,726.42829,
1337.674,748.14483,
1334.763,776.27703,
1331.853,717.86147,
1328.942,776.87302,
1326.032,774.71255,
1323.121,802.87954,
1320.210,808.83855,
1317.300,802.36838,
1314.389,789.73592,
1311.479,815.88809,
1308.568,845.3364,
1305.657,839.53852,
1302.747,904.16133,
1299.836,923.92012,
1296.926,903.74811,
1294.015,866.05584,
1291.105,887.39409,
1288.194,934.43087,
1285.283,959.82006,
1282.373,968.66405,
1279.462,973.24505,
1276.552,988.50793,
1273.641,1021.3415,
1270.731,1049.0298,
1267.820,1043.0071,
1264.909,1035.3134,
1261.999,1048.3003,
1259.088,1042.8275,
1256.178,991.96907,
1253.267,993.47354,
1250.356,968.05534,
1247.446,965.06109,
1244.535,966.05805,
1241.625,932.85563,
1238.714,877.62054,
1235.804,849.49024,
1232.893,871.75424,
1229.982,851.8254,
1227.072,831.90853,
1224.161,812.00892,
1221.251,786.16472,
1218.340,783.6825,
1215.430,777.69143,
1212.519,767.33068,
1209.608,763.5,
1206.698,768.60651,
1203.787,777.89195,
1200.877,748.28009,
1197.966,760.86832,
1195.055,799.04294,
1192.145,832.54836,
1189.234,860.31498,
1186.324,853.04378,
1183.413,846.89087,
1180.503,844.00978,
1177.592,826.32847,
1174.681,848.1507,
1171.771,798.57148,
1168.860,845.01213,
1165.950,819.66729,
1163.039,846.02333,
1160.129,837.49565,
1157.218,813.80822,
1154.307,800.30565,
1151.397,784.46167,
1148.486,771.09369,
1145.576,808.76983,
1142.665,814.98522,
1139.754,804.1092,
1136.844,807.80273,
1133.933,809.91349,
1131.023,813.74886,
1128.112,813.50072,
1125.202,809.3309,
1122.291,827.63343,
1119.380,848.99764,
1116.470,797.811,
1113.559,820.88346,
1110.649,817.71278,
1107.738,817.394,
1104.828,819.1712,
1101.917,807.99085,
1099.006,789.52069,
1096.096,775.76877,
1093.185,780.15878,
1090.275,827.43767,
1087.364,825.46367,
1084.453,808.25071,
1081.543,810.45552,
1078.632,820.73927,
1075.722,814.19254,
1072.811,821.3759,
1069.901,819.62937,
1066.990,838.89995,
1064.079,848.94411,
1061.169,853.7092,
1058.258,846.18332,
1055.348,840.26104,
1052.437,857.81191,
1049.527,863.19091,
1046.616,829.30656,
1043.705,869.43361,
1040.795,861.42935,
1037.884,858.09754,
1034.974,861.28608,
1032.063,851.30773,
1029.153,847.60386,
1026.242,848.46882,
1023.331,880.16464,
1020.421,899.04783,
1017.510,896.65614,
1014.600,902.34204,
1011.689,917.92986,
1008.778,918.84578,
1005.868,932.40733,
1002.957,922.08308,
1000.047,968.54802,
997.136,987.08733,
994.226,988.83844,
991.315,981.97526,
988.404,955.69052,
985.494,920.90278,
982.583,938.89046,
979.673,953.93799,
976.762,947.93216,
973.852,947.13015,
970.941,960.24209,
968.030,968.49417,
965.120,951.51074,
962.209,954.06837,
959.299,978.58047,
956.388,991.85979,
953.477,983.40226,
950.567,970.37566,
947.656,977.16307,
944.746,966.9684,
941.835,994.03365,
938.925,980.75849,
936.014,974.54661,
933.103,982.38404,
930.193,990.69854,
927.282,993.85017,
924.372,963.40833,
921.461,946.9812,
918.551,949.4712,
915.640,940.05191,
912.729,924.7937,
909.819,935.61036,
906.908,928.87096,
903.998,926.11391,
901.087,948.41422,
898.176,957.20524,
895.266,953.7696,
892.355,951.78821,
889.445,926.61019,
886.534,935.68359,
883.624,950.95664,
880.713,954.43786,
877.802,947.67869,
874.892,950.42772,
871.981,994.51973,
869.071,995.35514,
866.160,954.10242,
863.250,955.41971,
860.339,973.5,
857.428,975.98702,
854.518,985.10384,
851.607,936.84382,
848.697,953.26142,
845.786,983.18278,
842.875,998.05316,
839.965,982.18415,
837.054,930.82562,
834.144,959.83195,
831.233,965.5,
828.323,985.28287,
825.412,996.48504,
822.501,979.28728,
819.591,989.20407,
816.680,1003.1218,
813.770,995.84946,
810.859,973.70658,
807.949,961.39028,
805.038,976.61282,
802.127,952.74213,
799.217,946.02765,
796.306,935.41885,
793.396,933.95044,
790.485,942.28942,
787.574,941.84251,
784.664,950.86375,
781.753,945.11918,
778.843,933.1686,
775.932,928.51228,
773.022,936.73921,
770.111,931.83375,
767.200,955.10069,
764.290,954.40971,
761.379,935.1085,
758.469,922.6614,
755.558,953.15962,
752.648,941.75517,
749.737,931.66653,
746.826,950.34483,
743.916,973.1493,
741.005,966.4258,
738.095,983.47522,
735.184,938.30606,
732.274,878.48,
729.363,857.30283,
726.452,897.12448,
723.542,944.87868,
720.631,918.44752,
717.721,923.24829,
714.810,948.72717,
711.899,968.6089,
708.989,947.62885,
706.078,978.75081,
703.168,955.53173,
700.257,947.46459,
697.347,951.89263,
694.436,906.74004,
691.525,915.5819,
688.615,949.57447,
685.704,949.50548,
682.794,933.15948,
679.883,961.35583,
676.973,958.15034,
674.062,966.43315,
671.151,970.18501,
668.241,964.44978,
665.330,951.15966,
662.420,943.97107,
659.509,959.00821,
656.598,970.66375,
653.688,972.11974,
650.777,967.527,
647.867,968.32333,
644.956,961.68935,
642.046,956.6708,
639.135,960.94984,
636.224,981.42042,
633.314,965.54166,
630.403,956.77031,
627.493,964.25409,
624.582,980.97029,
621.672,978.5943,
618.761,946.58255,
615.850,953.02963,
612.940,959.32777,
610.029,945.63152,
607.119,946.42115,
604.208,967.09039,
601.297,978.98962,
598.387,979.63368,
595.476,974.57982,
592.566,996.61773,
589.655,976.52807,
586.745,963.5,
583.834,976.01629,
580.923,1020.3057,
578.013,988.13161,
575.102,995.56047,
572.192,995.35233,
569.281,980.52998,
566.371,1019.6612,
563.460,998.80861,
560.549,1011.8894,
557.639,1021.1919,
554.728,980.8796,
551.818,1002.7284,
548.907,1000.187,
545.996,999.3879,
543.086,1007.0099,
540.175,1014.0177,
537.265,1016.6728,
534.354,1006.9645,
531.444,988.97624,
528.533,970.38292,
525.622,982.79807,
522.712,980.64597,
519.801,986.66512,
516.891,1012.2988,
513.980,1065.7253,
511.070,1038.8044,
508.159,1028.3654,
505.248,1038.5101,
502.338,1059.2515,
499.427,1050.7613,
496.517,1065.4697,
493.606,1076.481,
490.695,1073.5698,
487.785,1081.2678,
484.874,1103.8254,
481.964,1116.7458,
479.053,1115.926,
476.143,1105.1745,
473.232,1098.7448,
470.321,1093.5805,
467.411,1072.5185,
464.500,1020.7218,
461.590,1068.9634,
458.679,1116.6183,
455.769,1136.3083,
452.858,1115.2391,
449.947,1083.9179,
447.037,1104.8042,
444.126,1119.5424,
441.216,1117.9395,
438.305,1137.7497,
435.395,1132.6324,
432.484,1131.0005,
429.573,1129.5299,
426.663,1108.246,
423.752,1103.7103,
420.842,1124.4209,
417.931,1152.6547,
415.020,1160.2383,
412.110,1162.6948,
409.199,1151.2751,
406.289,1137.2701,
403.378,1133.7228,
400.468,1199.4944,
397.557,1182.9671,
394.646,1151.2708,
391.736,1161.8139,
388.825,1171.6189,
385.915,1144.6972,
383.004,1142.2001,
380.094,1200.6554,
377.183,1184.101,
374.272,1188.1845,
371.362,1194.3227,
368.451,1192.1383,
365.541,1202.6458,
362.630,1205.5,
359.719,1201.3565,
356.809,1190.6391,
353.898,1176.412,
350.988,1205.5917,
348.077,1216.3659,
345.167,1176.0515,
342.256,1206.6813,
339.345,1200.0885,
336.435,1186.2224,
333.524,1186.2986,
330.614,1211.6339,
327.703,1204.6112,
324.793,1194.6247,
321.882,1206.4603,
318.971,1190.1046,
316.061,1219.1703,
313.150,1252.9595,
310.240,1244.7963,
307.329,1258.7927,
304.418,1271.7953,
301.508,1273.4107,
298.597,1246.7557,
295.687,1261.431,
292.776,1282.0001,
289.866,1304.1707,
286.955,1326.3325,
284.044,1322.5425,
281.134,1313.316,
278.223,1309.4579,
275.313,1343.3533,
272.402,1323.7785,
269.492,1334.2842,
266.581,1397.449,
263.670,1382.7454,
260.760,1387.3805,
257.849,1405.7651,
254.939,1435.1204,
252.028,1405.0985,
249.117,1398.0683,
246.207,1410.3188,
243.296,1436.6721,
240.386,1408.1564,
237.475,1384.2004,
234.565,1373.4203,
231.654,1379.2633,
228.743,1371.2941,
225.833,1370.5979,
222.922,1384.4321,
220.012,1382.9749,
217.101,1372.6857,
214.191,1366.8712,
211.280,1381.4205,
208.369,1391.9194,
205.459,1392.9067,
202.548,1384.8677,
199.638,1369.629,
196.727,1432.1886,
193.816,1455.8161,
190.906,1399.6174,
187.995,1431.4745,
185.085,1433.9886,
182.174,1432.7271,
179.264,1463.0833,
176.353,1460.0922,
173.442,1448.5237,
170.532,1432.3158,
167.621,1413.5705,
164.711,1394.3097,
161.800,1355.2032,
158.890,1278.1923,
155.979,1199.8664,
153.068,1096.8869,
150.158,977.91077,
147.247,874.52564,
144.337,721.0124,
141.426,566.10166,
138.516,432.043,
135.605,307.31802,
132.694,203.09929,
129.784,122.55592,
126.873,81.793524,
123.963,58.704177,
121.052,43.533951,
118.141,33.539323,
115.231,27.815437,
112.320,24.652728,
109.410,22.681868,
106.499,18.408937,
103.589,12.45771,
100.678,9.0432434,
97.767,10.465119,
94.857,14.657934,
91.946,12.468891,
89.036,6.2742042,
86.125,4.8557936,
83.215,2.9072389,
80.304,2.4577307,
77.393,5.2904105,
74.483,2.2243252,
71.572,1.9494085,
68.662,4.7078025,
65.751,6.8271557,
62.840,6.536596,
59.930,3.627138,
57.019,-3.4236818,
54.109,0.27728678,
51.198,5.0080464,
48.288,8.4433756,
45.377,1.4095949,
42.466,2.6221934,
39.556,8.0395257,
36.645,5.2307648,
33.735,9.1732362,
30.824,9.9658084,
27.914,-1.2529955,
25.003,-1.254725,
22.092,2.406141,
19.182,8.6372972,
16.271,12.834238,
13.361,70.132453,
10.450,155.63442,
7.539,208.70639,
4.629,174.48178,
1.718,42.048821,
-1.192,-243.08329,
-4.103,-218.12538,
-7.013,-123.16793,
-9.924,3.5,
