,PLB6EA~1,
Raman shift [1/cm],Intensity,
3014.167,3,
3011.256,-2.2499463,
3008.346,296.17599,
3005.435,345.15548,
3002.525,354.58501,
2999.614,375.08056,
2996.704,392.14124,
2993.793,385.70622,
2990.882,417.30535,
2987.972,410.04036,
2985.061,426.42366,
2982.151,437.88067,
2979.240,458.10077,
2976.329,464.51911,
2973.419,477.92298,
2970.508,490.63329,
2967.598,527.85301,
2964.687,507.38791,
2961.777,534.46179,
2958.866,550.00297,
2955.955,541.44691,
2953.045,564.56825,
2950.134,595.40529,
2947.224,621.19928,
2944.313,634.29202,
2941.403,644.60721,
2938.492,649.01085,
2935.581,646.25278,
2932.671,693.43775,
2929.760,678.25769,
2926.850,683.5297,
2923.939,674.79435,
2921.028,690.91762,
2918.118,716.14232,
2915.207,714.98709,
2912.297,752.77997,
2909.386,734.39416,
2906.476,714.26407,
2903.565,736.4674,
2900.654,739.55309,
2897.744,720.78627,
2894.833,704.41236,
2891.923,716.3526,
2889.012,721.7052,
2886.102,727.77163,
2883.191,697.02643,
2880.280,684.89952,
2877.370,669.93607,
2874.459,659.05663,
2871.549,699.64518,
2868.638,752.77524,
2865.727,763.57694,
2862.817,761.37165,
2859.906,767.31624,
2856.996,767.97283,
2854.085,773.11975,
2851.175,764.73795,
2848.264,742.80851,
2845.353,779.43926,
2842.443,744.41671,
2839.532,745.52229,
2836.622,727.66862,
2833.711,727.53374,
2830.801,721.69779,
2827.890,742.08392,
2824.979,734.08607,
2822.069,745.84079,
2819.158,734.66038,
2816.248,741.24132,
2813.337,753.4122,
2810.427,744.34573,
2807.516,746.31656,
2804.605,747.08655,
2801.695,745.46049,
2798.784,762.56054,
2795.874,735.26382,
2792.963,757.92862,
2790.052,759,
2787.142,729.71054,
2784.231,747.32141,
2781.321,770.98847,
2778.410,739.3401,
2775.500,748.48793,
2772.589,749.88304,
2769.678,745.95895,
2766.768,768.18835,
2763.857,767.36994,
2760.947,780,
2758.036,787.62425,
2755.126,771.12822,
2752.215,786.06789,
2749.304,785.93523,
2746.394,804.72985,
2743.483,812.09995,
2740.573,801.59504,
2737.662,795.01035,
2734.751,803.67473,
2731.841,783.5934,
2728.930,827.63144,
2726.020,816.55613,
2723.109,801.0415,
2720.199,799.05942,
2717.288,803.41972,
2714.377,834.7705,
2711.467,841.85274,
2708.556,829,
2705.646,839.14087,
2702.735,848.99484,
2699.825,845.95637,
2696.914,843.14272,
2694.003,833.38536,
2691.093,832.4284,
2688.182,853.20222,
2685.272,862.84068,
2682.361,855.48253,
2679.450,862.57196,
2676.540,847.04065,
2673.629,851.65469,
2670.719,852.50369,
2667.808,869.02729,
2664.898,863.15564,
2661.987,875,
2659.076,862.78018,
2656.166,875.90469,
2653.255,894.96259,
2650.345,896.78403,
2647.434,910.08574,
2644.524,909.45563,
2641.613,917.28598,
2638.702,906.2525,
2635.792,903.34198,
2632.881,906.02995,
2629.971,919.81221,
2627.060,923.83281,
2624.149,928.91875,
2621.239,934.50889,
2618.328,944.60122,
2615.418,914.65909,
2612.507,937.85763,
2609.597,932.74451,
2606.686,943.33736,
2603.775,951.55952,
2600.865,967.58367,
2597.954,974.85626,
2595.044,969.35695,
2592.133,984.79002,
2589.223,989.97578,
2586.312,998.80403,
2583.401,981.77733,
2580.491,989.77879,
2577.580,991.00495,
2574.670,992.33958,
2571.759,994.60616,
2568.848,1000.8232,
2565.938,1015.3811,
2563.027,1002.1954,
2560.117,1003.4579,
2557.206,1030.0258,
2554.296,1015.4622,
2551.385,1040.942,
2548.474,1026.9996,
2545.564,1052.8921,
2542.653,1025.651,
2539.743,1055.5678,
2536.832,1049.2449,
2533.922,1068.6846,
2531.011,1057.7993,
2528.100,1066.6062,
2525.190,1065.8586,
2522.279,1056.7035,
2519.369,1069.7925,
2516.458,1060.8846,
2513.548,1063.2817,
2510.637,1104.9096,
2507.726,1070.8141,
2504.816,1076.6888,
2501.905,1064.7104,
2498.995,1081.0749,
2496.084,1100.1464,
2493.173,1102.2368,
2490.263,1095.2136,
2487.352,1093.5425,
2484.442,1109.1328,
2481.531,1119.633,
2478.621,1115.8578,
2475.710,1140.9233,
2472.799,1126.8072,
2469.889,1125.1496,
2466.978,1132.6701,
2464.068,1113.7618,
2461.157,1140.8075,
2458.247,1138.7206,
2455.336,1157.4443,
2452.425,1136.7971,
2449.515,1154.0291,
2446.604,1180.4816,
2443.694,1161.2558,
2440.783,1168.9065,
2437.872,1185.6564,
2434.962,1195.9078,
2432.051,1211.1118,
2429.141,1215.971,
2426.230,1212.3481,
2423.320,1223.486,
2420.409,1217.1858,
2417.498,1226.0084,
2414.588,1249.3421,
2411.677,1217.7172,
2408.767,1231.435,
2405.856,1230.9475,
2402.946,1244.8928,
2400.035,1224.1197,
2397.124,1244.2674,
2394.214,1262.7532,
2391.303,1235.8232,
2388.393,1240.7465,
2385.482,1253.4272,
2382.571,1293.8098,
2379.661,1310.0696,
2376.750,1312.1602,
2373.840,1316.7656,
2370.929,1305.1624,
2368.019,1311.4581,
2365.108,1314.0916,
2362.197,1331.5836,
2359.287,1341.185,
2356.376,1341.0035,
2353.466,1306.7105,
2350.555,1326.8399,
2347.645,1340.3536,
2344.734,1356.1521,
2341.823,1364.8673,
2338.913,1336.9269,
2336.002,1371.2249,
2333.092,1374.4368,
2330.181,1408.7058,
2327.270,1383.1452,
2324.360,1376.5117,
2321.449,1409.7381,
2318.539,1400.4037,
2315.628,1411.3437,
2312.718,1405.6344,
2309.807,1428.6395,
2306.896,1439.158,
2303.986,1414.0066,
2301.075,1416.5107,
2298.165,1419.5771,
2295.254,1439.6122,
2292.344,1439.6307,
2289.433,1447.0309,
2286.522,1457.5669,
2283.612,1491.0523,
2280.701,1486.8251,
2277.791,1493.2386,
2274.880,1482.7039,
2271.969,1505.9712,
2269.059,1510.2888,
2266.148,1520,
2263.238,1531.695,
2260.327,1511.4828,
2257.417,1523.6933,
2254.506,1546.0456,
2251.595,1538.8692,
2248.685,1551.8326,
2245.774,1579.8238,
2242.864,1589.8604,
2239.953,1562.1861,
2237.043,1580.4032,
2234.132,1590.3481,
2231.221,1590.4212,
2228.311,1607.527,
2225.400,1623.2252,
2222.490,1638.2412,
2219.579,1665.2133,
2216.669,1674.4118,
2213.758,1679.9542,
2210.847,1710.078,
2207.937,1744.9006,
2205.026,1760.8877,
2202.116,1796.4575,
2199.205,1808.5875,
2196.294,1828.7939,
2193.384,1844.2895,
2190.473,1886.0411,
2187.563,1956.1885,
2184.652,2004.4886,
2181.742,2080.4573,
2178.831,2167.8562,
2175.920,2247.1385,
2173.010,2377.4082,
2170.099,2519.255,
2167.189,2639.0548,
2164.278,2802.0211,
2161.368,2963.5639,
2158.457,3168.7171,
2155.546,3315.1626,
2152.636,3436.5318,
2149.725,3516.0939,
2146.815,3613.0302,
2143.904,3679.6134,
2140.993,3714.328,
2138.083,3707.7751,
2135.172,3659.6973,
2132.262,3607.2095,
2129.351,3502.3995,
2126.441,3442.1941,
2123.530,3336.7103,
2120.619,3118.6245,
2117.709,2975.3921,
2114.798,2807.6148,
2111.888,2653.8405,
2108.977,2525.4238,
2106.067,2401.7866,
2103.156,2316.8107,
2100.245,2200.9674,
2097.335,2140.4503,
2094.424,2066.5112,
2091.514,2012.1235,
2088.603,1997.0875,
2085.692,2009.4982,
2082.782,1982.3817,
2079.871,1944.2486,
2076.961,1932.3875,
2074.050,1930.8545,
2071.140,1928.6436,
2068.229,1930.9115,
2065.318,1938.717,
2062.408,1930.8858,
2059.497,1892.9762,
2056.587,1878.6164,
2053.676,1909.4813,
2050.766,1881.9253,
2047.855,1834.5159,
2044.944,1823.8525,
2042.034,1861.052,
2039.123,1877.0438,
2036.213,1907.8089,
2033.302,1890.2175,
2030.391,1860.7463,
2027.481,1867.5974,
2024.570,1890.0139,
2021.660,1875.1235,
2018.749,1910.114,
2015.839,1909.0991,
2012.928,1890.6661,
2010.017,1909.7535,
2007.107,1911.7925,
2004.196,1909.1547,
2001.286,1895.6042,
1998.375,1884.1703,
1995.465,1889.2259,
1992.554,1870.9649,
1989.643,1894.0668,
1986.733,1849.4816,
1983.822,1855.743,
1980.912,1854.9812,
1978.001,1892.7291,
1975.090,1866.6473,
1972.180,1846.0692,
1969.269,1859.8506,
1966.359,1880.4325,
1963.448,1854.3184,
1960.538,1877.0834,
1957.627,1859.1424,
1954.716,1856,
1951.806,1872.0929,
1948.895,1889.0466,
1945.985,1854.4428,
1943.074,1833.974,
1940.164,1856.2884,
1937.253,1861.8868,
1934.342,1863.9401,
1931.432,1846.6088,
1928.521,1843.5458,
1925.611,1842.3961,
1922.700,1808.5511,
1919.790,1835.3117,
1916.879,1847.5118,
1913.968,1814.0418,
1911.058,1808.8409,
1908.147,1845.4131,
1905.237,1822.1985,
1902.326,1831.4385,
1899.415,1842.2061,
1896.505,1820.3073,
1893.594,1843.808,
1890.684,1839.7322,
1887.773,1841.8356,
1884.863,1861.9134,
1881.952,1833.7053,
1879.041,1845.2077,
1876.131,1861.1438,
1873.220,1856.8982,
1870.310,1826.296,
1867.399,1886.9764,
1864.489,1882.4687,
1861.578,1823.5492,
1858.667,1859.6138,
1855.757,1880.7578,
1852.846,1912.9231,
1849.936,1881.6036,
1847.025,1911.9416,
1844.114,1903.9647,
1841.204,1905.3741,
1838.293,1942.4593,
1835.383,1958.256,
1832.472,1955.7443,
1829.562,1971.776,
1826.651,1957.8029,
1823.740,1929.0728,
1820.830,1940.5198,
1817.919,1950.8863,
1815.009,1987.1056,
1812.098,1928.3701,
1809.188,1971.651,
1806.277,1941.7525,
1803.366,1983.268,
1800.456,1941.7037,
1797.545,1977.5458,
1794.635,2034.0019,
1791.724,1995.8444,
1788.813,2062.1823,
1785.903,2025.5251,
1782.992,2062.3934,
1780.082,2008.8454,
1777.171,2019.659,
1774.261,2024.2157,
1771.350,2080.0212,
1768.439,2068.4882,
1765.529,2069.275,
1762.618,2084,
1759.708,2113.6307,
1756.797,2120.4848,
1753.887,2114.9752,
1750.976,2086.0825,
1748.065,2105.6974,
1745.155,2136.9161,
1742.244,2114.8252,
1739.334,2144.767,
1736.423,2142.8038,
1733.512,2141.2764,
1730.602,2213.5656,
1727.691,2216.2732,
1724.781,2229.6644,
1721.870,2218.9047,
1718.960,2232.2669,
1716.049,2241.0338,
1713.138,2293.2997,
1710.228,2229.7653,
1707.317,2298.6114,
1704.407,2282.0481,
1701.496,2340.9852,
1698.586,2310.0406,
1695.675,2350.9783,
1692.764,2344.5328,
1689.854,2405.2284,
1686.943,2436.022,
1684.033,2438.9503,
1681.122,2418.3568,
1678.211,2504.172,
1675.301,2546.8705,
1672.390,2537.3649,
1669.480,2659.6097,
1666.569,2735.4063,
1663.659,2767.9473,
1660.748,2825.0964,
1657.837,2831.8371,
1654.927,2915.9915,
1652.016,2999.972,
1649.106,3040.885,
1646.195,3116.4076,
1643.285,3133.8659,
1640.374,3171.6272,
1637.463,3203.9904,
1634.553,3368.2413,
1631.642,3452.3572,
1628.732,3576.3496,
1625.821,3635.1243,
1622.911,3823.9293,
1620.000,4107.3968,
1617.089,4238.4129,
1614.179,4448.965,
1611.268,4742.8838,
1608.358,4952.2608,
1605.447,5140.2014,
1602.536,5200.39,
1599.626,5259.196,
1596.715,5326.6245,
1593.805,5279.3401,
1590.894,5269.4773,
1587.984,5162.4707,
1585.073,5171.5245,
1582.162,5159.3023,
1579.252,5092.1725,
1576.341,4990.6841,
1573.431,5044.9679,
1570.520,5033.1318,
1567.610,4961.901,
1564.699,4922.8743,
1561.788,4837.8317,
1558.878,4777.6895,
1555.967,4742.5374,
1553.057,4657.6387,
1550.146,4567.451,
1547.235,4480.3287,
1544.325,4414.9855,
1541.414,4374.4778,
1538.504,4309.7302,
1535.593,4273.7645,
1532.683,4231.0885,
1529.772,4150.5941,
1526.861,4078.3299,
1523.951,4028.3815,
1521.040,4033.2518,
1518.130,3961.6164,
1515.219,3915.4004,
1512.309,3906.4505,
1509.398,3908.1771,
1506.487,3851.1025,
1503.577,3843.4373,
1500.666,3866.2699,
1497.756,3798.3731,
1494.845,3813.3591,
1491.934,3773.7008,
1489.024,3682.264,
1486.113,3685.4905,
1483.203,3673.5657,
1480.292,3616.8468,
1477.382,3555.2721,
1474.471,3524.5829,
1471.560,3546.5753,
1468.650,3528.9858,
1465.739,3475.6491,
1462.829,3466.13,
1459.918,3463.3977,
1457.008,3465.1694,
1454.097,3449.1948,
1451.186,3424.6538,
1448.276,3444.7001,
1445.365,3459.4637,
1442.455,3462.9328,
1439.544,3486.6158,
1436.633,3456.1152,
1433.723,3399.7508,
1430.812,3398.7388,
1427.902,3405.4068,
1424.991,3296.4141,
1422.081,3249.8786,
1419.170,3265.8734,
1416.259,3275.4805,
1413.349,3286.8181,
1410.438,3246.6137,
1407.528,3208.044,
1404.617,3225.7693,
1401.707,3232.2215,
1398.796,3244.0734,
1395.885,3278.0276,
1392.975,3295.792,
1390.064,3305.8797,
1387.154,3261.4182,
1384.243,3146.9653,
1381.332,3151.1852,
1378.422,3229.1542,
1375.511,3309.7174,
1372.601,3557.0593,
1369.690,3588.2867,
1366.780,3742.8628,
1363.869,3759.0263,
1360.958,3785.6517,
1358.048,3841.3786,
1355.137,3921.6711,
1352.227,3993.876,
1349.316,4085.9344,
1346.406,4213.545,
1343.495,4266.007,
1340.584,4278.0344,
1337.674,4363.3584,
1334.763,4386.7049,
1331.853,4484.0642,
1328.942,4506.6787,
1326.032,4571.8028,
1323.121,4636.3856,
1320.210,4667.3184,
1317.300,4701.7409,
1314.389,4762.1119,
1311.479,4832.893,
1308.568,4889.8044,
1305.657,4948.9053,
1302.747,5048.0168,
1299.836,5136.951,
1296.926,5211.0338,
1294.015,5276.3057,
1291.105,5366.1736,
1288.194,5500.2077,
1285.283,5616.2044,
1282.373,5678.4765,
1279.462,5750.9989,
1276.552,5813.2599,
1273.641,5855.5356,
1270.731,5888.1194,
1267.820,5863.613,
1264.909,5820.0106,
1261.999,5790.9001,
1259.088,5788.1638,
1256.178,5728.0481,
1253.267,5615.963,
1250.356,5536.2377,
1247.446,5476.6229,
1244.535,5419.7813,
1241.625,5323.0039,
1238.714,5167.2185,
1235.804,5034.3447,
1232.893,5024.7612,
1229.982,4971.4856,
1227.072,4897.25,
1224.161,4831.4837,
1221.251,4726.1918,
1218.340,4627.2754,
1215.430,4554.1141,
1212.519,4478.7241,
1209.608,4422.5825,
1206.698,4414.8935,
1203.787,4405.9196,
1200.877,4442.1233,
1197.966,4508.6611,
1195.055,4581.9664,
1192.145,4680.4045,
1189.234,4819.9435,
1186.324,4944.9153,
1183.413,5007.3909,
1180.503,4987.3097,
1177.592,4926.7677,
1174.681,4916.4966,
1171.771,4848.3831,
1168.860,4734.9608,
1165.950,4665.1409,
1163.039,4621.6671,
1160.129,4553.5536,
1157.218,4496.2513,
1154.307,4451.1413,
1151.397,4395.4447,
1148.486,4364.9424,
1145.576,4407.957,
1142.665,4360.8976,
1139.754,4354.5591,
1136.844,4278.3673,
1133.933,4226.0588,
1131.023,4247.4072,
1128.112,4263.7891,
1125.202,4229.2464,
1122.291,4251.3733,
1119.380,4247.3378,
1116.470,4281.7564,
1113.559,4330.0752,
1110.649,4363.9551,
1107.738,4369.6418,
1104.828,4352.9331,
1101.917,4336.8876,
1099.006,4338.1237,
1096.096,4331.7961,
1093.185,4295.798,
1090.275,4351.2675,
1087.364,4290.2126,
1084.453,4281.3109,
1081.543,4291.3591,
1078.632,4280.567,
1075.722,4287.3851,
1072.811,4304.9785,
1069.901,4346.895,
1066.990,4360.5083,
1064.079,4426.9683,
1061.169,4475.7782,
1058.258,4460.0856,
1055.348,4462.6817,
1052.437,4556.553,
1049.527,4491.3566,
1046.616,4578.2396,
1043.705,4574.897,
1040.795,4588.2396,
1037.884,4614.1836,
1034.974,4637.8209,
1032.063,4646.9463,
1029.153,4634,
1026.242,4634,
1023.331,4653.1654,
1020.421,4690.4609,
1017.510,4740.2974,
1014.600,4788.3006,
1011.689,4825.9775,
1008.778,4862.8755,
1005.868,4933.5676,
1002.957,5108.2195,
1000.047,5341.7521,
997.136,5512.3848,
994.226,5564.6156,
991.315,5507.5075,
988.404,5400.084,
985.494,5320.0271,
982.583,5187.2609,
979.673,5139.4658,
976.762,5066.7672,
973.852,5053.4987,
970.941,5087.5543,
968.030,5072.341,
965.120,5045.9785,
962.209,5040.8633,
959.299,5041.4165,
956.388,5047.0397,
953.477,5042.3684,
950.567,5050.9139,
947.656,5113.1195,
944.746,5136.9071,
941.835,5152.5766,
938.925,5126.3877,
936.014,5151.9719,
933.103,5179.2886,
930.193,5135.6248,
927.282,5053.9542,
924.372,5053.1086,
921.461,5012.498,
918.551,4923.0596,
915.640,4869,
912.729,4847.7999,
909.819,4793.5586,
906.908,4820.5162,
903.998,4833.9305,
901.087,4831.908,
898.176,4856.2001,
895.266,4885.6826,
892.355,4906.046,
889.445,5018.5078,
886.534,4996.4585,
883.624,5041.7896,
880.713,5093.0489,
877.802,5113.4417,
874.892,5096.3815,
871.981,5066.6646,
869.071,5052.4626,
866.160,5082.4281,
863.250,5085.9917,
860.339,5071.3463,
857.428,5057.0694,
854.518,5033.1795,
851.607,5073.9509,
848.697,5058.302,
845.786,5054.7466,
842.875,5064.1459,
839.965,5079.3401,
837.054,5122.3442,
834.144,5153.0081,
831.233,5187.6646,
828.323,5175.7877,
825.412,5136.4434,
822.501,5106.4254,
819.591,5086.5919,
816.680,5006.6729,
813.770,4992.012,
810.859,4946.266,
807.949,4873.2194,
805.038,4830.3296,
802.127,4775.1801,
799.217,4799.8156,
796.306,4795.8107,
793.396,4765.9235,
790.485,4737.4741,
787.574,4743,
784.664,4743,
781.753,4740.987,
778.843,4760.5835,
775.932,4774.2841,
773.022,4766.8902,
770.111,4830.6613,
767.200,4814.4446,
764.290,4812.0451,
761.379,4792.1557,
758.469,4748.8386,
755.558,4717.4894,
752.648,4700.3828,
749.737,4664.3605,
746.826,4622.2903,
743.916,4569.4282,
741.005,4479.9558,
738.095,4249.3828,
735.184,4067.5471,
732.274,3981.2828,
729.363,4085.0864,
726.452,4371.5676,
723.542,4579.5817,
720.631,4646.8113,
717.721,4666.2914,
714.810,4660.0057,
711.899,4654.1485,
708.989,4684.8117,
706.078,4671.3779,
703.168,4657.6772,
700.257,4638.2103,
697.347,4622.8258,
694.436,4633.1964,
691.525,4640.4306,
688.615,4606.1521,
685.704,4587.1585,
682.794,4580.1703,
679.883,4549.2255,
676.973,4576.4721,
674.062,4568.6003,
671.151,4571.9583,
668.241,4597.9124,
665.330,4637.021,
662.420,4658.5868,
659.509,4646.4918,
656.598,4639.5965,
653.688,4643.9202,
650.777,4646.784,
647.867,4640.4134,
644.956,4640.2383,
642.046,4640.1708,
639.135,4642.3537,
636.224,4655.3223,
633.314,4719.6313,
630.403,4721.8109,
627.493,4726.2108,
624.582,4758.0051,
621.672,4798.3968,
618.761,4790.1208,
615.850,4809.5905,
612.940,4847.809,
610.029,4890.0772,
607.119,4914.5557,
604.208,4907.7698,
601.297,4868.6052,
598.387,4846.7583,
595.476,4883.0798,
592.566,4905.1177,
589.655,4918.0705,
586.745,4893.0562,
583.834,4852.6825,
580.923,4847.7441,
578.013,4805.3685,
575.102,4792.2792,
572.192,4836.0178,
569.281,4921.218,
566.371,4944.6967,
563.460,5010.4921,
560.549,5039.9237,
557.639,5036.2859,
554.728,5018.8869,
551.818,5032.9326,
548.907,5084.1436,
545.996,5115,
543.086,5120.0329,
540.175,5143.3923,
537.265,5135.5844,
534.354,5173.1386,
531.444,5207.8695,
528.533,5192.8829,
525.622,5205.2981,
522.712,5268.6753,
519.801,5345.4243,
516.891,5416.9553,
513.980,5471.1561,
511.070,5516.8521,
508.159,5578.4137,
505.248,5628.5022,
502.338,5634.8977,
499.427,5699.7316,
496.517,5782.0504,
493.606,5811.474,
490.695,5774.5305,
487.785,5799.9336,
484.874,5827.9103,
481.964,5828.1264,
479.053,5818.0898,
476.143,5851.8801,
473.232,5871.9851,
470.321,5858.0772,
467.411,5823.8435,
464.500,5787.3406,
461.590,5761.3055,
458.679,5793.0709,
455.769,5794.4388,
452.858,5733.9651,
449.947,5791.26,
447.037,5809.0676,
444.126,5794.1455,
441.216,5765.9687,
438.305,5788.8266,
435.395,5763.152,
432.484,5752.1675,
429.573,5746.2849,
426.663,5696.1156,
423.752,5683.631,
420.842,5642.5517,
417.931,5607.6961,
415.020,5641.8222,
412.110,5773.2271,
409.199,5843.4939,
406.289,5871.6736,
403.378,5886.0102,
400.468,5889.0342,
397.557,5849.8963,
394.646,5786.6815,
391.736,5716.8169,
388.825,5679.8596,
385.915,5662.6137,
383.004,5667.2796,
380.094,5699.2958,
377.183,5822.7019,
374.272,5912.3636,
371.362,5994.6136,
368.451,6082.1884,
365.541,6118.2141,
362.630,6146.0259,
359.719,6168.1032,
356.809,6185.9062,
353.898,6200.8821,
350.988,6191.9803,
348.077,6187.389,
345.167,6207.3139,
342.256,6292.4797,
339.345,6297.337,
336.435,6307.2041,
333.524,6378.9395,
330.614,6408.7457,
327.703,6465.2333,
324.793,6511.5467,
321.882,6516.1064,
318.971,6559.9695,
316.061,6592.5793,
313.150,6632.9404,
310.240,6703.4414,
307.329,6695.9951,
304.418,6748.9942,
301.508,6802.8215,
298.597,6749.5115,
295.687,6793.0841,
292.776,6873.917,
289.866,7015.5636,
286.955,7302.9278,
284.044,7562.8448,
281.134,7788.8669,
278.223,7994.4,
275.313,8250.0887,
272.402,8498.0217,
269.492,8689.0133,
266.581,8807.4607,
263.670,8925.8247,
260.760,9159.028,
257.849,9357.6808,
254.939,9405.3831,
252.028,9576.1035,
249.117,9615.8745,
246.207,9592.2506,
243.296,9616.4078,
240.386,9653.6086,
237.475,9653.1748,
234.565,9592.4009,
231.654,9398.1189,
228.743,9382.8916,
225.833,9334.313,
222.922,9175.9911,
220.012,9090.0216,
217.101,8985.4483,
214.191,8912.3383,
211.280,8933.4347,
208.369,8875.7924,
205.459,8845.403,
202.548,8836.3565,
199.638,8797.8971,
196.727,8803.8292,
193.816,8846.2094,
190.906,8922.5491,
187.995,8966.7146,
185.085,8977.2714,
182.174,8968.0823,
179.264,8953.627,
176.353,9043.6314,
173.442,9043.5168,
170.532,8948.9677,
167.621,8914.3608,
164.711,8766.2501,
161.800,8513.4482,
158.890,8139.9096,
155.979,7688.5774,
153.068,7034.5388,
150.158,6219.2325,
147.247,5374.2026,
144.337,4431.514,
141.426,3480.6328,
138.516,2561.5782,
135.605,1848.7211,
132.694,1265.7199,
129.784,812.6458,
126.873,533.74516,
123.963,368.87667,
121.052,262.63713,
118.141,201.24156,
115.231,152.68122,
112.320,124.10365,
109.410,108.45476,
106.499,89.938727,
103.589,79.837201,
100.678,72.283783,
97.767,65.174407,
94.857,59.456088,
91.946,50.147115,
89.036,41.241877,
86.125,49.043135,
83.215,44.628956,
80.304,40.197163,
77.393,43.738013,
74.483,37.44865,
71.572,34,
68.662,33.307325,
65.751,26.242814,
62.840,28.81702,
59.930,31.939852,
57.019,24.18395,
54.109,23,
51.198,21.190344,
48.288,17.067949,
45.377,25.508486,
42.466,28.175561,
39.556,26.19417,
36.645,21.278838,
33.735,18.442255,
30.824,18.987983,
27.914,25.29856,
25.003,22.264175,
22.092,17.739668,
19.182,13.411892,
16.271,26.002714,
13.361,100.54057,
10.450,220.6389,
7.539,363.79355,
4.629,285.85953,
1.718,67.456579,
-1.192,-292.96715,
-4.103,-260.00297,
-7.013,-145.1553,
-9.924,1,
