,PLD587~1,
Wavenumbers [1/cm],Intensity,
3014.167,-6.375,
3011.256,1.3249356,
3008.346,39.687279,
3005.435,47.31758,
3002.525,47.832494,
2999.614,51.773037,
2996.704,38.536342,
2993.793,40.996544,
2990.882,37.976175,
2987.972,60.619955,
2985.061,52.531395,
2982.151,49.789711,
2979.240,68.373086,
2976.329,69.608619,
2973.419,76.040662,
2970.508,76.958267,
2967.598,79.911747,
2964.687,77.983696,
2961.777,81.402898,
2958.866,86.635393,
2955.955,71.866151,
2953.045,78.725677,
2950.134,93.93406,
2947.224,82.10897,
2944.313,88.737535,
2941.403,92.268246,
2938.492,85.519327,
2935.581,99.103535,
2932.671,87.946906,
2929.760,87.467292,
2926.850,94.736653,
2923.939,93.662363,
2921.028,95.689636,
2918.118,102.32651,
2915.207,109.91608,
2912.297,108.61654,
2909.386,100.42062,
2906.476,119.58565,
2903.565,107.91686,
2900.654,107.09412,
2897.744,121.61243,
2894.833,113.61482,
2891.923,104.4359,
2889.012,124.3302,
2886.102,141.87364,
2883.191,139.63161,
2880.280,149.5341,
2877.370,236.98526,
2874.459,273.17813,
2871.549,180.01925,
2868.638,134.35079,
2865.727,109.91347,
2862.817,109.53944,
2859.906,129.25748,
2856.996,126.58877,
2854.085,120.54094,
2851.175,115.01047,
2848.264,120.00217,
2845.353,121.58187,
2842.443,114.03475,
2839.532,111.83392,
2836.622,113.32161,
2833.711,110.57319,
2830.801,115.91985,
2827.890,113.08304,
2824.979,125.10691,
2822.069,118.625,
2819.158,115.96462,
2816.248,125.82,
2813.337,126.26403,
2810.427,112.27927,
2807.516,122.0925,
2804.605,114.28126,
2801.695,131.98028,
2798.784,124.65992,
2795.874,119.91524,
2792.963,125.26809,
2790.052,132.62457,
2787.142,115.33554,
2784.231,123.01164,
2781.321,123.92777,
2778.410,100.69987,
2775.500,118.94224,
2772.589,101.93386,
2769.678,128.44407,
2766.768,112.65215,
2763.857,119.73097,
2760.947,120.09033,
2758.036,128.17922,
2755.126,121.33013,
2752.215,127.01113,
2749.304,121.09261,
2746.394,120.83669,
2743.483,118.32501,
2740.573,114.73783,
2737.662,117.29512,
2734.751,112.92607,
2731.841,121.89607,
2728.930,143.25644,
2726.020,133.2934,
2723.109,127.53233,
2720.199,129.58425,
2717.288,142.18704,
2714.377,127.17516,
2711.467,142.10082,
2708.556,132.48647,
2705.646,132.17427,
2702.735,138.44716,
2699.825,127.13591,
2696.914,125.81545,
2694.003,159.98273,
2691.093,145.35666,
2688.182,138.73463,
2685.272,132.90807,
2682.361,134.47762,
2679.450,151.04063,
2676.540,135.86889,
2673.629,146.62949,
2670.719,137.55938,
2667.808,145.99274,
2664.898,145.28745,
2661.987,149.95855,
2659.076,151.64225,
2656.166,139.97997,
2653.255,147.88181,
2650.345,146.00068,
2647.434,151.39665,
2644.524,154.2197,
2641.613,147.6822,
2638.702,147.64078,
2635.792,139.28302,
2632.881,141.79139,
2629.971,152.75251,
2627.060,149.62562,
2624.149,149.67812,
2621.239,154.87352,
2618.328,145.34558,
2615.418,168.59319,
2612.507,152.83855,
2609.597,163.68688,
2606.686,148.625,
2603.775,149.10516,
2600.865,159.5636,
2597.954,149.9604,
2595.044,156.625,
2592.133,151.73323,
2589.223,158.43238,
2586.312,150.87119,
2583.401,166.625,
2580.491,167.35096,
2577.580,162.6382,
2574.670,172.8389,
2571.759,167.06422,
2568.848,160.91783,
2565.938,172.00593,
2563.027,176.72272,
2560.117,167.18572,
2557.206,165.14529,
2554.296,167.51287,
2551.385,173.12096,
2548.474,172.84731,
2545.564,170.75162,
2542.653,172.70889,
2539.743,173.69894,
2536.832,170.64556,
2533.922,167.87731,
2531.011,183.625,
2528.100,185.75741,
2525.190,191.57787,
2522.279,179.04708,
2519.369,184.90818,
2516.458,180.29285,
2513.548,169.48881,
2510.637,174.50203,
2507.726,173.24954,
2504.816,174.625,
2501.905,178.68293,
2498.995,175.74444,
2496.084,173.94554,
2493.173,178.88858,
2490.263,180.0521,
2487.352,182.95887,
2484.442,190.3402,
2481.531,193.31113,
2478.621,203.53498,
2475.710,183.70168,
2472.799,195.1048,
2469.889,202.04883,
2466.978,206.06829,
2464.068,212.37105,
2461.157,199.20249,
2458.247,197.36024,
2455.336,204.81484,
2452.425,190.22875,
2449.515,204.60629,
2446.604,207.74715,
2443.694,211.09049,
2440.783,204.05067,
2437.872,193.17197,
2434.962,208.93836,
2432.051,206.77304,
2429.141,204.89553,
2426.230,206.625,
2423.320,214.83939,
2420.409,210.2468,
2417.498,212.61658,
2414.588,207.26762,
2411.677,228.26238,
2408.767,196.17815,
2405.856,204.4655,
2402.946,207.52402,
2400.035,205.33157,
2397.124,210.9619,
2394.214,211.3542,
2391.303,213.05589,
2388.393,220.11803,
2385.482,223.49281,
2382.571,225.65062,
2379.661,220.83421,
2376.750,224.41567,
2373.840,213.56566,
2370.929,238.3326,
2368.019,213.28693,
2365.108,226.25327,
2362.197,222.625,
2359.287,198.67513,
2356.376,221.57393,
2353.466,221.86819,
2350.555,213.78511,
2347.645,228.09783,
2344.734,231.47292,
2341.823,218.824,
2338.913,236.73693,
2336.002,236.3331,
2333.092,227.41837,
2330.181,212.60711,
2327.270,227.68991,
2324.360,239.53306,
2321.449,220.59439,
2318.539,229.77486,
2315.628,238.01988,
2312.718,248.34086,
2309.807,222.74272,
2306.896,250.36522,
2303.986,236.18335,
2301.075,223.24202,
2298.165,228.41355,
2295.254,251.15105,
2292.344,237.99431,
2289.433,237.31227,
2286.522,246.73211,
2283.612,243.03443,
2280.701,242.22141,
2277.791,222.90739,
2274.880,253.411,
2271.969,256.49331,
2269.059,250.33616,
2266.148,255.21598,
2263.238,256.12693,
2260.327,247.86655,
2257.417,263.67611,
2254.506,261.83868,
2251.595,261.91228,
2248.685,279.0384,
2245.774,280.2185,
2242.864,268.68984,
2239.953,265.52852,
2237.043,250.84572,
2234.132,257.33405,
2231.221,270.73098,
2228.311,264.05671,
2225.400,265.10347,
2222.490,277.54022,
2219.579,261.67642,
2216.669,262.14169,
2213.758,272.97534,
2210.847,280.625,
2207.937,271.03218,
2205.026,302.84745,
2202.116,293.47851,
2199.205,290.81206,
2196.294,294.00502,
2193.384,294.59851,
2190.473,292.33509,
2187.563,274.6685,
2184.652,283.92622,
2181.742,293.89875,
2178.831,318.4616,
2175.920,321.12773,
2173.010,316.44983,
2170.099,339.02233,
2167.189,344.70393,
2164.278,356.0652,
2161.368,368.90947,
2158.457,401.82666,
2155.546,422.83656,
2152.636,442.0771,
2149.725,459.94043,
2146.815,451.02543,
2143.904,495.22352,
2140.993,488.36578,
2138.083,487.10823,
2135.172,494.20477,
2132.262,506.53081,
2129.351,509.05252,
2126.441,516.22697,
2123.530,490.77091,
2120.619,495.64369,
2117.709,440.87862,
2114.798,416.35949,
2111.888,384.78811,
2108.977,381.79719,
2106.067,373.21582,
2103.156,357.18714,
2100.245,363.6043,
2097.335,331.34751,
2094.424,331.11996,
2091.514,311.47982,
2088.603,306.20104,
2085.692,319.99294,
2082.782,323.55677,
2079.871,332.12558,
2076.961,338.36669,
2074.050,319.35227,
2071.140,329.28052,
2068.229,311.79556,
2065.318,322.563,
2062.408,323.04179,
2059.497,311.19045,
2056.587,315.2294,
2053.676,308.55913,
2050.766,313.93217,
2047.855,301.22629,
2044.944,295.0737,
2042.034,332.48612,
2039.123,311.58796,
2036.213,333.99164,
2033.302,310.40784,
2030.391,309.21791,
2027.481,318.60058,
2024.570,312.03949,
2021.660,336.02851,
2018.749,316.39706,
2015.839,311.16306,
2012.928,314.85487,
2010.017,324.06583,
2007.107,336.60069,
2004.196,322.97022,
2001.286,331.73098,
1998.375,327.0118,
1995.465,335.57053,
1992.554,321.21928,
1989.643,315.72869,
1986.733,331.07324,
1983.822,306.02308,
1980.912,319.48629,
1978.001,317.19272,
1975.090,323.81279,
1972.180,327.17686,
1969.269,316.0014,
1966.359,333.27397,
1963.448,324.70954,
1960.538,335.28972,
1957.627,331.60023,
1954.716,315.08463,
1951.806,311.81727,
1948.895,328.88622,
1945.985,292.48448,
1943.074,305.02719,
1940.164,312.89433,
1937.253,324.92926,
1934.342,316.50522,
1931.432,303.20229,
1928.521,331.54901,
1925.611,299.05406,
1922.700,309.90814,
1919.790,309.01238,
1916.879,313.2065,
1913.968,345.58565,
1911.058,330.95533,
1908.147,333.89798,
1905.237,320.83822,
1902.326,322.0635,
1899.415,336.43962,
1896.505,329.7637,
1893.594,353.1677,
1890.684,337.45521,
1887.773,336.68486,
1884.863,354.45188,
1881.952,339.18767,
1879.041,320.27765,
1876.131,328.0263,
1873.220,303.60277,
1870.310,328.40073,
1867.399,324.72096,
1864.489,348.49564,
1861.578,318.75701,
1858.667,304.14593,
1855.757,327.41498,
1852.846,340.38397,
1849.936,340.48587,
1847.025,334.97536,
1844.114,346.22265,
1841.204,333.89773,
1838.293,334.60005,
1835.383,353.997,
1832.472,341.61283,
1829.562,319.12656,
1826.651,339.29232,
1823.740,345.07326,
1820.830,344.93998,
1817.919,363.54128,
1815.009,337.65681,
1812.098,337.11319,
1809.188,342.31491,
1806.277,339.6914,
1803.366,352.79136,
1800.456,362.625,
1797.545,361.79525,
1794.635,354.39901,
1791.724,360.45023,
1788.813,368.22963,
1785.903,390.59781,
1782.992,400.79783,
1780.082,385.94367,
1777.171,461.63036,
1774.261,457.89952,
1771.350,417.02075,
1768.439,392.94069,
1765.529,363.26205,
1762.618,373.42251,
1759.708,371.45101,
1756.797,387.29167,
1753.887,376.03317,
1750.976,381.69763,
1748.065,413.07047,
1745.155,388.96715,
1742.244,404.73183,
1739.334,401.76854,
1736.423,391.91846,
1733.512,392.35264,
1730.602,416.56154,
1727.691,409.27179,
1724.781,374.73509,
1721.870,405.2538,
1718.960,403.11375,
1716.049,415.72654,
1713.138,396.39511,
1710.228,369.99728,
1707.317,392.27757,
1704.407,390.23462,
1701.496,416.05989,
1698.586,418.625,
1695.675,435.46776,
1692.764,439.46517,
1689.854,449.19193,
1686.943,430.29951,
1684.033,404.27074,
1681.122,417.38711,
1678.211,418.61548,
1675.301,442.551,
1672.390,483.59509,
1669.480,473.46456,
1666.569,453.28221,
1663.659,427.29463,
1660.748,467.4129,
1657.837,456.66874,
1654.927,458.88272,
1652.016,470.18388,
1649.106,493.6532,
1646.195,534.98465,
1643.285,549.57943,
1640.374,547.58319,
1637.463,546.81396,
1634.553,611.13733,
1631.642,578.92902,
1628.732,606.55982,
1625.821,595.68192,
1622.911,682.13474,
1620.000,703.36043,
1617.089,720.28669,
1614.179,769.21495,
1611.268,796.6212,
1608.358,823.36078,
1605.447,856.6824,
1602.536,908.01502,
1599.626,884.94695,
1596.715,905.31503,
1593.805,869.16873,
1590.894,869.90902,
1587.984,873.22328,
1585.073,919.56911,
1582.162,881.70627,
1579.252,831.70994,
1576.341,831.4367,
1573.431,778.80281,
1570.520,802.60823,
1567.610,810.15434,
1564.699,816.60033,
1561.788,811.17438,
1558.878,793.96974,
1555.967,799.51696,
1553.057,788.40104,
1550.146,759.57414,
1547.235,764.74447,
1544.325,747.21734,
1541.414,731.64574,
1538.504,708.85206,
1535.593,690.87637,
1532.683,703.38137,
1529.772,699.72511,
1526.861,680.56679,
1523.951,649.97074,
1521.040,648.2901,
1518.130,674.43709,
1515.219,633.50456,
1512.309,647.63401,
1509.398,641.61745,
1506.487,633.34139,
1503.577,640.9225,
1500.666,614.5204,
1497.756,622.23525,
1494.845,628.78454,
1491.934,608.86752,
1489.024,682.97947,
1486.113,640.19144,
1483.203,619.74981,
1480.292,610.83691,
1477.382,565.17135,
1474.471,576.11161,
1471.560,595.68699,
1468.650,601.99155,
1465.739,587.25324,
1462.829,579.81863,
1459.918,592.7798,
1457.008,580.79395,
1454.097,563.78442,
1451.186,558.22848,
1448.276,557.27686,
1445.365,578.05312,
1442.455,579.18467,
1439.544,594.83026,
1436.633,587.05201,
1433.723,583.61293,
1430.812,609.9257,
1427.902,588.6701,
1424.991,590.56562,
1422.081,586.03761,
1419.170,607.22651,
1416.259,560.40109,
1413.349,544.09355,
1410.438,576.21442,
1407.528,603.49983,
1404.617,585.37849,
1401.707,557.02619,
1398.796,576.41863,
1395.885,594.98315,
1392.975,578.81263,
1390.064,576.09003,
1387.154,541.13803,
1384.243,504.48909,
1381.332,554.63302,
1378.422,540.60551,
1375.511,579.01353,
1372.601,630.31137,
1369.690,632.05333,
1366.780,596.77545,
1363.869,652.28146,
1360.958,662.76046,
1358.048,675.7976,
1355.137,719.06331,
1352.227,741.04981,
1349.316,741.45743,
1346.406,742.6422,
1343.495,719.64589,
1340.584,707.33888,
1337.674,739.19944,
1334.763,786.71884,
1331.853,815.46301,
1328.942,775.70965,
1326.032,759.20631,
1323.121,819.60698,
1320.210,853.61157,
1317.300,846.63989,
1314.389,838.6528,
1311.479,854.04237,
1308.568,875.49853,
1305.657,892.14426,
1302.747,929.51042,
1299.836,965.6619,
1296.926,1000.5568,
1294.015,977.57369,
1291.105,1000.3996,
1288.194,1016.4049,
1285.283,1052.5611,
1282.373,1059.9297,
1279.462,1077.4873,
1276.552,1110.4203,
1273.641,1147.6053,
1270.731,1185.3877,
1267.820,1207.0262,
1264.909,1226.2952,
1261.999,1215.3601,
1259.088,1180.6995,
1256.178,1132.3764,
1253.267,1133.0642,
1250.356,1084.1537,
1247.446,1071.3595,
1244.535,1069.7143,
1241.625,1032.5769,
1238.714,979.5478,
1235.804,950.18811,
1232.893,946.12885,
1229.982,927.9504,
1227.072,908.03353,
1224.161,890.65543,
1221.251,873.47933,
1218.340,868.625,
1215.430,851.00787,
1212.519,845.22743,
1209.608,840.03247,
1206.698,820.30606,
1203.787,841.57474,
1200.877,819.12351,
1197.966,811.03108,
1195.055,872.0589,
1192.145,914.93277,
1189.234,923.02983,
1186.324,924.89804,
1183.413,924.97525,
1180.503,924.6603,
1177.592,932.71595,
1174.681,936.07706,
1171.771,911.89287,
1168.860,923.50303,
1165.950,889.14826,
1163.039,866.65694,
1160.129,891.29747,
1157.218,897.24145,
1154.307,865.78399,
1151.397,842.44975,
1148.486,849.72299,
1145.576,861.27807,
1142.665,853.28686,
1139.754,867.27032,
1136.844,857.31925,
1133.933,855.14404,
1131.023,869.4274,
1128.112,877.98282,
1125.202,875.66363,
1122.291,893.99831,
1119.380,889.72894,
1116.470,900.31928,
1113.559,887.70652,
1110.649,909.81883,
1107.738,912.90864,
1104.828,900.2962,
1101.917,888.52411,
1099.006,872.85177,
1096.096,877.17366,
1093.185,853.46759,
1090.275,865.38259,
1087.364,883.7197,
1084.453,886.12529,
1081.543,887.44543,
1078.632,895.81876,
1075.722,903.63397,
1072.811,915.13575,
1069.901,894.17749,
1066.990,899.89998,
1064.079,937.01172,
1061.169,954.1773,
1058.258,947.00226,
1055.348,933.39146,
1052.437,929.72471,
1049.527,948.81241,
1046.616,901.89563,
1043.705,947.49549,
1040.795,946.02388,
1037.884,939.65943,
1034.974,954.54252,
1032.063,963.17925,
1029.153,927.4559,
1026.242,934.37555,
1023.331,947.1242,
1020.421,955.89891,
1017.510,1002.8868,
1014.600,1033.8186,
1011.689,1023.4937,
1008.778,1017.5157,
1005.868,1057.4551,
1002.957,1038.5273,
1000.047,1072.753,
997.136,1081.3391,
994.226,1080.748,
991.315,1080.9715,
988.404,1067.1126,
985.494,1038.9894,
982.583,1055.264,
979.673,1070.063,
976.762,1064.0572,
973.852,1046.0168,
970.941,1037.3671,
968.030,1051.4805,
965.120,1067.6286,
962.209,1068.4811,
959.299,1065.792,
956.388,1074.1444,
953.477,1074.6375,
950.567,1065.1478,
947.656,1068.8532,
944.746,1085.8443,
941.835,1086.625,
938.925,1082.0186,
936.014,1083.1658,
933.103,1090.509,
930.193,1085.6396,
927.282,1037.8083,
924.372,1041.1907,
921.461,1040.8886,
918.551,1029.5873,
915.640,1010.1515,
912.729,997.04021,
909.819,1003.8474,
906.908,1005.5323,
903.998,983.3548,
901.087,988.44561,
898.176,1002.7373,
895.266,1016.7034,
892.355,1025.112,
889.445,1011.6838,
886.534,1021.6435,
883.624,1038.4273,
880.713,1056.8528,
877.802,1067.9724,
874.892,1076.7143,
871.981,1113.4536,
869.071,1148.5409,
866.160,1107.7077,
863.250,1074.0441,
860.339,1061.1931,
857.428,1058.0511,
854.518,1055.288,
851.607,1043.639,
848.697,1049.191,
845.786,1048.4733,
842.875,1063.1511,
839.965,1087.5665,
837.054,1041.7087,
834.144,1049.1675,
831.233,1057.9578,
828.323,1068.549,
825.412,1067.8979,
822.501,1051.7739,
819.591,1052.6003,
816.680,1072.6571,
813.770,1041.9144,
810.859,1021.0762,
807.949,1019.6957,
805.038,1014.4259,
802.127,1012.7796,
799.217,999.20796,
796.306,984.97628,
793.396,968.28139,
790.485,959.10009,
787.574,980.09206,
784.664,992.39375,
781.753,971.81154,
778.843,984.63903,
775.932,1009.3164,
773.022,1007.6106,
770.111,1001.07,
767.200,973.21775,
764.290,986.00648,
761.379,1000.0495,
758.469,999.71767,
755.558,1007.0172,
752.648,986.65209,
749.737,984.58337,
746.826,974.90191,
743.916,956.48205,
741.005,936.22316,
738.095,897.25307,
735.184,863.30755,
732.274,819.01936,
729.363,819.21328,
726.452,883.03357,
723.542,912.98112,
720.631,946.73564,
717.721,960.06207,
714.810,964.5284,
711.899,966.6844,
708.989,962.64978,
706.078,1012.3058,
703.168,984.54842,
700.257,974.71531,
697.347,989.79974,
694.436,961.34131,
691.525,950.89185,
688.615,968.75016,
685.704,973.28621,
682.794,962.4548,
679.883,958.625,
676.973,958.625,
674.062,971.38664,
671.151,993.52822,
668.241,1005.9541,
665.330,983.79305,
662.420,966.22095,
659.509,970.8791,
656.598,996.82974,
653.688,1017.0336,
650.777,991.13896,
647.867,976.80505,
644.956,987.86545,
642.046,1002.844,
639.135,1003.031,
636.224,970.62898,
633.314,971.42292,
630.403,991.13495,
627.493,1013.8428,
624.582,1017.1479,
621.672,965.66824,
618.761,950.70603,
615.850,971.97044,
612.940,995.69881,
610.029,999.78368,
607.119,988.72886,
604.208,980.52487,
601.297,976.12945,
598.387,978.92448,
595.476,989.84784,
592.566,992.20904,
589.655,979.6672,
586.745,976.53072,
583.834,992.38462,
580.923,1030.5444,
578.013,1017.204,
575.102,997.56453,
572.192,989.19784,
569.281,1005.0452,
566.371,1057.481,
563.460,1013.2422,
560.549,1004.3197,
557.639,1004.2711,
554.728,973.28566,
551.818,1015.4227,
548.907,1004.5144,
545.996,1004.4551,
543.086,1021.9408,
540.175,1009.4825,
537.265,1010.7978,
534.354,1009.1165,
531.444,1005.5104,
528.533,1004.1701,
525.622,1025.8966,
522.712,1036.6925,
519.801,1046.3532,
516.891,1059.8506,
513.980,1080.7566,
511.070,1037.5468,
508.159,1047.7566,
505.248,1068.8594,
502.338,1038.455,
499.427,1100.9733,
496.517,1114.2311,
493.606,1106.9141,
490.695,1098.5879,
487.785,1105.516,
484.874,1104.6863,
481.964,1109.0236,
479.053,1113.4994,
476.143,1100.444,
473.232,1103.9414,
470.321,1131.9001,
467.411,1137.8446,
464.500,1074.6722,
461.590,1116.0222,
458.679,1166.1456,
455.769,1179.0362,
452.858,1138.2273,
449.947,1134.4077,
447.037,1145.1535,
444.126,1152.625,
441.216,1157.7842,
438.305,1187.4996,
435.395,1167.3664,
432.484,1169.6281,
429.573,1184.9449,
426.663,1160.6204,
423.752,1222.0901,
420.842,1286.6166,
417.931,1302.3986,
415.020,1203.0537,
412.110,1221.5734,
409.199,1232.559,
406.289,1246.9401,
403.378,1281.6916,
400.468,1301.3475,
397.557,1264.4364,
394.646,1223.8943,
391.736,1223.7799,
388.825,1197.3818,
385.915,1180.0455,
383.004,1191.613,
380.094,1241.5866,
377.183,1240.8341,
374.272,1245.51,
371.362,1254.0399,
368.451,1264.625,
365.541,1264.625,
362.630,1274.4573,
359.719,1286.4726,
356.809,1295.1719,
353.898,1287.6839,
350.988,1305.1545,
348.077,1303.9101,
345.167,1261.5332,
342.256,1279.4628,
339.345,1267.6192,
336.435,1277.0531,
333.524,1339.5211,
330.614,1304.4987,
327.703,1299.7859,
324.793,1303.5627,
321.882,1297.6322,
318.971,1300.606,
316.061,1322.6225,
313.150,1338.8512,
310.240,1320.2983,
307.329,1344.6373,
304.418,1341.4024,
301.508,1310.4619,
298.597,1253.4498,
295.687,1252.6884,
292.776,1273.7918,
289.866,1309.188,
286.955,1349.8179,
284.044,1336.0175,
281.134,1340.5474,
278.223,1368.1639,
275.313,1371.8482,
272.402,1377.2722,
269.492,1393.2991,
266.581,1423.6204,
263.670,1465.5257,
260.760,1457.2521,
257.849,1449.1467,
254.939,1479.2359,
252.028,1457.9097,
249.117,1448.7113,
246.207,1448.5721,
243.296,1452.2322,
240.386,1435.6472,
237.475,1418.5571,
234.565,1404.2446,
231.654,1395.48,
228.743,1366.5827,
225.833,1345.4054,
222.922,1342.1494,
220.012,1331.9496,
217.101,1323.7178,
214.191,1321.9034,
211.280,1332.8153,
208.369,1327.5697,
205.459,1301.0692,
202.548,1260.4857,
199.638,1230.7341,
196.727,1304.1428,
193.816,1342.1555,
190.906,1294.3203,
187.995,1285.632,
185.085,1304.3764,
182.174,1325.295,
179.264,1313.008,
176.353,1299.4502,
173.442,1314.741,
170.532,1353.961,
167.621,1356.8449,
164.711,1320.8353,
161.800,1282.4639,
158.890,1267.3497,
155.979,1211.8481,
153.068,1119.2227,
150.158,1002.7687,
147.247,903.69124,
144.337,741.65754,
141.426,571.2558,
138.516,416.40729,
135.605,311.26541,
132.694,210.98613,
129.784,125.09903,
126.873,86.482023,
123.963,64.398247,
121.052,47.959216,
118.141,33.681176,
115.231,30.072148,
112.320,23.965005,
109.410,17.625,
106.499,17.625,
103.589,12.022455,
100.678,7.8966217,
97.767,8.6075593,
94.857,10.010978,
91.946,6.9970022,
89.036,1.2863063,
86.125,-0.84130954,
83.215,1.8105221,
80.304,4.625,
77.393,4.625,
74.483,4.625,
71.572,3.5379437,
68.662,1.9713375,
65.751,5.5035929,
62.840,5.179894,
59.930,5.1232896,
57.019,10.763945,
54.109,8.6391958,
51.198,6.625,
48.288,6.5910253,
45.377,2.3707569,
42.466,3.5105354,
39.556,7.5098814,
36.645,6.8076912,
33.735,5.5865031,
30.824,2.4161303,
27.914,-4.5956222,
25.003,-2.8844501,
22.092,-2.0208091,
19.182,-3.3063514,
16.271,-1.207881,
13.361,-19.762067,
10.450,-83.874205,
7.539,-301.7486,
4.629,-445.1176,
1.718,-529.58226,
-1.192,-540.03942,
-4.103,-284.93848,
-7.013,-82.588293,
-9.924,1.625,
