,PLA4EC~1,
Raman shift [1/cm],Intensity,
3014.167,0.25,
3011.256,1.6999893,
3008.346,199.13818,
3005.435,210.36661,
3002.525,216.25,
2999.614,250.15131,
2996.704,260.33866,
2993.793,262.74539,
2990.882,274.72324,
2987.972,270.34081,
2985.061,282.9298,
2982.151,285.05673,
2979.240,300.9477,
2976.329,312.49863,
2973.419,309.69621,
2970.508,322.04992,
2967.598,334.91546,
2964.687,339.23437,
2961.777,362.12191,
2958.866,351.58135,
2955.955,364.87388,
2953.045,369.26791,
2950.134,395.83604,
2947.224,401.33541,
2944.313,410.54202,
2941.403,419.11907,
2938.492,449.50473,
2935.581,443.70152,
2932.671,453.12983,
2929.760,435.14228,
2926.850,459.10752,
2923.939,461.64718,
2921.028,447.36152,
2918.118,474.8898,
2915.207,482.07922,
2912.297,491.23731,
2909.386,500.45438,
2906.476,481.28935,
2903.565,487.23296,
2900.654,502.25,
2897.744,478.13685,
2894.833,474.19836,
2891.923,478.8173,
2889.012,487.1633,
2886.102,483.75272,
2883.191,476.24811,
2880.280,444.97248,
2877.370,432.89536,
2874.459,437.54558,
2871.549,468.76358,
2868.638,503.84175,
2865.727,494.75382,
2862.817,499.2353,
2859.906,519.22436,
2856.996,523.19566,
2854.085,522.92645,
2851.175,504.27705,
2848.264,507.12234,
2845.353,517.20687,
2842.443,508.06253,
2839.532,493.36943,
2836.622,488.16016,
2833.711,499.56084,
2830.801,477.37279,
2827.890,479.14686,
2824.979,487.45998,
2822.069,504.93158,
2819.158,482.19071,
2816.248,493.23842,
2813.337,518.54879,
2810.427,496.6467,
2807.516,486.40828,
2804.605,496.63702,
2801.695,501.60528,
2798.784,510.02823,
2795.874,494.25528,
2792.963,494.39298,
2790.052,506.24807,
2787.142,501.49988,
2784.231,499.18477,
2781.321,502.11852,
2778.410,489.81471,
2775.500,496.25,
2772.589,492.25,
2769.678,497.35578,
2766.768,519.48303,
2763.857,516.93208,
2760.947,500.75946,
2758.036,514.95708,
2755.126,525.25,
2752.215,521.52723,
2749.304,530.46222,
2746.394,536.73184,
2743.483,532.35004,
2740.573,528.68586,
2737.662,525.02663,
2734.751,530.39068,
2731.841,529.00641,
2728.930,536.53401,
2726.020,538.60243,
2723.109,532.85859,
2720.199,525.77801,
2717.288,542.7938,
2714.377,551.08738,
2711.467,569.49615,
2708.556,561.37758,
2705.646,583.68667,
2702.735,565.92526,
2699.825,568.38089,
2696.914,574.3932,
2694.003,576.06627,
2691.093,555.44616,
2688.182,567.34259,
2685.272,558.48898,
2682.361,564.00873,
2679.450,572.4969,
2676.540,564.41259,
2673.629,574.24102,
2670.719,576.96534,
2667.808,587.66637,
2664.898,564.107,
2661.987,585.85027,
2659.076,600.61422,
2656.166,580.05937,
2653.255,600.84863,
2650.345,610.90699,
2647.434,592.36461,
2644.524,594.59768,
2641.613,588.16452,
2638.702,602.09219,
2635.792,605.09347,
2632.881,619.95217,
2629.971,617.90765,
2627.060,612.75031,
2624.149,614.38437,
2621.239,616.24407,
2618.328,595.71626,
2615.418,605.58636,
2612.507,627.83094,
2609.597,610.46357,
2606.686,612.1717,
2603.775,623.76984,
2600.865,634.71761,
2597.954,641.5792,
2595.044,630.89305,
2592.133,647.25648,
2589.223,649.7921,
2586.312,667.76256,
2583.401,656.3339,
2580.491,661.02879,
2577.580,665.2632,
2574.670,670.20589,
2571.759,666.65411,
2568.848,662.01791,
2565.938,665.96431,
2563.027,662.51819,
2560.117,683.49304,
2557.206,694.44188,
2554.296,696.33925,
2551.385,697.23386,
2548.474,692.62063,
2545.564,686.62987,
2542.653,694.16611,
2539.743,698.11445,
2536.832,700.18831,
2533.922,715.21846,
2531.011,717.09967,
2528.100,726.7169,
2525.190,715.97254,
2522.279,698.61004,
2519.369,726.85374,
2516.458,723.80241,
2513.548,709.73197,
2510.637,703.97152,
2507.726,723.38009,
2504.816,701.49915,
2501.905,707.6122,
2498.995,720.96663,
2496.084,727.95729,
2493.173,709.40761,
2490.263,713.41838,
2487.352,721.502,
2484.442,747.97163,
2481.531,753.83499,
2478.621,751.96559,
2475.710,760.34201,
2472.799,768.05722,
2469.889,771.73203,
2466.978,753.88951,
2464.068,745.03838,
2461.157,753.36745,
2458.247,755.85287,
2455.336,765.05628,
2452.425,778.70755,
2449.515,759.47662,
2446.604,778.47343,
2443.694,793.18009,
2440.783,774.05631,
2437.872,789.32293,
2434.962,789.14862,
2432.051,789.10196,
2429.141,791.69122,
2426.230,805.20694,
2423.320,827.10755,
2420.409,807.98081,
2417.498,801.85674,
2414.588,834.58445,
2411.677,831.28586,
2408.767,825.92618,
2405.856,820.85231,
2402.946,821.87467,
2400.035,820.64437,
2397.124,817.94517,
2394.214,841.8452,
2391.303,841.89092,
2388.393,838.74303,
2385.482,843.07375,
2382.571,867.07266,
2379.661,871.99417,
2376.750,868.04067,
2373.840,859.54377,
2370.929,869.13087,
2368.019,877.70814,
2365.108,868.48298,
2362.197,879.77884,
2359.287,883.06504,
2356.376,900.21654,
2353.466,891.72096,
2350.555,877.20014,
2347.645,883.84205,
2344.734,900.79843,
2341.823,911.1505,
2338.913,918.02613,
2336.002,923.28352,
2333.092,914.87075,
2330.181,956.00947,
2327.270,913.55032,
2324.360,902.50935,
2321.449,953.45069,
2318.539,936.71478,
2315.628,945.02978,
2312.718,929.21915,
2309.807,949.45494,
2306.896,949.47848,
2303.986,949.08124,
2301.075,948.14366,
2298.165,962.79848,
2295.254,953.57315,
2292.344,967.78539,
2289.433,939.29637,
2286.522,958.43744,
2283.612,963.17984,
2280.701,983.02126,
2277.791,994.2882,
2274.880,975.74392,
2271.969,996.89198,
2269.059,1017.656,
2266.148,1015.1181,
2263.238,1003.0531,
2260.327,1039.4913,
2257.417,1028.5383,
2254.506,1037.9822,
2251.595,1039.2646,
2248.685,1046.3999,
2245.774,1018.1077,
2242.864,1041.7039,
2239.953,1048.4776,
2237.043,1045.3536,
2234.132,1042.5539,
2231.221,1053.0666,
2228.311,1074.5167,
2225.400,1075.5877,
2222.490,1086.136,
2219.579,1085.6948,
2216.669,1098.7285,
2213.758,1101.9454,
2210.847,1129.4615,
2207.937,1149.6799,
2205.026,1187.4725,
2202.116,1189.6406,
2199.205,1213.25,
2196.294,1232.3579,
2193.384,1259.3285,
2190.473,1293.4214,
2187.563,1320.3998,
2184.652,1356.672,
2181.742,1392.5688,
2178.831,1430.3124,
2175.920,1463.4158,
2173.010,1527.3299,
2170.099,1548.6503,
2167.189,1579.659,
2164.278,1639.7716,
2161.368,1693.9602,
2158.457,1780.7918,
2155.546,1811.1577,
2152.636,1858.0318,
2149.725,1932.4983,
2146.815,1972.3157,
2143.904,2001.0455,
2140.993,2003.2869,
2138.083,2039.6847,
2135.172,2047.0905,
2132.262,2061.243,
2129.351,2019.736,
2126.441,1984.2791,
2123.530,1927.1837,
2120.619,1827.8833,
2117.709,1769.9907,
2114.798,1678.5536,
2111.888,1604.3516,
2108.977,1526.6539,
2106.067,1468.123,
2103.156,1424.6961,
2100.245,1365.2362,
2097.335,1339.6374,
2094.424,1307.0269,
2091.514,1280.4569,
2088.603,1267.3007,
2085.692,1281.0269,
2082.782,1258.7361,
2079.871,1253.4647,
2076.961,1239.3478,
2074.050,1264.4561,
2071.140,1229.4109,
2068.229,1226.9844,
2065.318,1225.1395,
2062.408,1227.3862,
2059.497,1215.244,
2056.587,1223.8894,
2053.676,1211.101,
2050.766,1242.3247,
2047.855,1199.2785,
2044.944,1206.7676,
2042.034,1239.0591,
2039.123,1221.213,
2036.213,1236.5411,
2033.302,1223.0543,
2030.391,1208.8606,
2027.481,1216.3596,
2024.570,1261.8632,
2021.660,1230.6743,
2018.749,1227.7316,
2015.839,1262.5597,
2012.928,1243.6409,
2010.017,1236.9514,
2007.107,1238.4369,
2004.196,1229.4047,
2001.286,1229.7517,
1998.375,1221.1575,
1995.465,1227.4089,
1992.554,1211.0914,
1989.643,1230.455,
1986.733,1242.8956,
1983.822,1199.9804,
1980.912,1200.2209,
1978.001,1224.7416,
1975.090,1207.6943,
1972.180,1201.8351,
1969.269,1226.138,
1966.359,1226.8175,
1963.448,1245.6265,
1960.538,1216.9206,
1957.627,1235.8909,
1954.716,1232.4511,
1951.806,1214.7965,
1948.895,1226.5253,
1945.985,1227.0801,
1943.074,1202.261,
1940.164,1231.9906,
1937.253,1245.5023,
1934.342,1231.2158,
1931.432,1211.086,
1928.521,1201.1982,
1925.611,1202.9708,
1922.700,1187.4213,
1919.790,1209.9491,
1916.879,1174.2492,
1913.968,1185.2328,
1911.058,1185.3641,
1908.147,1218.9697,
1905.237,1238.2867,
1902.326,1213.2396,
1899.415,1191.7049,
1896.505,1188.7803,
1893.594,1207.3415,
1890.684,1200.5703,
1887.773,1213.1547,
1884.863,1228.8013,
1881.952,1227.46,
1879.041,1192.2079,
1876.131,1203.2382,
1873.220,1221.3253,
1870.310,1223.25,
1867.399,1212.4259,
1864.489,1226.4447,
1861.578,1224.4318,
1858.667,1165.8787,
1855.757,1218.8192,
1852.846,1244.7064,
1849.936,1226.5052,
1847.025,1232.3133,
1844.114,1208.2265,
1841.204,1213.9773,
1838.293,1234.24,
1835.383,1242.436,
1832.472,1246.0291,
1829.562,1274.0797,
1826.651,1276.942,
1823.740,1277.8017,
1820.830,1282.565,
1817.919,1283.25,
1815.009,1290.9561,
1812.098,1264.4232,
1809.188,1267.8159,
1806.277,1268.25,
1803.366,1296.5846,
1800.456,1257.5797,
1797.545,1270.7177,
1794.635,1335.0909,
1791.724,1286.4537,
1788.813,1346.241,
1785.903,1323.6434,
1782.992,1335.3483,
1780.082,1329.4929,
1777.171,1346.2462,
1774.261,1338.4551,
1771.350,1342.1265,
1768.439,1331.25,
1765.529,1346.2528,
1762.618,1354.1044,
1759.708,1351.424,
1756.797,1352.2576,
1753.887,1355.8404,
1750.976,1345.5602,
1748.065,1354.1409,
1745.155,1389.6047,
1742.244,1371.7917,
1739.334,1393.2241,
1736.423,1405.3042,
1733.512,1421.4411,
1730.602,1435.7302,
1727.691,1468.1888,
1724.781,1462.305,
1721.870,1464.6881,
1718.960,1468.7167,
1716.049,1459.1823,
1713.138,1467.5099,
1710.228,1466.6391,
1707.317,1480.4031,
1704.407,1477.758,
1701.496,1487.277,
1698.586,1523.3614,
1695.675,1525.3143,
1692.764,1538.5041,
1689.854,1585.1713,
1686.943,1626.8672,
1684.033,1627.2748,
1681.122,1579.0826,
1678.211,1682.2507,
1675.301,1662.3148,
1672.390,1710.253,
1669.480,1711.7554,
1666.569,1774.7959,
1663.659,1818.1809,
1660.748,1873.9993,
1657.837,1862.5184,
1654.927,1920.3277,
1652.016,1965.5173,
1649.106,1977.0089,
1646.195,2009.0722,
1643.285,2083.9564,
1640.374,2114.8981,
1637.463,2146.7272,
1634.553,2228.2697,
1631.642,2297.2489,
1628.732,2388.5403,
1625.821,2437.3521,
1622.911,2592.3709,
1620.000,2755.1838,
1617.089,2885.643,
1614.179,3037.907,
1611.268,3227.1118,
1608.358,3356.2566,
1605.447,3449.9364,
1602.536,3480.411,
1599.626,3585.2825,
1596.715,3567.9296,
1593.805,3501.7524,
1590.894,3470.4719,
1587.984,3467.25,
1585.073,3427.2616,
1582.162,3422.7547,
1579.252,3365.9689,
1576.341,3308.3905,
1573.431,3301.1659,
1570.520,3307.6006,
1567.610,3280.1907,
1564.699,3226.7482,
1561.788,3174.3349,
1558.878,3139.4499,
1555.967,3072.1115,
1553.057,3021.8364,
1550.146,2992.4282,
1547.235,2921.0367,
1544.325,2855.4977,
1541.414,2863.7128,
1538.504,2849.77,
1535.593,2798.6949,
1532.683,2751.8488,
1529.772,2713.8001,
1526.861,2678.673,
1523.951,2636.9772,
1521.040,2621.3255,
1518.130,2584.8586,
1515.219,2569.5321,
1512.309,2498.9932,
1509.398,2501.6797,
1506.487,2498.7227,
1503.577,2477.5152,
1500.666,2467.6538,
1497.756,2425.0045,
1494.845,2446.4901,
1491.934,2452.1681,
1489.024,2427.1433,
1486.113,2382.6709,
1483.203,2356.1576,
1480.292,2321.8551,
1477.382,2321.0995,
1474.471,2287.7179,
1471.560,2266.365,
1468.650,2226.0365,
1465.739,2215.6549,
1462.829,2206.12,
1459.918,2182.3327,
1457.008,2169.7423,
1454.097,2201.6011,
1451.186,2235.5073,
1448.276,2232.8328,
1445.365,2227.9269,
1442.455,2210.9832,
1439.544,2213.0901,
1436.633,2194.2013,
1433.723,2186.6329,
1430.812,2164.0387,
1427.902,2111.4078,
1424.991,2118.0422,
1422.081,2085.2208,
1419.170,2095.2109,
1416.259,2063.2274,
1413.349,2034.1033,
1410.438,2029.3493,
1407.528,2033.4687,
1404.617,2028.7916,
1401.707,2018.9506,
1398.796,2002.4493,
1395.885,2030.5889,
1392.975,2083.9373,
1390.064,2078.6646,
1387.154,2069.3888,
1384.243,1989.7646,
1381.332,1930.9845,
1378.422,2024.0127,
1375.511,2155.162,
1372.601,2242.0345,
1369.690,2305.8267,
1366.780,2404.75,
1363.869,2436.9677,
1360.958,2420.4435,
1358.048,2438.1357,
1355.137,2533.9999,
1352.227,2600.0474,
1349.316,2623.468,
1346.406,2676.7873,
1343.495,2714.4469,
1340.584,2764.714,
1337.674,2787.6084,
1334.763,2810.2492,
1331.853,2889.0639,
1328.942,2964.2966,
1326.032,2965.0938,
1323.121,2995.8524,
1320.210,3051.8667,
1317.300,3055.3626,
1314.389,3080.7924,
1311.479,3140.8421,
1308.568,3188.4912,
1305.657,3247.3458,
1302.747,3328.1464,
1299.836,3368.4098,
1296.926,3410.5484,
1294.015,3524.5445,
1291.105,3577.6798,
1288.194,3682.4954,
1285.283,3781.7143,
1282.373,3816.3125,
1279.462,3857.1316,
1276.552,3900.7934,
1273.641,3920.9441,
1270.731,3931.1321,
1267.820,3931.3803,
1264.909,3921.7113,
1261.999,3902.6508,
1259.088,3886.2326,
1256.178,3816.7335,
1253.267,3780.6997,
1250.356,3711.6199,
1247.446,3600.6949,
1244.535,3531.3572,
1241.625,3490.5871,
1238.714,3407.4616,
1235.804,3310.6966,
1232.893,3280.6352,
1229.982,3233.0848,
1227.072,3198.6829,
1224.161,3155.9058,
1221.251,3078.2661,
1218.340,3034.1678,
1215.430,2978.6566,
1212.519,2892.4465,
1209.608,2854.2213,
1206.698,2888.3775,
1203.787,2869.0691,
1200.877,2864.6052,
1197.966,2983.2942,
1195.055,3005.4617,
1192.145,3105.1733,
1189.234,3197.5877,
1186.324,3249.8882,
1183.413,3304.2297,
1180.503,3311.1048,
1177.592,3236.0582,
1174.681,3248.661,
1171.771,3200.9834,
1168.860,3102.7436,
1165.950,3073.8991,
1163.039,3028.7426,
1160.129,2964.0616,
1157.218,2949.0372,
1154.307,2938.939,
1151.397,2889.5107,
1148.486,2889.5007,
1145.576,2885.0187,
1142.665,2879.6912,
1139.754,2873.5546,
1136.844,2830.9321,
1133.933,2783.9247,
1131.023,2785.4385,
1128.112,2799.1802,
1125.202,2785.7717,
1122.291,2803.1166,
1119.380,2781.6398,
1116.470,2821.3535,
1113.559,2844.0347,
1110.649,2861.0372,
1107.738,2850.6396,
1104.828,2826.6797,
1101.917,2824.1972,
1099.006,2852.7035,
1096.096,2862.4224,
1093.185,2832.5703,
1090.275,2879.6155,
1087.364,2830.8712,
1084.453,2833.6231,
1081.543,2848.9238,
1078.632,2842.3241,
1075.722,2855.9515,
1072.811,2876.8085,
1069.901,2884.6678,
1066.990,2886.0583,
1064.079,2961.1065,
1061.169,2991.8316,
1058.258,2989.097,
1055.348,2991.4258,
1052.437,3002.1214,
1049.527,3041.9479,
1046.616,3034.1284,
1043.705,3033.25,
1040.795,3053.0436,
1037.884,3034.4115,
1034.974,3022.009,
1032.063,3051.9192,
1029.153,3056.0037,
1026.242,3045.6242,
1023.331,3076.0814,
1020.421,3124.0761,
1017.510,3147.2925,
1014.600,3167.3213,
1011.689,3193.5261,
1008.778,3218.7645,
1005.868,3304.0299,
1002.957,3390.9257,
1000.047,3493.066,
997.136,3599.0784,
994.226,3645.7885,
991.315,3607.3688,
988.404,3525.9269,
985.494,3491.8307,
982.583,3428.4455,
979.673,3406.0804,
976.762,3340.1914,
973.852,3310.0683,
970.941,3327.4355,
968.030,3326.1921,
965.120,3303.293,
962.209,3313.5235,
959.299,3357.745,
956.388,3364.6107,
953.477,3349.2625,
950.567,3349.4455,
947.656,3378.9185,
944.746,3384.0158,
941.835,3398.8266,
938.925,3406.8564,
936.014,3421.3898,
933.103,3426.1881,
930.193,3400.4656,
927.282,3348.1959,
924.372,3328.747,
921.461,3306.3672,
918.551,3269.6224,
915.640,3221.9035,
912.729,3182.7614,
909.819,3170.0251,
906.908,3145.5947,
903.998,3172.0877,
901.087,3178.6135,
898.176,3210.6993,
895.266,3242.7586,
892.355,3252.8407,
889.445,3346.8386,
886.534,3361.4428,
883.624,3356.176,
880.713,3376.7471,
877.802,3401.6396,
874.892,3393.403,
871.981,3344.086,
869.071,3294.7967,
866.160,3339.3769,
863.250,3354.3386,
860.339,3353.0515,
857.428,3358.9368,
854.518,3331.8889,
851.607,3319.4079,
848.697,3295.9277,
845.786,3286.769,
842.875,3304.0283,
839.965,3327.1672,
837.054,3290.985,
834.144,3356.4564,
831.233,3353.2512,
828.323,3348.2174,
825.412,3333.864,
822.501,3293.5265,
819.591,3272.8665,
816.680,3228.1794,
813.770,3177.7803,
810.859,3149.2864,
807.949,3145.4549,
805.038,3152.3451,
802.127,3161.3995,
799.217,3151.0691,
796.306,3123.412,
793.396,3100.1889,
790.485,3098.778,
787.574,3121.5997,
784.664,3078.1338,
781.753,3112.522,
778.843,3105.3153,
775.932,3084.2746,
773.022,3108.4631,
770.111,3148.5244,
767.200,3151.25,
764.290,3131.6022,
761.379,3124.7335,
758.469,3132.4832,
755.558,3117.2775,
752.648,3084.6933,
749.737,3034.5131,
746.826,2992.1349,
743.916,2942.886,
741.005,2851.8915,
738.095,2671.6548,
735.184,2482.926,
732.274,2448.8556,
729.363,2568.0235,
726.452,2773.0237,
723.542,2926.8085,
720.631,2989.5323,
717.721,3003.9586,
714.810,3034.6077,
711.899,3080.4777,
708.989,3051.4284,
706.078,3074.4878,
703.168,3072.3561,
700.257,3052.81,
697.347,3023.7726,
694.436,2993.0536,
691.525,2985.8194,
688.615,2969.785,
685.704,2970.7473,
682.794,2993.3137,
679.883,3024.4839,
676.973,2985.2167,
674.062,2961.936,
671.151,2987.0014,
668.241,3029.0588,
665.330,3024.418,
662.420,3006.8459,
659.509,3012.774,
656.598,3015.6535,
653.688,3009.7195,
650.777,3002.3031,
647.867,3033.3599,
644.956,3035.2968,
642.046,3028.104,
639.135,3021.202,
636.224,3017.3853,
633.314,3044.3792,
630.403,3062.483,
627.493,3070.25,
624.582,3079.7849,
621.672,3122.5525,
618.761,3109.0512,
615.850,3125.7385,
612.940,3138.81,
610.029,3133.1435,
607.119,3150.5154,
604.208,3113.1993,
601.297,3112.704,
598.387,3130.8297,
595.476,3137.25,
592.566,3137.25,
589.655,3172.884,
586.745,3184.4386,
583.834,3158.0008,
580.923,3100.0415,
578.013,3065.5132,
575.102,3033.8801,
572.192,3036.1861,
569.281,3076.8582,
566.371,3113.6415,
563.460,3151.8179,
560.549,3183.792,
557.639,3198.2216,
554.728,3187.0529,
551.818,3183.9317,
548.907,3202.1418,
545.996,3209.1957,
543.086,3206.6184,
540.175,3231.5351,
537.265,3257.8755,
534.354,3258.2196,
531.444,3259.2817,
528.533,3285.0845,
525.622,3282.7566,
522.712,3297.4188,
519.801,3332.836,
516.891,3376.9106,
513.980,3390.0736,
511.070,3429.9891,
508.159,3476.3367,
505.248,3521.017,
502.338,3556.1596,
499.427,3553.0723,
496.517,3598.6338,
493.606,3624.4917,
490.695,3601.6125,
487.785,3575.4396,
484.874,3628.1177,
481.964,3654.6819,
479.053,3643.102,
476.143,3621.599,
473.232,3613.056,
470.321,3612.1963,
467.411,3619.0619,
464.500,3632.2222,
461.590,3591.6379,
458.679,3604.463,
455.769,3621.0994,
452.858,3613.6933,
449.947,3608.3457,
447.037,3660.0382,
444.126,3663.9349,
441.216,3611.8531,
438.305,3609.5673,
435.395,3611.2169,
432.484,3620.1683,
429.573,3634.8,
426.663,3650.0029,
423.752,3617.0765,
420.842,3593.1163,
417.931,3588.7141,
415.020,3611.4648,
412.110,3667.8526,
409.199,3745.9516,
406.289,3802.5603,
403.378,3791.2961,
400.468,3804.904,
397.557,3782.5142,
394.646,3735.1637,
391.736,3673.1494,
388.825,3607.5313,
385.915,3624.9714,
383.004,3636.1198,
380.094,3591.8492,
377.183,3760.4038,
374.272,3843.0735,
371.362,3890.321,
368.451,3932.3898,
365.541,3951.1532,
362.630,3957.8887,
359.719,3975.2322,
356.809,4014.5187,
353.898,4035.485,
350.988,4033.1127,
348.077,4013.1816,
345.167,3983.1042,
342.256,4019.7106,
339.345,4050.9759,
336.435,4080.0761,
333.524,4109.0486,
330.614,4134.3839,
327.703,4134.0355,
324.793,4141.7175,
321.882,4186.259,
318.971,4189.9762,
316.061,4203.9462,
313.150,4228.7976,
310.240,4265.9034,
307.329,4333.7112,
304.418,4373.4726,
301.508,4378.0254,
298.597,4335.8216,
295.687,4387.1065,
292.776,4466.167,
289.866,4587.7356,
286.955,4813.0469,
284.044,5010.3323,
281.134,5215.1146,
278.223,5419.1116,
275.313,5548.0613,
272.402,5702.4678,
269.492,5838.9262,
266.581,5941.3459,
263.670,6026.6268,
260.760,6116.0255,
257.849,6212.9742,
254.939,6320.8549,
252.028,6382.3291,
249.117,6379.2108,
246.207,6352.9853,
243.296,6371.2862,
240.386,6389.5748,
237.475,6309.5028,
234.565,6156.4368,
231.654,6087.7807,
228.743,5985.2187,
225.833,5864.7589,
222.922,5734.2751,
220.012,5649.0341,
217.101,5563.3455,
214.191,5504.9985,
211.280,5510.8182,
208.369,5487.7015,
205.459,5430.7355,
202.548,5364.0049,
199.638,5374.164,
196.727,5420.6186,
193.816,5451.1428,
190.906,5445.412,
187.995,5421.5192,
185.085,5423.6528,
182.174,5428.3941,
179.264,5403.0973,
176.353,5492.5222,
173.442,5530.4728,
170.532,5500.0335,
167.621,5446.6813,
164.711,5346.0569,
161.800,5208.5292,
158.890,5033.6354,
155.979,4736.9863,
153.068,4374.1942,
150.158,3942.1508,
147.247,3400.8148,
144.337,2794.5462,
141.426,2190.7384,
138.516,1620.8098,
135.605,1154.7954,
132.694,782.58565,
129.784,504.14614,
126.873,349.67809,
123.963,240.28739,
121.052,162.26962,
118.141,114.43819,
115.231,85.116615,
112.320,71.13182,
109.410,66.204671,
106.499,55.522343,
103.589,53.25,
100.678,47.002701,
97.767,30.651137,
94.857,34.407934,
91.946,33.025113,
89.036,29.830571,
86.125,39.759445,
83.215,33.224354,
80.304,24.531702,
77.393,22.407192,
74.483,18.31919,
71.572,18.786465,
68.662,22.834395,
65.751,18.595689,
62.840,19.65851,
59.930,20.564424,
57.019,14.218686,
54.109,10.264196,
51.198,9.7580464,
48.288,13.329274,
45.377,23.176567,
42.466,24.364465,
39.556,19.904644,
36.645,17.798074,
33.735,17.769248,
30.824,19.133548,
27.914,21.938249,
25.003,21.627363,
22.092,21.895809,
19.182,23.982252,
16.271,46.365936,
13.361,177.89427,
10.450,424.25315,
7.539,877.45983,
4.629,1101.0966,
1.718,1054.2129,
-1.192,578.06323,
-4.103,262.02882,
-7.013,68.367875,
-9.924,2.25,
