,PL77CF~1,
Raman shift [1/cm],Intensity,
3014.167,1.25,
3011.256,0.25,
3008.346,184.55172,
3005.435,224.13693,
3002.525,236.04251,
2999.614,256.34869,
2996.704,248.88711,
2993.793,250.25922,
2990.882,252.853,
2987.972,265.21469,
2985.061,259.58005,
2982.151,283.26683,
2979.240,301.19962,
2976.329,307.75819,
2973.419,328.74268,
2970.508,317.56664,
2967.598,331.68012,
2964.687,334.9966,
2961.777,341.0279,
2958.866,331.56948,
2955.955,367.70352,
2953.045,375.04865,
2950.134,379.19755,
2947.224,388.59163,
2944.313,403.84544,
2941.403,419.5479,
2938.492,411.94105,
2935.581,411.8144,
2932.671,429.97104,
2929.760,432.57692,
2926.850,428.35451,
2923.939,439.89019,
2921.028,443.87358,
2918.118,460.92758,
2915.207,448.31338,
2912.297,472.16961,
2909.386,466.04562,
2906.476,475.5365,
2903.565,460.57297,
2900.654,464.64938,
2897.744,461.92312,
2894.833,441.61073,
2891.923,457.359,
2889.012,446.92052,
2886.102,431.22973,
2883.191,453.22734,
2880.280,420.89593,
2877.370,372.51177,
2874.459,366.29422,
2871.549,417.35549,
2868.638,457.02524,
2865.727,461.51155,
2862.817,453.33556,
2859.906,473.13604,
2856.996,469.26359,
2854.085,468.89076,
2851.175,478.05727,
2848.264,473.956,
2845.353,466.40097,
2842.443,469.65627,
2839.532,451.83217,
2836.622,458.31185,
2833.711,455.83555,
2830.801,456.34338,
2827.890,464.12059,
2824.979,464.71985,
2822.069,459.44333,
2819.158,476.63005,
2816.248,473.51447,
2813.337,503.41465,
2810.427,480.77204,
2807.516,476.04141,
2804.605,470.47596,
2801.695,472.42105,
2798.784,473.02823,
2795.874,477.52968,
2792.963,481.96426,
2790.052,469.25257,
2787.142,461.90808,
2784.231,459.96121,
2781.321,447.25576,
2778.410,463.07995,
2775.500,455.82552,
2772.589,488.25,
2769.678,482.68006,
2766.768,469.75679,
2763.857,494.19605,
2760.947,491.30043,
2758.036,478.07153,
2755.126,491.9124,
2752.215,497.39993,
2749.304,497.48381,
2746.394,494.76816,
2743.483,495.29997,
2740.573,504.68586,
2737.662,494.2707,
2734.751,513.2742,
2731.841,501.19505,
2728.930,503.0677,
2726.020,518.47454,
2723.109,525.5695,
2720.199,526.42487,
2717.288,530.56751,
2714.377,519.99164,
2711.467,530.80715,
2708.556,534.47358,
2705.646,535.85565,
2702.735,544.89947,
2699.825,521.4027,
2696.914,531.25048,
2694.003,534.22236,
2691.093,539.30414,
2688.182,550.43148,
2685.272,522.17034,
2682.361,526.76747,
2679.450,540.91253,
2676.540,538.49389,
2673.629,552.90469,
2670.719,541.54943,
2667.808,537.95819,
2664.898,553.31518,
2661.987,540.95003,
2659.076,562.32542,
2656.166,546.42749,
2653.255,553.9881,
2650.345,573.01044,
2647.434,580.02079,
2644.524,569.76325,
2641.613,577.53535,
2638.702,569.28156,
2635.792,581.06157,
2632.881,572.08361,
2629.971,561.99498,
2627.060,596.91937,
2624.149,582.59999,
2621.239,601.01927,
2618.328,579.84342,
2615.418,590.59545,
2612.507,598.28157,
2609.597,595.3518,
2606.686,613.69176,
2603.775,602.92857,
2600.865,599.77902,
2597.954,615.10626,
2595.044,615.55381,
2592.133,635.09089,
2589.223,619.17735,
2586.312,626.49619,
2583.401,642.25,
2580.491,629.90869,
2577.580,631.2434,
2574.670,636.10559,
2571.759,643.28511,
2568.848,619.54829,
2565.938,622.0594,
2563.027,646.93404,
2560.117,635.4649,
2557.206,637.52306,
2554.296,643.39188,
2551.385,641.44002,
2548.474,654.10205,
2545.564,666.9651,
2542.653,654.8708,
2539.743,665.18839,
2536.832,670.25,
2533.922,666.34462,
2531.011,668.40033,
2528.100,664.11413,
2525.190,676.36516,
2522.279,692.48449,
2519.369,698.75934,
2516.458,683.90369,
2513.548,665.2046,
2510.637,694.89738,
2507.726,679.55856,
2504.816,686.74943,
2501.905,694.6122,
2498.995,685.71253,
2496.084,682.15595,
2493.173,684.40761,
2490.263,702.77772,
2487.352,691.3752,
2484.442,696.52837,
2481.531,711.20204,
2478.621,713.87557,
2475.710,704.227,
2472.799,704.20961,
2469.889,716.15859,
2466.978,710.59029,
2464.068,707.25,
2461.157,731.36745,
2458.247,748.77951,
2455.336,749.69813,
2452.425,739.79245,
2449.515,732.78848,
2446.604,765.25,
2443.694,753.62168,
2440.783,745.25,
2437.872,760.03121,
2434.962,753.98733,
2432.051,754.71299,
2429.141,759.09702,
2426.230,777.07656,
2423.320,774.53632,
2420.409,756.05756,
2417.498,789.38767,
2414.588,779.72539,
2411.677,772.42929,
2408.767,776.49114,
2405.856,783.16186,
2402.946,791.19638,
2400.035,795.64437,
2397.124,795.23931,
2394.214,787.5744,
2391.303,785.03455,
2388.393,797.18027,
2385.482,811.80938,
2382.571,808.22438,
2379.661,807.4595,
2376.750,807.77205,
2373.840,807.91569,
2370.929,841.83847,
2368.019,839.29739,
2365.108,849.5301,
2362.197,836.26369,
2359.287,839.03997,
2356.376,868.20069,
2353.466,863.69011,
2350.555,860.75527,
2347.645,852.71228,
2344.734,858.16249,
2341.823,832.76408,
2338.913,887.63206,
2336.002,863.28352,
2333.092,866.69813,
2330.181,866.45974,
2327.270,881.2599,
2324.360,878.59432,
2321.449,889.83504,
2318.539,889.63225,
2315.628,892.61931,
2312.718,880.35131,
2309.807,910.86482,
2306.896,910.17956,
2303.986,888.03576,
2301.075,904.73932,
2298.165,889.70152,
2295.254,887.18537,
2292.344,917.09653,
2289.433,898.57045,
2286.522,903.97761,
2283.612,927.43114,
2280.701,944.63563,
2277.791,942.33015,
2274.880,947.45994,
2271.969,952.67387,
2269.059,948.95301,
2266.148,953.52045,
2263.238,962.24613,
2260.327,959.87077,
2257.417,963.98,
2254.506,963.19593,
2251.595,995.95174,
2248.685,990.78275,
2245.774,1008.6782,
2242.864,950.13027,
2239.953,974.97418,
2237.043,973.87392,
2234.132,998.56682,
2231.221,1015.9348,
2228.311,1023.4691,
2225.400,1043.2086,
2222.490,1013.9342,
2219.579,1036.7538,
2216.669,1027.2357,
2213.758,1057.6461,
2210.847,1077.8923,
2207.937,1092.6799,
2205.026,1069.9153,
2202.116,1108.561,
2199.205,1108.5378,
2196.294,1134.7219,
2193.384,1157.829,
2190.473,1159.8239,
2187.563,1172.5255,
2184.652,1233.3165,
2181.742,1269.2516,
2178.831,1325.3124,
2175.920,1361.913,
2173.010,1410.2035,
2170.099,1467.9787,
2167.189,1513.7953,
2164.278,1603.043,
2161.368,1690.392,
2158.457,1742.9874,
2155.546,1831.1722,
2152.636,1906.452,
2149.725,1983.505,
2146.815,2021.349,
2143.904,2090.3578,
2140.993,2107.1548,
2138.083,2118.1222,
2135.172,2152.7206,
2132.262,2135.596,
2129.351,2097.574,
2126.441,2062.7451,
2123.530,1958.0827,
2120.619,1845.6174,
2117.709,1762.3092,
2114.798,1665.6189,
2111.888,1571.2019,
2108.977,1476.846,
2106.067,1412.123,
2103.156,1354.6187,
2100.245,1295.2343,
2097.335,1266.7579,
2094.424,1228.3251,
2091.514,1191.8979,
2088.603,1209.2684,
2085.692,1212.7482,
2082.782,1201.1818,
2079.871,1187.5709,
2076.961,1179.6375,
2074.050,1177.9106,
2071.140,1171.4109,
2068.229,1171.9779,
2065.318,1160.533,
2062.408,1155.0684,
2059.497,1164.244,
2056.587,1160.8314,
2053.676,1143.9177,
2050.766,1133.7889,
2047.855,1109.3037,
2044.944,1143.7869,
2042.034,1136.146,
2039.123,1151.7719,
2036.213,1151.6766,
2033.302,1121.1849,
2030.391,1143.5882,
2027.481,1159.25,
2024.570,1143.2361,
2021.660,1176.944,
2018.749,1153.25,
2015.839,1149.6181,
2012.928,1126.0201,
2010.017,1130.769,
2007.107,1143.9248,
2004.196,1161.0953,
2001.286,1159.5398,
1998.375,1154.8169,
1995.465,1151.7438,
1992.554,1146.7441,
1989.643,1145.2846,
1986.733,1118.6412,
1983.822,1142.8268,
1980.912,1139.5668,
1978.001,1136.6229,
1975.090,1128.0775,
1972.180,1100.8378,
1969.269,1104.7616,
1966.359,1119.304,
1963.448,1097.0651,
1960.538,1102.2342,
1957.627,1128.4327,
1954.716,1099.198,
1951.806,1126.6907,
1948.895,1155.6528,
1945.985,1156.8758,
1943.074,1120.3239,
1940.164,1103.1345,
1937.253,1092.4021,
1934.342,1103.8227,
1931.432,1111.6727,
1928.521,1056.0514,
1925.611,1053.6393,
1922.700,1063.4586,
1919.790,1071.0014,
1916.879,1090.855,
1913.968,1053.298,
1911.058,1085.5053,
1908.147,1099.9288,
1905.237,1085.9927,
1902.326,1095.89,
1899.415,1046.0915,
1896.505,1072.9067,
1893.594,1074.6189,
1890.684,1052.3743,
1887.773,1071.8613,
1884.863,1096.1634,
1881.952,1083.9976,
1879.041,1108.5096,
1876.131,1110.1062,
1873.220,1107.3783,
1870.310,1077.546,
1867.399,1069.346,
1864.489,1065.4447,
1861.578,1069.5962,
1858.667,1070.732,
1855.757,1113.2536,
1852.846,1110.0038,
1849.936,1117.0868,
1847.025,1134.6004,
1844.114,1139.0076,
1841.204,1138.1731,
1838.293,1132.7791,
1835.383,1142.575,
1832.472,1154.5752,
1829.562,1128.0859,
1826.651,1144.6011,
1823.740,1194.3765,
1820.830,1153.4621,
1817.919,1155.1663,
1815.009,1159.25,
1812.098,1152.0689,
1809.188,1157.8159,
1806.277,1136.7369,
1803.366,1169.1003,
1800.456,1160.305,
1797.545,1161.8032,
1794.635,1170.8621,
1791.724,1195.415,
1788.813,1188.6402,
1785.903,1163.8779,
1782.992,1175.8118,
1780.082,1163.0702,
1777.171,1175.9176,
1774.261,1174.8699,
1771.350,1188.2248,
1768.439,1217.2709,
1765.529,1226.8889,
1762.618,1239.385,
1759.708,1227.5869,
1756.797,1223.4773,
1753.887,1227.3783,
1750.976,1221.1741,
1748.065,1248.8153,
1745.155,1256.4759,
1742.244,1259.8442,
1739.334,1282.3676,
1736.423,1269.0538,
1733.512,1268.9817,
1730.602,1278.9822,
1727.691,1272.8057,
1724.781,1304.8594,
1721.870,1341.6121,
1718.960,1326.872,
1716.049,1360.8428,
1713.138,1342.6001,
1710.228,1339.9906,
1707.317,1375.6329,
1704.407,1412.5923,
1701.496,1402.5768,
1698.586,1428.9695,
1695.675,1403.1787,
1692.764,1424.918,
1689.854,1415.7264,
1686.943,1436.508,
1684.033,1499.6605,
1681.122,1473.7258,
1678.211,1509.8979,
1675.301,1577.0434,
1672.390,1544.4623,
1669.480,1615.5147,
1666.569,1648.1611,
1663.659,1642.3279,
1660.748,1708.2334,
1657.837,1758.5999,
1654.927,1774.1329,
1652.016,1771.5098,
1649.106,1862.5438,
1646.195,1874.7056,
1643.285,1894.8223,
1640.374,1962.1664,
1637.463,1960.0154,
1634.553,2057.8608,
1631.642,2166.4335,
1628.732,2274.6648,
1625.821,2344.322,
1622.911,2453.6301,
1620.000,2618.1586,
1617.089,2786.8669,
1614.179,2927.2737,
1611.268,3110.3349,
1608.358,3270.7115,
1605.447,3274.4785,
1602.536,3372.0981,
1599.626,3370.9706,
1596.715,3376.6032,
1593.805,3323.5901,
1590.894,3289.0686,
1587.984,3298.2414,
1585.073,3230.483,
1582.162,3257.4896,
1579.252,3202.2408,
1576.341,3163.417,
1573.431,3179.1789,
1570.520,3138.623,
1567.610,3120.5245,
1564.699,3056.8974,
1561.788,3011.4192,
1558.878,2963.3325,
1555.967,2887.7722,
1553.057,2849.3191,
1550.146,2834.4173,
1547.235,2755.6398,
1544.325,2666.2283,
1541.414,2649.2114,
1538.504,2603.2179,
1535.593,2550.7107,
1532.683,2532.9554,
1529.772,2482.2192,
1526.861,2429.1569,
1523.951,2386.9867,
1521.040,2340.4917,
1518.130,2306.511,
1515.219,2301.0498,
1512.309,2291.6508,
1509.398,2233.5163,
1506.487,2209.234,
1503.577,2233.7159,
1500.666,2261.4006,
1497.756,2184.3942,
1494.845,2196.8893,
1491.934,2164.0264,
1489.024,2095.6894,
1486.113,2124.7753,
1483.203,2093.4996,
1480.292,2085.856,
1477.382,2067.4685,
1474.471,2033.3222,
1471.560,1998.8517,
1468.650,2009.7482,
1465.739,1975.0562,
1462.829,1955.0245,
1459.918,1940.5703,
1457.008,1978.543,
1454.097,1977.9505,
1451.186,1938.2113,
1448.276,1968.8328,
1445.365,1972.9285,
1442.455,1971.1567,
1439.544,1956.1355,
1436.633,1912.677,
1433.723,1906.6209,
1430.812,1912.9253,
1427.902,1871.5206,
1424.991,1882.8937,
1422.081,1850.2208,
1419.170,1826.5126,
1416.259,1820.0097,
1413.349,1838.131,
1410.438,1813.4597,
1407.528,1785.4439,
1404.617,1779.0114,
1401.707,1797.738,
1398.796,1813.722,
1395.885,1840.7069,
1392.975,1863.3744,
1390.064,1854.2029,
1387.154,1900.5213,
1384.243,1907.2837,
1381.332,1899.8699,
1378.422,1994.0712,
1375.511,2009.9965,
1372.601,2048.956,
1369.690,2107.9695,
1366.780,2193.2854,
1363.869,2211.0706,
1360.958,2195.7252,
1358.048,2261.2274,
1355.137,2306.5188,
1352.227,2331.9887,
1349.316,2372.3048,
1346.406,2412.8198,
1343.495,2477.7657,
1340.584,2469.0711,
1337.674,2502.9349,
1334.763,2601.3438,
1331.853,2630.088,
1328.942,2617.908,
1326.032,2736.9619,
1323.121,2807.9669,
1320.210,2809.2657,
1317.300,2835.8932,
1314.389,2933.7653,
1311.479,3014.7354,
1308.568,3037.2298,
1305.657,3067.0169,
1302.747,3124.8953,
1299.836,3222.6039,
1296.926,3286.9929,
1294.015,3389.0378,
1291.105,3537.6589,
1288.194,3631.5331,
1285.283,3711.1103,
1282.373,3754.2343,
1279.462,3804.7787,
1276.552,3865.5887,
1273.641,3919.8876,
1270.731,3942.6067,
1267.820,3913.081,
1264.909,3912.7442,
1261.999,3886.551,
1259.088,3867.3964,
1256.178,3838.8434,
1253.267,3720.7051,
1250.356,3625.9744,
1247.446,3499.8533,
1244.535,3374.2636,
1241.625,3286.7797,
1238.714,3215.8502,
1235.804,3123.357,
1232.893,3009.0004,
1229.982,3006.9127,
1227.072,2996.9543,
1224.161,2937.4147,
1221.251,2866.6893,
1218.340,2830.7025,
1215.430,2783.162,
1212.519,2729.9703,
1209.608,2702.1237,
1206.698,2696.4627,
1203.787,2692.0289,
1200.877,2700.039,
1197.966,2761.1819,
1195.055,2815.4449,
1192.145,2904.6437,
1189.234,2942.2795,
1186.324,3003.3462,
1183.413,3058.9657,
1180.503,3067.5402,
1177.592,3056.7651,
1174.681,3037.6473,
1171.771,2984.1991,
1168.860,2938.6516,
1165.950,2898.7733,
1163.039,2859.5203,
1160.129,2832.6833,
1157.218,2802.0976,
1154.307,2776.6528,
1151.397,2769.6432,
1148.486,2752.6592,
1145.576,2698.1729,
1142.665,2696.3971,
1139.754,2682.4183,
1136.844,2651.2379,
1133.933,2615.7898,
1131.023,2592.1686,
1128.112,2579.9649,
1125.202,2579.7379,
1122.291,2601.8713,
1119.380,2592.6224,
1116.470,2630.5712,
1113.559,2658.4475,
1110.649,2648.224,
1107.738,2636.0351,
1104.828,2633.6661,
1101.917,2619.7523,
1099.006,2582.6212,
1096.096,2572.4539,
1093.185,2608.452,
1090.275,2583.7348,
1087.364,2597.8337,
1084.453,2608.3749,
1081.543,2636.4197,
1078.632,2642.1043,
1075.722,2590.662,
1072.811,2645.3049,
1069.901,2660.1503,
1066.990,2603.0501,
1064.079,2641.6496,
1061.169,2679.5052,
1058.258,2710.1538,
1055.348,2744.8929,
1052.437,2763.578,
1049.527,2766.1899,
1046.616,2790.5171,
1043.705,2804.8115,
1040.795,2801.2264,
1037.884,2828.6057,
1034.974,2854.4085,
1032.063,2847.2038,
1029.153,2845.0569,
1026.242,2801.8091,
1023.331,2873.5786,
1020.421,2878.4906,
1017.510,2903.9446,
1014.600,2943.7443,
1011.689,2962.8292,
1008.778,2970.084,
1005.868,3063.3079,
1002.957,3181.1765,
1000.047,3290.25,
997.136,3366.5375,
994.226,3427.9264,
991.315,3450.2005,
988.404,3402.8192,
985.494,3357.9074,
982.583,3297.9485,
979.673,3299.4931,
976.762,3308.5339,
973.852,3320.6482,
970.941,3319.6912,
968.030,3291.3483,
965.120,3286.2643,
962.209,3289.6745,
959.299,3281.751,
956.388,3284.9696,
953.477,3288.1949,
950.567,3296.4912,
947.656,3331.2581,
944.746,3354.1961,
941.835,3402.2192,
938.925,3355.9996,
936.014,3321.1917,
933.103,3315.1907,
930.193,3301.6641,
927.282,3254.3793,
924.372,3238.3127,
921.461,3174.3924,
918.551,3130.1745,
915.640,3090.0282,
912.729,3060.7386,
909.819,3063.0217,
906.908,3008.2641,
903.998,3047.4043,
901.087,3107.261,
898.176,3144.3167,
895.266,3167.5808,
892.355,3202.5324,
889.445,3236.1031,
886.534,3288.0121,
883.624,3308.3425,
880.713,3303.5532,
877.802,3316.1357,
874.892,3339.4169,
871.981,3260.0724,
869.071,3252.5537,
866.160,3267.809,
863.250,3250.6125,
860.339,3237.5573,
857.428,3247.7455,
854.518,3219.2871,
851.607,3186.0044,
848.697,3141.0444,
845.786,3125.8448,
842.875,3129.9977,
839.965,3134.8666,
837.054,3143.0408,
834.144,3213.4847,
831.233,3160.5882,
828.323,3134.174,
825.412,3128.6934,
822.501,3095.2498,
819.591,3056.4091,
816.680,3037.6218,
813.770,2969.3467,
810.859,2951.5558,
807.949,2973.2183,
805.038,2963.0597,
802.127,2944.9509,
799.217,2897.7811,
796.306,2903.8177,
793.396,2924.1432,
790.485,2930.6712,
787.574,2931.6272,
784.664,2915.225,
781.753,2924.3277,
778.843,2928.2897,
775.932,2933.3486,
773.022,2951.5324,
770.111,2966.2488,
767.200,2995.4186,
764.290,2993.8482,
761.379,2966.5566,
758.469,2936.0407,
755.558,2933.9614,
752.648,2890.7874,
749.737,2863.3191,
746.826,2891.4801,
743.916,2919.6134,
741.005,2876.5906,
738.095,2853.0461,
735.184,2715.1037,
732.274,2677.5528,
729.363,2707.7166,
726.452,2751.1136,
723.542,2822.3402,
720.631,2878.2387,
717.721,2881.6474,
714.810,2870.3466,
711.899,2862.7351,
708.989,2843.3689,
706.078,2864.8852,
703.168,2858.1056,
700.257,2818.8945,
697.347,2776.8584,
694.436,2786.0972,
691.525,2780.4706,
688.615,2808.1799,
685.704,2807.9823,
682.794,2786.1862,
679.883,2789.9348,
676.973,2805.1609,
674.062,2782.7267,
671.151,2759.4834,
668.241,2772.0748,
665.330,2848.25,
662.420,2848.25,
659.509,2835.5514,
656.598,2817.4313,
653.688,2810.1513,
650.777,2831.9539,
647.867,2793.7301,
644.956,2776.5819,
642.046,2779.9566,
639.135,2788.6866,
636.224,2775.2301,
633.314,2771.2604,
630.403,2821.0941,
627.493,2857.7863,
624.582,2863.2517,
621.672,2876.7156,
618.761,2873.4503,
615.850,2891.5346,
612.940,2917.1545,
610.029,2944.5359,
607.119,2994.2826,
604.208,2978.6596,
601.297,2968.2559,
598.387,2960.804,
595.476,2947.25,
592.566,2947.25,
589.655,2931.0527,
586.745,2893.1741,
583.834,2856.7871,
580.923,2862.5959,
578.013,2919.8815,
575.102,2892.8045,
572.192,2873.3977,
569.281,2904.1078,
566.371,2953.4131,
563.460,2924.3875,
560.549,2916.5846,
557.639,2926.7413,
554.728,2938.2701,
551.818,2970.2631,
548.907,3019.2995,
545.996,3038.0854,
543.086,3015.0165,
540.175,2967.5191,
537.265,2990.3241,
534.354,3029.8497,
531.444,3069.839,
528.533,3098.4088,
525.622,3114.7037,
522.712,3155.8687,
519.801,3178.7225,
516.891,3197.3782,
513.980,3301.9081,
511.070,3303.5022,
508.159,3317.92,
505.248,3361.2848,
502.338,3435.3059,
499.427,3505.5426,
496.517,3553.0985,
493.606,3561.7903,
490.695,3540.4922,
487.785,3578.212,
484.874,3604.2829,
481.964,3620.2333,
479.053,3625.4114,
476.143,3617.7318,
473.232,3557.5395,
470.321,3558.0922,
467.411,3578.6913,
464.500,3564.4743,
461.590,3533.8447,
458.679,3517.5459,
455.769,3531.4141,
452.858,3575.1705,
449.947,3574.4065,
447.037,3576.677,
444.126,3589.3409,
441.216,3614.0707,
438.305,3647.5957,
435.395,3648.3162,
432.484,3651.6678,
429.573,3645.0498,
426.663,3584.2386,
423.752,3608.5416,
420.842,3582.4317,
417.931,3558.2278,
415.020,3635.5803,
412.110,3713.6062,
409.199,3809.7096,
406.289,3870.6729,
403.378,3838.3653,
400.468,3872.385,
397.557,3904.8443,
394.646,3914.2068,
391.736,3882.5116,
388.825,3828.2069,
385.915,3855.8899,
383.004,3889.3958,
380.094,3879.7069,
377.183,3927.8654,
374.272,3989.5575,
371.362,4057.0338,
368.451,4123.1192,
365.541,4153.8912,
362.630,4178.6372,
359.719,4175.6758,
356.809,4137.3827,
353.898,4156.1027,
350.988,4150.4003,
348.077,4144.1541,
345.167,4150.8337,
342.256,4142.616,
339.345,4149.8158,
336.435,4148.8119,
333.524,4125.6828,
330.614,4171.1373,
327.703,4215.0275,
324.793,4229.3293,
321.882,4189.3708,
318.971,4239.1814,
316.061,4277.7358,
313.150,4306.9476,
310.240,4328.469,
307.329,4410.004,
304.418,4464.5917,
301.508,4487.9023,
298.597,4475.3152,
295.687,4556.8733,
292.776,4611.2501,
289.866,4682.538,
286.955,4921.1464,
284.044,5029.8849,
281.134,5130.6446,
278.223,5247.5428,
275.313,5379.4399,
272.402,5458.3695,
269.492,5555.452,
266.581,5694.2362,
263.670,5819.952,
260.760,5903.7869,
257.849,5964.9573,
254.939,6015.5952,
252.028,6056.0615,
249.117,6053.4337,
246.207,6032.8182,
243.296,6035.0143,
240.386,6036.556,
237.475,5994.2211,
234.565,5912.8263,
231.654,5833.9449,
228.743,5817.8254,
225.833,5757.5756,
222.922,5618.1289,
220.012,5594.0865,
217.101,5558.2792,
214.191,5514.6065,
211.280,5465.8665,
208.369,5450.8122,
205.459,5445.6493,
202.548,5447.6288,
199.638,5455.611,
196.727,5452.0641,
193.816,5444.6377,
190.906,5437.6721,
187.995,5478.2175,
185.085,5535.7527,
182.174,5583.6623,
179.264,5581.4941,
176.353,5601.7549,
173.442,5627.3898,
170.532,5647.2096,
167.621,5603.951,
164.711,5526.0285,
161.800,5393.7494,
158.890,5181.4298,
155.979,4877.5086,
153.068,4535.6033,
150.158,4128.9898,
147.247,3533.8073,
144.337,2879.2996,
141.426,2264.0544,
138.516,1739.29,
135.605,1220.6997,
132.694,822.77131,
129.784,534.12883,
126.873,353.91611,
123.963,247.25437,
121.052,177.53594,
118.141,135.41572,
115.231,99.010912,
112.320,76.200917,
109.410,63.886447,
106.499,56.764895,
103.589,47.966692,
100.678,42.25,
97.767,42.25,
94.857,31.162175,
91.946,27.459333,
89.036,29.588694,
86.125,31.71631,
83.215,29.595398,
80.304,26.292269,
77.393,23.45959,
74.483,26.525675,
71.572,27.162944,
68.662,24.834395,
65.751,20.595689,
62.840,17.804894,
59.930,14.002566,
57.019,5.5415818,
54.109,5.4443217,
51.198,7.4564371,
48.288,10.238675,
45.377,8.831919,
42.466,9.0744387,
39.556,10.25,
36.645,10.25,
33.735,7.6537577,
30.824,6.5753218,
27.914,10.782373,
25.003,11.25,
22.092,11.572905,
19.182,12.776306,
16.271,28.864579,
13.361,107.31931,
10.450,222.47562,
7.539,316.74819,
4.629,151.24241,
1.718,-104.15178,
-1.192,-356.5181,
-4.103,-323.72936,
-7.013,-197.5358,
-9.924,-4.75,
