,PL037C~1,
Raman shift [1/cm],Intensity,
3014.167,1,
3011.256,3.4499893,
3008.346,616.24133,
3005.435,722.57951,
3002.525,754.81264,
2999.614,751.13897,
2996.704,773.67319,
2993.793,796.20162,
2990.882,823.96188,
2987.972,812.19171,
2985.061,866.40396,
2982.151,877.3126,
2979.240,919.5827,
2976.329,937.27594,
2973.419,979.47676,
2970.508,995.24995,
2967.598,993.14699,
2964.687,1002.6277,
2961.777,1029.6756,
2958.866,1068.9837,
2955.955,1091.7588,
2953.045,1108.1723,
2950.134,1156.8834,
2947.224,1163.6548,
2944.313,1203.0783,
2941.403,1231.8216,
2938.492,1229.0325,
2935.581,1234.8442,
2932.671,1255,
2929.760,1274.2462,
2926.850,1272.9929,
2923.939,1300.3177,
2921.028,1304.9176,
2918.118,1337.2796,
2915.207,1336.9431,
2912.297,1348.9577,
2909.386,1375.5985,
2906.476,1357.2641,
2903.565,1336.677,
2900.654,1352.1759,
2897.744,1363.56,
2894.833,1328.1753,
2891.923,1316.4583,
2889.012,1336.7457,
2886.102,1334.6906,
2883.191,1357.9679,
2880.280,1339.4976,
2877.370,1326.686,
2874.459,1318.6478,
2871.549,1333.9739,
2868.638,1395.6866,
2865.727,1407.7115,
2862.817,1428.4866,
2859.906,1423.7094,
2856.996,1442.4751,
2854.085,1438.3172,
2851.175,1431.8284,
2848.264,1414.9903,
2845.353,1402.0863,
2842.443,1415.9826,
2839.532,1414.7016,
2836.622,1399.4492,
2833.711,1396.0879,
2830.801,1407.0074,
2827.890,1386.8322,
2824.979,1429.7917,
2822.069,1457.8635,
2819.158,1448.6604,
2816.248,1459.7239,
2813.337,1453.1756,
2810.427,1483.2576,
2807.516,1499.9423,
2804.605,1476.7091,
2801.695,1460.5658,
2798.784,1461.9261,
2795.874,1463.2744,
2792.963,1460.4997,
2790.052,1481.9938,
2787.142,1470.4869,
2784.231,1453.7112,
2781.321,1485.3085,
2778.410,1473.7551,
2775.500,1460.5121,
2772.589,1484.3448,
2769.678,1482.5665,
2766.768,1514.5515,
2763.857,1557.4721,
2760.947,1538.4653,
2758.036,1531.3057,
2755.126,1550.0427,
2752.215,1551.2999,
2749.304,1549.723,
2746.394,1544.2338,
2743.483,1566.6,
2740.573,1557.8052,
2737.662,1547.1169,
2734.751,1568.8638,
2731.841,1557.1337,
2728.930,1573.6314,
2726.020,1559.7755,
2723.109,1589.0304,
2720.199,1573.3531,
2717.288,1587.3139,
2714.377,1614.9331,
2711.467,1628.5242,
2708.556,1642.8299,
2705.646,1621.2535,
2702.735,1660.5026,
2699.825,1655.1745,
2696.914,1668.8578,
2694.003,1667.1285,
2691.093,1657.2852,
2688.182,1679.8941,
2685.272,1665.3101,
2682.361,1671.9007,
2679.450,1674.2674,
2676.540,1688.37,
2673.629,1663.9731,
2670.719,1679.2116,
2667.808,1715.2491,
2664.898,1715.714,
2661.987,1717.8331,
2659.076,1723.584,
2656.166,1717.2769,
2653.255,1737.5238,
2650.345,1763.7695,
2647.434,1755.3718,
2644.524,1770.7722,
2641.613,1790.5148,
2638.702,1832.4634,
2635.792,1795.1565,
2632.881,1795.3095,
2629.971,1782.1677,
2627.060,1787.6644,
2624.149,1813.35,
2621.239,1828.0119,
2618.328,1831.1272,
2615.418,1840.3046,
2612.507,1862.9288,
2609.597,1839.0299,
2606.686,1863.8052,
2603.775,1873.5635,
2600.865,1869.7098,
2597.954,1897.5812,
2595.044,1918.4278,
2592.133,1895.1656,
2589.223,1946.6032,
2586.312,1914.4673,
2583.401,1938.7555,
2580.491,1939.6298,
2577.580,1947.9538,
2574.670,1924.1511,
2571.759,1946.0103,
2568.848,1957.4696,
2565.938,1972,
2563.027,1963.5841,
2560.117,1950.9065,
2557.206,1985.4502,
2554.296,1989.8513,
2551.385,1994.3463,
2548.474,2010.1848,
2545.564,1994.2216,
2542.653,2025.6309,
2539.743,2034.5801,
2536.832,2040.0822,
2533.922,2050.6465,
2531.011,2090.1751,
2528.100,2099.1952,
2525.190,2091.6074,
2522.279,2085.2027,
2519.369,2076.8486,
2516.458,2106.6749,
2513.548,2097.3912,
2510.637,2123.5696,
2507.726,2106.3829,
2504.816,2081.8749,
2501.905,2100.478,
2498.995,2100.8361,
2496.084,2112.4669,
2493.173,2128.8954,
2490.263,2135.4271,
2487.352,2149.1685,
2484.442,2186.5374,
2481.531,2202.4682,
2478.621,2202.2133,
2475.710,2228.9463,
2472.799,2221.5067,
2469.889,2218.5457,
2466.978,2235.7627,
2464.068,2240.127,
2461.157,2216.9625,
2458.247,2215.8823,
2455.336,2239.3366,
2452.425,2275.5047,
2449.515,2285.3119,
2446.604,2298.7766,
2443.694,2293.3726,
2440.783,2327.2905,
2437.872,2310.7447,
2434.962,2305.576,
2432.051,2318.7779,
2429.141,2345.7939,
2426.230,2351.1304,
2423.320,2340.2276,
2420.409,2371.0578,
2417.498,2372.9579,
2414.588,2386.2699,
2411.677,2351.3227,
2408.767,2366.5768,
2405.856,2405.2309,
2402.946,2425.6309,
2400.035,2442.9812,
2397.124,2417.7059,
2394.214,2462.5712,
2391.303,2483.21,
2388.393,2484.9442,
2385.482,2496.6475,
2382.571,2489.4936,
2379.661,2493.1163,
2376.750,2518.1526,
2373.840,2544.4125,
2370.929,2575.6859,
2368.019,2557.9637,
2365.108,2574.6492,
2362.197,2571.9013,
2359.287,2575.3616,
2356.376,2572.0141,
2353.466,2588.618,
2350.555,2628.8897,
2347.645,2593.7259,
2344.734,2597.4885,
2341.823,2622.6683,
2338.913,2615.3672,
2336.002,2678.7535,
2333.092,2680.1037,
2330.181,2667,
2327.270,2691.5699,
2324.360,2702.4788,
2321.449,2712.3231,
2318.539,2717.0856,
2315.628,2730.0667,
2312.718,2731.3502,
2309.807,2764.6337,
2306.896,2761.1174,
2303.986,2788.5972,
2301.075,2772.1702,
2298.165,2744.8744,
2295.254,2790.8151,
2292.344,2786.9958,
2289.433,2798.9691,
2286.522,2792.0268,
2283.612,2808.8712,
2280.701,2856.6771,
2277.791,2873.6794,
2274.880,2870.9219,
2271.969,2907.5679,
2269.059,2931.4142,
2266.148,2943.7796,
2263.238,2953.5985,
2260.327,2964.0692,
2257.417,2988.2044,
2254.506,2994.6098,
2251.595,3024.2836,
2248.685,3020.8442,
2245.774,3008.187,
2242.864,3030.7232,
2239.953,3058.1657,
2237.043,3039.82,
2234.132,3076.7532,
2231.221,3082.553,
2228.311,3077.0412,
2225.400,3139.0695,
2222.490,3175.443,
2219.579,3192.4885,
2216.669,3234.4785,
2213.758,3263.1347,
2210.847,3291.3148,
2207.937,3332.412,
2205.026,3356.2213,
2202.116,3390.9151,
2199.205,3424.6619,
2196.294,3483.0839,
2193.384,3569.4456,
2190.473,3587.4261,
2187.563,3711.4254,
2184.652,3820.8387,
2181.742,3964.9799,
2178.831,4063.8057,
2175.920,4245.49,
2173.010,4456.4348,
2170.099,4627.9192,
2167.189,4928.3633,
2164.278,5154.8573,
2161.368,5465.2748,
2158.457,5785.8925,
2155.546,6071.9618,
2152.636,6344.8134,
2149.725,6616.3891,
2146.815,6795.2616,
2143.904,6973.5204,
2140.993,7024.6296,
2138.083,7066.8387,
2135.172,7110.6721,
2132.262,7031.7931,
2129.351,6859.5578,
2126.441,6702.7958,
2123.530,6445.8124,
2120.619,6136.2397,
2117.709,5880.058,
2114.798,5547.1871,
2111.888,5219.1436,
2108.977,4953.8542,
2106.067,4720.0158,
2103.156,4497.5523,
2100.245,4313.9153,
2097.335,4169.6073,
2094.424,4086.8784,
2091.514,4010.1798,
2088.603,3932.1153,
2085.692,3918.4572,
2082.782,3879.7633,
2079.871,3861,
2076.961,3852.5812,
2074.050,3819.2545,
2071.140,3784.3564,
2068.229,3775.8294,
2065.318,3755.1105,
2062.408,3714.9463,
2059.497,3683.7976,
2056.587,3681.5814,
2053.676,3689.1662,
2050.766,3665.1555,
2047.855,3612.6265,
2044.944,3628.5465,
2042.034,3613.1448,
2039.123,3661.6768,
2036.213,3632.6533,
2033.302,3625.6741,
2030.391,3662.7276,
2027.481,3719.2436,
2024.570,3699.6579,
2021.660,3726.9305,
2018.749,3719.2144,
2015.839,3678.8425,
2012.928,3720.1141,
2010.017,3735.4951,
2007.107,3712.4916,
2004.196,3738.6072,
2001.286,3714.6008,
1998.375,3703.6545,
1995.465,3706.2134,
1992.554,3723.5293,
1989.643,3677.7282,
1986.733,3707.8228,
1983.822,3685.1662,
1980.912,3680.8322,
1978.001,3725.6345,
1975.090,3743.1145,
1972.180,3735.1688,
1969.269,3733.6751,
1966.359,3735.0815,
1963.448,3804.8666,
1960.538,3815.0734,
1957.627,3806.7585,
1954.716,3756.4651,
1951.806,3748.5897,
1948.895,3774.7916,
1945.985,3749.0637,
1943.074,3759.0369,
1940.164,3774.9909,
1937.253,3787.1745,
1934.342,3759.5556,
1931.432,3736.5584,
1928.521,3705.2591,
1925.611,3682.7015,
1922.700,3710.8232,
1919.790,3776.8433,
1916.879,3731.1152,
1913.968,3769.9471,
1911.058,3781.1051,
1908.147,3812.5123,
1905.237,3744.5001,
1902.326,3799.5274,
1899.415,3790.8305,
1896.505,3769.2169,
1893.594,3793.4391,
1890.684,3827.098,
1887.773,3809.785,
1884.863,3793.0866,
1881.952,3795.4875,
1879.041,3783.3832,
1876.131,3844.9647,
1873.220,3817.2874,
1870.310,3805.4305,
1867.399,3817.7921,
1864.489,3809.8178,
1861.578,3831.4944,
1858.667,3850.2545,
1855.757,3880.3807,
1852.846,3894.9641,
1849.936,3893.3473,
1847.025,3914.7154,
1844.114,3883.6683,
1841.204,3952.4196,
1838.293,3994.5341,
1835.383,3945.582,
1832.472,3954.0243,
1829.562,3965.7792,
1826.651,4018.8049,
1823.740,4021.249,
1820.830,4073.7328,
1817.919,4009.748,
1815.009,4034.6679,
1812.098,4059.9527,
1809.188,4085.4496,
1806.277,4111.4467,
1803.366,4123.3845,
1800.456,4087.3847,
1797.545,4092.5249,
1794.635,4082.2571,
1791.724,4110.6699,
1788.813,4128.6252,
1785.903,4212.3934,
1782.992,4226.5127,
1780.082,4208.2634,
1777.171,4206.6767,
1774.261,4256.7753,
1771.350,4273.0637,
1768.439,4323.1572,
1765.529,4332.9868,
1762.618,4260.1119,
1759.708,4309.2939,
1756.797,4344.4621,
1753.887,4385.1822,
1750.976,4372.7755,
1748.065,4365.9631,
1745.155,4402.716,
1742.244,4426.2563,
1739.334,4447.7482,
1736.423,4474.7832,
1733.512,4534.6627,
1730.602,4595.1409,
1727.691,4589.0408,
1724.781,4625.4751,
1721.870,4651.4858,
1718.960,4714.2007,
1716.049,4746.2964,
1713.138,4794.4598,
1710.228,4762.8366,
1707.317,4788.8446,
1704.407,4837.9199,
1701.496,4863.0541,
1698.586,4916.7431,
1695.675,4939.7142,
1692.764,5037.5656,
1689.854,5089.878,
1686.943,5147.0776,
1684.033,5140.2235,
1681.122,5243.2158,
1678.211,5304.429,
1675.301,5356.8397,
1672.390,5512.3858,
1669.480,5642.2274,
1666.569,5794.8125,
1663.659,5860.4825,
1660.748,6013.6828,
1657.837,6203.9087,
1654.927,6337.4207,
1652.016,6484.4953,
1649.106,6668.5987,
1646.195,6813.7263,
1643.285,6888.3978,
1640.374,7079.7387,
1637.463,7213.2603,
1634.553,7503.9752,
1631.642,7774.809,
1628.732,8306.0798,
1625.821,8655.2859,
1622.911,9089.5374,
1620.000,9508.6833,
1617.089,9793.3283,
1614.179,10407.346,
1611.268,10932.407,
1608.358,11361.866,
1605.447,11744.06,
1602.536,12073.523,
1599.626,12189.833,
1596.715,12317.803,
1593.805,12427.482,
1590.894,12545.561,
1587.984,12486.382,
1585.073,12412.04,
1582.162,12204.802,
1579.252,11972.881,
1576.341,11796.222,
1573.431,11701.912,
1570.520,11611.62,
1567.610,11407.193,
1564.699,11265.972,
1561.788,11105.72,
1558.878,11035.296,
1555.967,10862.834,
1553.057,10738.449,
1550.146,10566.051,
1547.235,10357.477,
1544.325,10181.294,
1541.414,10036.793,
1538.504,9922.5369,
1535.593,9848.115,
1532.683,9810.2182,
1529.772,9761.6568,
1526.861,9710.1488,
1523.951,9675.3822,
1521.040,9638.3149,
1518.130,9652.8909,
1515.219,9695.5594,
1512.309,9711.5315,
1509.398,9712.1709,
1506.487,9763.8656,
1503.577,9809.767,
1500.666,9790.8881,
1497.756,9795.4159,
1494.845,9861.4803,
1491.934,9873.4158,
1489.024,10000.465,
1486.113,9962.3481,
1483.203,9954.5592,
1480.292,9837.7539,
1477.382,9655.3504,
1474.471,9557.1444,
1471.560,9483.8494,
1468.650,9469.1495,
1465.739,9545.0159,
1462.829,9734.6075,
1459.918,9999.0898,
1457.008,10185.308,
1454.097,10177.382,
1451.186,10023.996,
1448.276,9798.9989,
1445.365,9492.5498,
1442.455,9177.3361,
1439.544,8993.1888,
1436.633,8838.7259,
1433.723,8729.2915,
1430.812,8624.3557,
1427.902,8516.3833,
1424.991,8532.4953,
1422.081,8420.1503,
1419.170,8376.3016,
1416.259,8263.2616,
1413.349,8222.8952,
1410.438,8217.3002,
1407.528,8278.7992,
1404.617,8382.8683,
1401.707,8388.0149,
1398.796,8445.2935,
1395.885,8538.9448,
1392.975,8490.6655,
1390.064,8387.7902,
1387.154,8230.8855,
1384.243,8090.0291,
1381.332,7943.8068,
1378.422,7906.8678,
1375.511,8311.5571,
1372.601,8622.1182,
1369.690,8736.2939,
1366.780,8891.9823,
1363.869,9050.3217,
1360.958,9164.6625,
1358.048,9285.4369,
1355.137,9408.6591,
1352.227,9531.9677,
1349.316,9650.2159,
1346.406,9766.4092,
1343.495,9882.9756,
1340.584,9935.4264,
1337.674,10092.543,
1334.763,10200.282,
1331.853,10286.514,
1328.942,10340.699,
1326.032,10384.519,
1323.121,10478.211,
1320.210,10554.614,
1317.300,10760.972,
1314.389,11008.252,
1311.479,11251.319,
1308.568,11544.435,
1305.657,11838.835,
1302.747,12090.215,
1299.836,12406.288,
1296.926,12550.623,
1294.015,12693.118,
1291.105,12836.365,
1288.194,12848.61,
1285.283,12956.548,
1282.373,13084.164,
1279.462,13169.235,
1276.552,13287.733,
1273.641,13431.377,
1270.731,13481.652,
1267.820,13442.285,
1264.909,13436.372,
1261.999,13324.508,
1259.088,13174.008,
1256.178,12907.207,
1253.267,12723.603,
1250.356,12527.941,
1247.446,12337.068,
1244.535,12093.447,
1241.625,11801.219,
1238.714,11522.262,
1235.804,11293.67,
1232.893,11132.82,
1229.982,10809.223,
1227.072,10609.149,
1224.161,10384.874,
1221.251,10173.018,
1218.340,9957.2295,
1215.430,9765.1961,
1212.519,9610.9916,
1209.608,9485.3487,
1206.698,9395.0636,
1203.787,9368.5327,
1200.877,9373.9124,
1197.966,9501.593,
1195.055,9775.0668,
1192.145,10053.916,
1189.234,10344.453,
1186.324,10668.384,
1183.413,10885.279,
1180.503,10960.235,
1177.592,10930.302,
1174.681,10680.613,
1171.771,10541.931,
1168.860,10322.231,
1165.950,10159.899,
1163.039,10050.572,
1160.129,10022.129,
1157.218,10116.821,
1154.307,10296.141,
1151.397,10486.743,
1148.486,10665.527,
1145.576,10796.533,
1142.665,10739.707,
1139.754,10596.683,
1136.844,10406.031,
1133.933,10282.282,
1131.023,10236.863,
1128.112,10178.579,
1125.202,10084.792,
1122.291,10085.387,
1119.380,10116.26,
1116.470,10142.736,
1113.559,10167.651,
1110.649,10091.489,
1107.738,9907.6157,
1104.828,9702.364,
1101.917,9497.1265,
1099.006,9257.3307,
1096.096,9105.7433,
1093.185,8987.2129,
1090.275,8995.8039,
1087.364,9035.6784,
1084.453,9084.0605,
1081.543,9187.0033,
1078.632,9304.5501,
1075.722,9342.6239,
1072.811,9345.4057,
1069.901,9407.4072,
1066.990,9479.0915,
1064.079,9473.9041,
1061.169,9526.9623,
1058.258,9537.3454,
1055.348,9439.376,
1052.437,9318.3053,
1049.527,9219.7441,
1046.616,9135.4676,
1043.705,9124.4585,
1040.795,9121.446,
1037.884,9087.6328,
1034.974,9056.3724,
1032.063,9055.3308,
1029.153,9051.3502,
1026.242,9062.5946,
1023.331,9228.8227,
1020.421,9341.4696,
1017.510,9569.8554,
1014.600,9804.0484,
1011.689,9968.1679,
1008.778,10122.311,
1005.868,10259.954,
1002.957,10477.623,
1000.047,10662.424,
997.136,10764.224,
994.226,10779.046,
991.315,10664.532,
988.404,10406.901,
985.494,10176.564,
982.583,10067.781,
979.673,9966.3973,
976.762,9937.3484,
973.852,9923.9717,
970.941,9888.1063,
968.030,9855.8152,
965.120,9900.1432,
962.209,9934.2449,
959.299,9947.0825,
956.388,9994.2372,
953.477,10040.098,
950.567,10057.83,
947.656,10065.117,
944.746,10081.258,
941.835,10158.932,
938.925,10134.227,
936.014,10093.284,
933.103,10041.103,
930.193,9954.4299,
927.282,9855.2209,
924.372,9840.8456,
921.461,9682.8831,
918.551,9556.1261,
915.640,9415.3369,
912.729,9280.8505,
909.819,9227.652,
906.908,9096.2337,
903.998,9169.3318,
901.087,9232.6459,
898.176,9296.6072,
895.266,9370.7877,
892.355,9450.8213,
889.445,9524.6768,
886.534,9590.12,
883.624,9757.7514,
880.713,9880.9735,
877.802,9891.2187,
874.892,9837.237,
871.981,9895.3095,
869.071,9866.0701,
866.160,9930.6859,
863.250,9918.4912,
860.339,9902.9843,
857.428,9940.6434,
854.518,9917.0371,
851.607,9883.7544,
848.697,9946.7817,
845.786,10000.835,
842.875,10059.751,
839.965,10162.151,
837.054,10310.107,
834.144,10408.729,
831.233,10473.33,
828.323,10523.696,
825.412,10578.723,
822.501,10625.468,
819.591,10572.578,
816.680,10523.724,
813.770,10480.675,
810.859,10354.153,
807.949,10210.322,
805.038,10157.188,
802.127,9993.3856,
799.217,9908.6786,
796.306,9809.5129,
793.396,9734.87,
790.485,9670.7273,
787.574,9532.4323,
784.664,9570.1575,
781.753,9552.8446,
778.843,9576.2859,
775.932,9628.1232,
773.022,9681.7804,
770.111,9809.3226,
767.200,9876.6211,
764.290,9937.1851,
761.379,9957.7594,
758.469,9916.6787,
755.558,9817.7178,
752.648,9707.7463,
749.737,9659.8884,
746.826,9624.5538,
743.916,9495.0114,
741.005,9166.5927,
738.095,8658.3578,
735.184,8111.7594,
732.274,7954.8128,
729.363,8264.0452,
726.452,8891.5903,
723.542,9348.8976,
720.631,9434.3986,
717.721,9476.4867,
714.810,9486.7671,
711.899,9480.2673,
708.989,9502.8612,
706.078,9415.658,
703.168,9413.4311,
700.257,9366.5896,
697.347,9286.9995,
694.436,9304.5636,
691.525,9288.4875,
688.615,9274.3085,
685.704,9315.4863,
682.794,9378.9362,
679.883,9384.5591,
676.973,9441.4564,
674.062,9417.9055,
671.151,9461.9962,
668.241,9559.0096,
665.330,9608.437,
662.420,9638.7888,
659.509,9704.0486,
656.598,9744.924,
653.688,9755.3803,
650.777,9758.4339,
647.867,9712.2468,
644.956,9692.0936,
642.046,9719.997,
639.135,9783.3015,
636.224,9841.2944,
633.314,9900.0459,
630.403,9943.9693,
627.493,9937.1148,
624.582,9881.8166,
621.672,9827.169,
618.761,9829.5596,
615.850,9853.5905,
612.940,9928.3532,
610.029,10039.762,
607.119,10056.344,
604.208,10072.2,
601.297,10170.226,
598.387,10249.528,
595.476,10206.641,
592.566,10107.47,
589.655,10169.69,
586.745,10153.546,
583.834,10090.712,
580.923,10143.246,
578.013,10184.053,
575.102,10400.345,
572.192,10597.661,
569.281,10702.886,
566.371,10841.411,
563.460,10924.841,
560.549,10981.775,
557.639,11019.325,
554.728,11042.345,
551.818,11047.807,
548.907,11100.191,
545.996,11150.496,
543.086,11168.605,
540.175,11125.001,
537.265,11132.864,
534.354,11155.061,
531.444,11181.638,
528.533,11201.02,
525.622,11159.119,
522.712,11247.687,
519.801,11317.492,
516.891,11332.695,
513.980,11355.924,
511.070,11434.774,
508.159,11527.173,
505.248,11589.495,
502.338,11583.044,
499.427,11721.202,
496.517,11776.667,
493.606,11772.829,
490.695,11749.624,
487.785,11840.459,
484.874,11828.505,
481.964,11857.189,
479.053,11898.143,
476.143,11815.203,
473.232,11805.684,
470.321,11804.973,
467.411,11782.953,
464.500,11716.842,
461.590,11789.588,
458.679,11818.805,
455.769,11863.178,
452.858,11947.977,
449.947,11986.173,
447.037,12057.71,
444.126,12081.624,
441.216,12046.179,
438.305,12012.654,
435.395,12004.722,
432.484,12019.67,
429.573,12066.43,
426.663,12166.769,
423.752,12133.852,
420.842,12163.039,
417.931,12243.348,
415.020,12329.042,
412.110,12430.768,
409.199,12596.584,
406.289,12713.306,
403.378,12655.585,
400.468,12533.114,
397.557,12409.679,
394.646,12304.682,
391.736,12227.477,
388.825,11961.233,
385.915,11833.506,
383.004,11835.687,
380.094,11959.904,
377.183,12154.043,
374.272,12327.412,
371.362,12468.029,
368.451,12569.106,
365.541,12653.166,
362.630,12679.824,
359.719,12675.305,
356.809,12659.039,
353.898,12692.735,
350.988,12776.321,
348.077,12832.611,
345.167,12814.313,
342.256,12761.271,
339.345,12870.355,
336.435,12984.441,
333.524,13000.674,
330.614,13148.96,
327.703,13280.739,
324.793,13377.725,
321.882,13423.514,
318.971,13635.395,
316.061,13790.525,
313.150,13935.431,
310.240,14123.186,
307.329,14239.339,
304.418,14339.082,
301.508,14376.265,
298.597,14264.462,
295.687,14208.27,
292.776,14228.917,
289.866,14422.582,
286.955,15056.409,
284.044,15666.914,
281.134,16200.43,
278.223,16666.213,
275.313,17159.906,
272.402,17535.863,
269.492,17918.626,
266.581,18348.589,
263.670,18734.559,
260.760,19082.117,
257.849,19389.359,
254.939,19650.621,
252.028,19849.438,
249.117,19998.006,
246.207,20082.78,
243.296,20070.335,
240.386,20020.026,
237.475,20010.52,
234.565,20006.746,
231.654,19814.655,
228.743,19780.329,
225.833,19742.619,
222.922,19645.083,
220.012,19625.412,
217.101,19558.642,
214.191,19484.198,
211.280,19444.915,
208.369,19458.148,
205.459,19467.198,
202.548,19482.162,
199.638,19558.355,
196.727,19556.137,
193.816,19566.179,
190.906,19618.299,
187.995,19569.789,
185.085,19730.794,
182.174,19925.082,
179.264,19910.627,
176.353,19979.486,
173.442,20036.04,
170.532,20057.347,
167.621,19983.087,
164.711,19681.296,
161.800,19157.642,
158.890,18368.821,
155.979,17175.891,
153.068,15715.301,
150.158,13996.59,
147.247,11960.477,
144.337,9887.6155,
141.426,7845.7678,
138.516,5870.7325,
135.605,4191.4148,
132.694,2860.8342,
129.784,1858.7727,
126.873,1231.6039,
123.963,841.0896,
121.052,577.41006,
118.141,414.6404,
115.231,324.46814,
112.320,266.39457,
109.410,229.50046,
106.499,190.33192,
103.589,165.75262,
100.678,146.7527,
97.767,130.40114,
94.857,120.99114,
91.946,114.17822,
89.036,108.75812,
86.125,100.95687,
83.215,95.814478,
80.304,88.690212,
77.393,75.943153,
74.483,73.034595,
71.572,70.188239,
68.662,66.515128,
65.751,61.56997,
62.840,62.890212,
59.930,63.377993,
57.019,53.506845,
54.109,54.985804,
51.198,53.079079,
48.288,44.011325,
45.377,45.418081,
42.466,46.824439,
39.556,47.309289,
36.645,43.096147,
33.735,45.115491,
30.824,46.674678,
27.914,42.467627,
25.003,39.50945,
22.092,39.291618,
19.182,42.137297,
16.271,46.334238,
13.361,97.732041,
10.450,197.85029,
7.539,382.90386,
4.629,626.17084,
1.718,773.934,
-1.192,659.6023,
-4.103,414.69326,
-7.013,185.73809,
-9.924,2,
