,PL6DEB~1,
Raman shift [1/cm],Intensity,
3014.167,-1,
3011.256,2.7500537,
3008.346,29.668082,
3005.435,51.92226,
3002.525,51.170022,
2999.614,39.287009,
2996.704,57.443292,
2993.793,53.133064,
2990.882,50.954177,
2987.972,44.126124,
2985.061,56.142841,
2982.151,47.926057,
2979.240,55.633078,
2976.329,64.513651,
2973.419,62.845956,
2970.508,71.616663,
2967.598,59.334538,
2964.687,69.820652,
2961.777,58.598134,
2958.866,68.328384,
2955.955,81.070789,
2953.045,73.651015,
2950.134,82.819246,
2947.224,61.768658,
2944.313,91.146012,
2941.403,89.785585,
2938.492,91.276418,
2935.581,86.295707,
2932.671,90.682425,
2929.760,98.188454,
2926.850,79.783836,
2923.939,96.401883,
2921.028,103.10013,
2918.118,92.161211,
2915.207,110.82922,
2912.297,90.114245,
2909.386,108.39416,
2906.476,97.132034,
2903.565,95.838517,
2900.654,92.882719,
2897.744,113.81142,
2894.833,99.824727,
2891.923,84.781993,
2889.012,107.58381,
2886.102,109.62432,
2883.191,104.00755,
2880.280,85.014346,
2877.370,74.27905,
2874.459,102.65399,
2871.549,99.447522,
2868.638,99.453616,
2865.727,101,
2862.817,109.74331,
2859.906,89.709396,
2856.996,111.95924,
2854.085,89.310868,
2851.175,103.62046,
2848.264,110.35783,
2845.353,113.1941,
2842.443,111.6181,
2839.532,95.223885,
2836.622,90.39323,
2833.711,93.836744,
2830.801,92.80588,
2827.890,102.69059,
2824.979,114.79002,
2822.069,106,
2819.158,104.47978,
2816.248,107.22974,
2813.337,109.56707,
2810.427,110.17631,
2807.516,94.215939,
2804.605,103.59135,
2801.695,100.30263,
2798.784,103.63038,
2795.874,107.86016,
2792.963,106.92862,
2790.052,112.99893,
2787.142,101.39485,
2784.231,104.48448,
2781.321,109.06862,
2778.410,118.77539,
2775.500,106.93655,
2772.589,120.07646,
2769.678,112.53584,
2766.768,114.43495,
2763.857,115.63199,
2760.947,108.43381,
2758.036,109.85994,
2755.126,119.90812,
2752.215,117.3819,
2749.304,110.78778,
2746.394,110.51816,
2743.483,103.35001,
2740.573,106.43586,
2737.662,118.56361,
2734.751,118.9758,
2731.841,104.2967,
2728.930,116.73315,
2726.020,113.67882,
2723.109,120.34025,
2720.199,116.21562,
2717.288,116.4562,
2714.377,122.96656,
2711.467,126.59011,
2708.556,128.47874,
2705.646,115.32391,
2702.735,118.50258,
2699.825,115.61998,
2696.914,119.71456,
2694.003,131.91708,
2691.093,119.48254,
2688.182,121.59926,
2685.272,120.11522,
2682.361,127.48253,
2679.450,118.29218,
2676.540,128.77644,
2673.629,119.32735,
2670.719,124.56932,
2667.808,126,
2664.898,117.46791,
2661.987,122.63385,
2659.076,118.56036,
2656.166,122.70994,
2653.255,130.33163,
2650.345,139.70417,
2647.434,128.20034,
2644.524,141.77219,
2641.613,129.97109,
2638.702,124,
2635.792,126.53041,
2632.881,129.53577,
2629.971,127,
2627.060,139.50156,
2624.149,131.13437,
2621.239,134.49704,
2618.328,129.44897,
2615.418,121.97728,
2612.507,124.55339,
2609.597,132.71457,
2606.686,126.14258,
2603.775,133.55952,
2600.865,139.64508,
2597.954,127.6708,
2595.044,144.96457,
2592.133,148.10823,
2589.223,132.51788,
2586.312,137.48744,
2583.401,133.65328,
2580.491,126.91828,
2577.580,132.02145,
2574.670,145.83021,
2571.759,139.19179,
2568.848,143.52492,
2565.938,142.57139,
2563.027,141.04777,
2560.117,144.88788,
2557.206,145.86347,
2554.296,132.60412,
2551.385,145.61996,
2548.474,147.03718,
2545.564,149.03166,
2542.653,142.55704,
2539.743,157.54313,
2536.832,149.46916,
2533.922,142.23654,
2531.011,151.77544,
2528.100,140.13241,
2525.190,144.37172,
2522.279,153.53102,
2519.369,147.32055,
2516.458,140.54533,
2513.548,167.83582,
2510.637,147.87703,
2507.726,152.55764,
2504.816,161.93686,
2501.905,154.75366,
2498.995,159.11944,
2496.084,155.4808,
2493.173,147.42119,
2490.263,154.19097,
2487.352,162.04013,
2484.442,147.11989,
2481.531,150.25547,
2478.621,156.96216,
2475.710,149.27604,
2472.799,176.61444,
2469.889,149.5457,
2466.978,160.26793,
2464.068,163.08465,
2461.157,161.61501,
2458.247,164.26476,
2455.336,162.74559,
2452.425,171.48115,
2449.515,174.16007,
2446.604,160.64747,
2443.694,172.79115,
2440.783,161.75788,
2437.872,173.14586,
2434.962,172.2719,
2432.051,159.48766,
2429.141,160,
2426.230,174.02213,
2423.320,177.42877,
2420.409,171.64739,
2417.498,183.7781,
2414.588,181.64262,
2411.677,175.92828,
2408.767,176.27657,
2405.856,177.8405,
2402.946,177.47632,
2400.035,163.81689,
2397.124,179.78609,
2394.214,187.2976,
2391.303,171.24323,
2388.393,174.40935,
2385.482,163.79311,
2382.571,196.3803,
2379.661,178,
2376.750,186.1034,
2373.840,178.66569,
2370.929,183.90253,
2368.019,181.77093,
2365.108,184.20942,
2362.197,187.7781,
2359.287,182.21838,
2356.376,182.99472,
2353.466,171.74138,
2350.555,186.20997,
2347.645,192.69668,
2344.734,189.33178,
2341.823,193.88392,
2338.913,176.44033,
2336.002,192.92109,
2333.092,198.39059,
2330.181,204.98211,
2327.270,189.82508,
2324.360,195.94103,
2321.449,202.96939,
2318.539,200.91436,
2315.628,192.81535,
2312.718,199.8326,
2309.807,178.32266,
2306.896,209.49609,
2303.986,205.82466,
2301.075,195.59577,
2298.165,210.1542,
2295.254,198.36623,
2292.344,183.89208,
2289.433,195.34364,
2286.522,215.45522,
2283.612,201.63771,
2280.701,184.53812,
2277.791,212.12022,
2274.880,212.64604,
2271.969,207.48148,
2269.059,214.67575,
2266.148,216.72955,
2263.238,197.20851,
2260.327,210,
2257.417,208.81389,
2254.506,208.23648,
2251.595,211.85819,
2248.685,219.10189,
2245.774,207.58267,
2242.864,214.64837,
2239.953,221.26902,
2237.043,214.7275,
2234.132,217.89871,
2231.221,215.5788,
2228.311,215.86984,
2225.400,223.33774,
2222.490,235,
2219.579,232.26477,
2216.669,225.50715,
2213.758,238.35034,
2210.847,241.16373,
2207.937,238.08144,
2205.026,253.00117,
2202.116,225.71974,
2199.205,237.76259,
2196.294,241.05799,
2193.384,233.63198,
2190.473,261.60329,
2187.563,236.11117,
2184.652,259.30122,
2181.742,259.81804,
2178.831,274.58762,
2175.920,290.00546,
2173.010,290.0754,
2170.099,295.46627,
2167.189,318.39465,
2164.278,367.57085,
2161.368,345.42743,
2158.457,382.97969,
2155.546,391.34902,
2152.636,410.87226,
2149.725,442.14092,
2146.815,439.23358,
2143.904,448.90334,
2140.993,466.31205,
2138.083,487.51677,
2135.172,470.5042,
2132.262,477.51056,
2129.351,487.28624,
2126.441,463.37856,
2123.530,445.53981,
2120.619,403.4863,
2117.709,387.6715,
2114.798,368.44614,
2111.888,357.28788,
2108.977,318.48342,
2106.067,300.24162,
2103.156,300,
2100.245,284.99561,
2097.335,276.79581,
2094.424,271.35089,
2091.514,276.27952,
2088.603,266,
2085.692,245.90346,
2082.782,236.24094,
2079.871,230.60677,
2076.961,245.8376,
2074.050,235.06667,
2071.140,256.32181,
2068.229,251.46876,
2065.318,234.7655,
2062.408,249.78819,
2059.497,246.56545,
2056.587,249.89511,
2053.676,241.3009,
2050.766,238,
2047.855,193.91133,
2044.944,226.99519,
2042.034,236.68204,
2039.123,221.91919,
2036.213,214,
2033.302,215.08694,
2030.391,235.32151,
2027.481,216.98807,
2024.570,215.42835,
2021.660,237.69916,
2018.749,216.46813,
2015.839,206.09383,
2012.928,223.01174,
2010.017,214.94788,
2007.107,224.86169,
2004.196,233.51191,
2001.286,216.47706,
1998.375,206.39173,
1995.465,213.29286,
1992.554,201.85305,
1989.643,189.3802,
1986.733,193.37456,
1983.822,199.85894,
1980.912,193.76195,
1978.001,183.21151,
1975.090,206.96947,
1972.180,207.41491,
1969.269,184.24422,
1966.359,179.89194,
1963.448,172.5033,
1960.538,166.56547,
1957.627,164.21672,
1954.716,174.684,
1951.806,174.20515,
1948.895,159.51011,
1945.985,162.5915,
1943.074,166.04789,
1940.164,175.08645,
1937.253,151.2134,
1934.342,154.21389,
1931.432,160.52681,
1928.521,152.19516,
1925.611,139.86379,
1922.700,139.54005,
1919.790,149.61262,
1916.879,138.90674,
1913.968,138.99877,
1911.058,102.30332,
1908.147,145.01456,
1905.237,126.34564,
1902.326,162.06517,
1899.415,158.00485,
1896.505,114.21686,
1893.594,122.0854,
1890.684,125.25495,
1887.773,110.49157,
1884.863,104.36219,
1881.952,125.62229,
1879.041,130.46106,
1876.131,130.62876,
1873.220,118.79641,
1870.310,141.13449,
1867.399,102.65574,
1864.489,117.77887,
1861.578,138.86799,
1858.667,150.39825,
1855.757,113.99284,
1852.846,119.48719,
1849.936,111.3954,
1847.025,122.34791,
1844.114,143.79294,
1841.204,132.07692,
1838.293,119.00166,
1835.383,137.12748,
1832.472,134.02261,
1829.562,131.22084,
1826.651,161.61599,
1823.740,136.60147,
1820.830,146.14981,
1817.919,139.96998,
1815.009,121.58779,
1812.098,154.00785,
1809.188,159.87596,
1806.277,157.0664,
1803.366,145.11645,
1800.456,152.10991,
1797.545,153.35464,
1794.635,152.41809,
1791.724,181.40787,
1788.813,144.4018,
1785.903,153.98641,
1782.992,161.09834,
1780.082,147.71136,
1777.171,143.32762,
1774.261,138.06032,
1771.350,158.48075,
1768.439,147.85118,
1765.529,149.45463,
1762.618,151.44938,
1759.708,162.70662,
1756.797,162.31818,
1753.887,146.10204,
1750.976,144.12762,
1748.065,149.45776,
1745.155,140.78072,
1742.244,152.87769,
1739.334,144.19765,
1736.423,132.46729,
1733.512,129.54471,
1730.602,140.96827,
1727.691,155.74725,
1724.781,163.71946,
1721.870,182.70487,
1718.960,185.35554,
1716.049,170.73743,
1713.138,157.74005,
1710.228,152.51881,
1707.317,125.46286,
1704.407,183.98941,
1701.496,129.01475,
1698.586,203.38665,
1695.675,155.7289,
1692.764,194.60248,
1689.854,169.25589,
1686.943,162.20235,
1684.033,125.91894,
1681.122,163.3373,
1678.211,156.07614,
1675.301,175.93833,
1672.390,211.12262,
1669.480,251.47055,
1666.569,186.63479,
1663.659,236.26132,
1660.748,251.03591,
1657.837,202.26244,
1654.927,214.77316,
1652.016,246.9757,
1649.106,245.85311,
1646.195,240.35965,
1643.285,255.5013,
1640.374,276.74913,
1637.463,265.46838,
1634.553,291,
1631.642,291.19544,
1628.732,309.31997,
1625.821,363.01963,
1622.911,392.83095,
1620.000,448.29447,
1617.089,427.43781,
1614.179,521.2645,
1611.268,487.41276,
1608.358,557.48827,
1605.447,604.37178,
1602.536,611.65944,
1599.626,632.23852,
1596.715,620.38598,
1593.805,587.69838,
1590.894,613.06211,
1587.984,623.92874,
1585.073,577.35426,
1582.162,553.13717,
1579.252,562.27452,
1576.341,554.58618,
1573.431,574.71205,
1570.520,529.02236,
1567.610,558.45168,
1564.699,523.97294,
1561.788,462.74688,
1558.878,475.04158,
1555.967,476.44737,
1553.057,458.51736,
1550.146,455.68726,
1547.235,416.67715,
1544.325,410.62127,
1541.414,417.73891,
1538.504,387.42029,
1535.593,373.8168,
1532.683,358.03029,
1529.772,331.43124,
1526.861,322.74644,
1523.951,328.38147,
1521.040,337.70519,
1518.130,289.26096,
1515.219,294.15902,
1512.309,311.89634,
1509.398,270.94854,
1506.487,297.4647,
1503.577,282.17922,
1500.666,260.78347,
1497.756,260.89755,
1494.845,187.96052,
1491.934,210.95276,
1489.024,196.51536,
1486.113,274.81332,
1483.203,225.9336,
1480.292,227.48511,
1477.382,218.49277,
1474.471,219.06952,
1471.560,201.85835,
1468.650,156.0534,
1465.739,153.37176,
1462.829,168.56499,
1459.918,180.73487,
1457.008,195.63088,
1454.097,182.74073,
1451.186,169.6441,
1448.276,181.57237,
1445.365,159.53318,
1442.455,133.91975,
1439.544,144.30789,
1436.633,139.89374,
1433.723,159.88443,
1430.812,135.70964,
1427.902,107.3157,
1424.991,120.58437,
1422.081,96.228118,
1419.170,35.243896,
1416.259,80.274224,
1413.349,65.056081,
1410.438,37.805729,
1407.528,64.76205,
1404.617,74.01882,
1401.707,64.350298,
1398.796,65.304187,
1395.885,60.732214,
1392.975,45.104004,
1390.064,46.829277,
1387.154,71.03759,
1384.243,70.998144,
1381.332,23.995988,
1378.422,32.241525,
1375.511,36.92543,
1372.601,123.62761,
1369.690,53.849979,
1366.780,101.98671,
1363.869,125.26477,
1360.958,164.97211,
1358.048,204.76591,
1355.137,215.8459,
1352.227,233.13084,
1349.316,253.50054,
1346.406,251.19312,
1343.495,272.94778,
1340.584,316.39297,
1337.674,312.53763,
1334.763,342.81156,
1331.853,364.13788,
1328.942,344.54233,
1326.032,355.86555,
1323.121,401.97594,
1320.210,416.33408,
1317.300,447.87253,
1314.389,474.62509,
1311.479,502.59206,
1308.568,530.84485,
1305.657,531.21436,
1302.747,557.56864,
1299.836,619.49141,
1296.926,625.3501,
1294.015,675.91289,
1291.105,698.25246,
1288.194,712.98115,
1285.283,731.75207,
1282.373,768.37489,
1279.462,810.70541,
1276.552,838.89767,
1273.641,868.49875,
1270.731,895.23731,
1267.820,872.56009,
1264.909,847.51644,
1261.999,844.76562,
1259.088,865.7444,
1256.178,886.6985,
1253.267,843.96827,
1250.356,827.96824,
1247.446,800.59728,
1244.535,772.58485,
1241.625,741.60376,
1238.714,707.50911,
1235.804,686.92729,
1232.893,631.00308,
1229.982,616.54004,
1227.072,602.96036,
1224.161,612.08605,
1221.251,609.53294,
1218.340,584.03096,
1215.430,535.76574,
1212.519,507,
1209.608,526.13628,
1206.698,564.31923,
1203.787,577.58292,
1200.877,597.05572,
1197.966,597.95488,
1195.055,617.62472,
1192.145,646.54568,
1189.234,656.29758,
1186.324,676.09274,
1183.413,704.80712,
1180.503,706.83527,
1177.592,675.97973,
1174.681,662.19864,
1171.771,636.82422,
1168.860,672.54779,
1165.950,671.16226,
1163.039,663.71437,
1160.129,661,
1157.218,663.40368,
1154.307,654.49822,
1151.397,623.79081,
1148.486,588.40344,
1145.576,570.08157,
1142.665,618.02887,
1139.754,605.72743,
1136.844,609.70333,
1133.933,612.41349,
1131.023,610.11162,
1128.112,609.07127,
1125.202,612.69082,
1122.291,616.9973,
1119.380,609.98268,
1116.470,608.21762,
1113.559,621.91848,
1110.649,635.16784,
1107.738,630.89109,
1104.828,626.7449,
1101.917,631.11239,
1099.006,629,
1096.096,628.67748,
1093.185,623.40946,
1090.275,640.80395,
1087.364,626.47468,
1084.453,633.749,
1081.543,643.37067,
1078.632,641.56697,
1075.722,650.45376,
1072.811,672.01433,
1069.901,644.06998,
1066.990,650.08331,
1064.079,675.81799,
1061.169,685.3431,
1058.258,678.91817,
1055.348,675.23354,
1052.437,680.37619,
1049.527,667.5035,
1046.616,680.53594,
1043.705,713.60137,
1040.795,710.86841,
1037.884,713.10328,
1034.974,732.42783,
1032.063,741.17723,
1029.153,715.38883,
1026.242,735.28283,
1023.331,738.49984,
1020.421,747.36522,
1017.510,749.31917,
1014.600,746.73121,
1011.689,749.56112,
1008.778,766.57122,
1005.868,799.16217,
1002.957,817.22961,
1000.047,841.84001,
997.136,877.60431,
994.226,899.23073,
991.315,898.95545,
988.404,883.56922,
985.494,839.82738,
982.583,832.11837,
979.673,855.14434,
976.762,861.06449,
973.852,871.37629,
970.941,883.44343,
968.030,872.29476,
965.120,857.08234,
962.209,876.69081,
959.299,886.37424,
956.388,899.63932,
953.477,896.90226,
950.567,874.98726,
947.656,861.00809,
944.746,883.9461,
941.835,889.85888,
938.925,878.49705,
936.014,880.09322,
933.103,875.6417,
930.193,852.80024,
927.282,850.53348,
924.372,823.47407,
921.461,826.6276,
918.551,813.89573,
915.640,794.92607,
912.729,789.36713,
909.819,802.10952,
906.908,787.78829,
903.998,782.22781,
901.087,797.54916,
898.176,815.11232,
895.266,816.06503,
892.355,809.20889,
889.445,863.76125,
886.534,846.46769,
883.624,855.78381,
880.713,865.57249,
877.802,871.08435,
874.892,878.30924,
871.981,892.30952,
869.071,863.07007,
866.160,890.4281,
863.250,881.41087,
860.339,868.94936,
857.428,879.64335,
854.518,856.25377,
851.607,830.45963,
848.697,839.06853,
845.786,832.54481,
842.875,838.82697,
839.965,864.4561,
837.054,829.85114,
834.144,816.59111,
831.233,827.99899,
828.323,821.64656,
825.412,806.39019,
822.501,805.08516,
819.591,816.65475,
816.680,783.3461,
813.770,790.66257,
810.859,789.62146,
807.949,771.76339,
805.038,761.28541,
802.127,788.44861,
799.217,776.83757,
796.306,761.78371,
793.396,764.12224,
790.485,774.52491,
787.574,754.15569,
784.664,758.25625,
781.753,749.60622,
778.843,757.25206,
775.932,770.30864,
773.022,774.55033,
770.111,797.44252,
767.200,777.68325,
764.290,773.88939,
761.379,755.12502,
758.469,730.74287,
755.558,760.26744,
752.648,769.22808,
749.737,761.86095,
746.826,735.08761,
743.916,708.32465,
741.005,699.13964,
738.095,656.11017,
735.184,559.47236,
732.274,482.5059,
729.363,503.83164,
726.452,630.71745,
723.542,701.13467,
720.631,724.87801,
717.721,725.27154,
714.810,725.94883,
711.899,746.79212,
708.989,801.66302,
706.078,764.33876,
703.168,742.24836,
700.257,733.17486,
697.347,736.34737,
694.436,751.41081,
691.525,729.70807,
688.615,748.26971,
685.704,740.84701,
682.794,721.1914,
679.883,746.342,
676.973,709.47895,
674.062,698.80959,
671.151,694.80835,
668.241,703.19766,
665.330,738.50839,
662.420,728.12488,
659.509,729.17466,
656.598,724.076,
653.688,717.07038,
650.777,724.54005,
647.867,740.46661,
644.956,744,
642.046,729.90366,
639.135,715.24023,
636.224,735.00796,
633.314,736.59583,
630.403,751.78027,
627.493,753.55036,
624.582,737.17486,
621.672,724.50295,
618.761,747.55812,
615.850,757.20395,
612.940,759.68307,
610.029,760.60543,
607.119,758.23654,
604.208,792.08064,
601.297,783.06818,
598.387,754.26736,
595.476,742.37693,
592.566,767.56312,
589.655,757.09853,
586.745,754.20762,
583.834,758.36499,
580.923,749.09952,
578.013,765.57893,
575.102,739.02623,
572.192,728.14767,
569.281,747.7504,
566.371,735.22842,
563.460,713.54142,
560.549,721.56747,
557.639,749.74253,
554.728,780.18251,
551.818,798.9101,
548.907,783.49878,
545.996,768.66726,
543.086,774.22694,
540.175,817.05246,
537.265,775.09468,
534.354,788.60313,
531.444,806.46039,
528.533,776.09692,
525.622,805.58292,
522.712,817.46078,
519.801,841.62153,
516.891,868.42679,
513.980,835.90636,
511.070,862.58259,
508.159,881.68593,
505.248,892.00435,
502.338,900.66112,
499.427,889.08364,
496.517,934.64641,
493.606,965.27016,
490.695,951.78603,
487.785,950.24645,
484.874,951.29245,
481.964,945.77083,
479.053,941.96417,
476.143,962.69916,
473.232,960.40298,
470.321,941.96983,
467.411,917.92175,
464.500,900.65937,
461.590,926.69454,
458.679,912.53851,
455.769,906.97244,
452.858,936.6586,
449.947,971.79945,
447.037,957.76338,
444.126,955.4606,
441.216,975.52915,
438.305,978.57688,
435.395,992.11273,
432.484,981.49641,
429.573,958.59752,
426.663,965.43878,
423.752,968.09226,
420.842,970.82674,
417.931,975.58563,
415.020,984.68592,
412.110,999.63226,
409.199,994.73106,
406.289,999.49671,
403.378,1046.9539,
400.468,1033.346,
397.557,1035.6839,
394.646,1032.0342,
391.736,1005.8692,
388.825,1033.0215,
385.915,1011.7293,
383.004,978.86142,
380.094,963.4569,
377.183,1011.6154,
374.272,1052.139,
371.362,1064.1099,
368.451,1042.012,
365.541,1108.0592,
362.630,1095.4105,
359.719,1064.6726,
356.809,1054.2655,
353.898,1091.7054,
350.988,1102,
348.077,1096.1918,
345.167,1083.5137,
342.256,1113.3964,
339.345,1101.8056,
336.435,1079.2809,
333.524,1067.2349,
330.614,1074.6864,
327.703,1099.5898,
324.793,1113.7818,
321.882,1093.0054,
318.971,1095.2357,
316.061,1147.7613,
313.150,1185.6024,
310.240,1132.9122,
307.329,1152.4391,
304.418,1128.1714,
301.508,1094.3169,
298.597,1114.3082,
295.687,1147.1531,
292.776,1123.2498,
289.866,1080.6768,
286.955,1136.0812,
284.044,1189.54,
281.134,1241.5499,
278.223,1291.2513,
275.313,1333.9889,
272.402,1331.9628,
269.492,1341.4269,
266.581,1379.9459,
263.670,1393.1792,
260.760,1401.7014,
257.849,1404.2036,
254.939,1399.0664,
252.028,1425.7823,
249.117,1436,
246.207,1440.7353,
243.296,1459.0362,
240.386,1435.5333,
237.475,1421.6158,
234.565,1421.6902,
231.654,1426.0725,
228.743,1406.8621,
225.833,1380.7188,
222.922,1355.5096,
220.012,1366.4379,
217.101,1350.8621,
214.191,1330.1258,
211.280,1327.2159,
208.369,1282.5943,
205.459,1306.5145,
202.548,1369.4847,
199.638,1337.5561,
196.727,1338.4908,
193.816,1341.5918,
190.906,1336.9142,
187.995,1362.9791,
185.085,1398.9528,
182.174,1418.8141,
179.264,1381.2302,
176.353,1384.6893,
173.442,1406.7653,
170.532,1431.0274,
167.621,1371.1864,
164.711,1368.6648,
161.800,1348.0675,
158.890,1251.624,
155.979,1202.4937,
153.068,1125.8987,
150.158,1016.494,
147.247,860.69836,
144.337,731.75896,
141.426,594.33251,
138.516,430.88131,
135.605,286.70358,
132.694,189.009,
129.784,126.24412,
126.873,76.18503,
123.963,46.651615,
121.052,26.617505,
118.141,13.053367,
115.231,15.842281,
112.320,12.340005,
109.410,6.4090658,
106.499,8.5455315,
103.589,9.5602545,
100.678,9.4567566,
97.767,8.0348814,
94.857,3.1490767,
91.946,5.0311087,
89.036,10.774204,
86.125,9.3557936,
83.215,10.061841,
80.304,9.5634039,
77.393,5.3143843,
74.483,9.5859447,
71.572,9.8258873,
68.662,5.584395,
65.751,1.3456885,
62.840,1.9268079,
59.930,5.6855758,
57.019,12.031314,
54.109,4.0425873,
51.198,-0.7935629,
48.288,2.0113249,
45.377,3.418081,
42.466,8.1221934,
39.556,14.460474,
36.645,17.269235,
33.735,10.211273,
30.824,3,
27.914,3,
25.003,4.8679124,
22.092,4.0625727,
19.182,0.66360302,
16.271,20.948817,
13.361,106.54827,
10.450,244.36953,
7.539,426.62984,
4.629,477.61427,
1.718,362.33153,
-1.192,-24.583688,
-4.103,-164.54275,
-7.013,-155.81106,
-9.924,-2,
