,PL7B17~1,
Raman shift [1/cm],Intensity,
3014.167,1.25,
3011.256,1.4500429,
3008.346,168.26817,
3005.435,186.90371,
3002.525,184.66499,
2999.614,208.58635,
2996.704,214.83453,
2993.793,218.23157,
2990.882,220.95235,
2987.972,241.21973,
2985.061,238.7968,
2982.151,233.5626,
2979.240,253.03423,
2976.329,248.25,
2973.419,245.4346,
2970.508,263.51657,
2967.598,299.91185,
2964.687,282.32405,
2961.777,297.68595,
2958.866,296.91865,
2955.955,301.07964,
2953.045,306.53412,
2950.134,323.16548,
2947.224,324.64856,
2944.313,333.30627,
2941.403,345.50045,
2938.492,357.28254,
2935.581,369.43283,
2932.671,351.41312,
2929.760,359.23076,
2926.850,360.7797,
2923.939,382.76868,
2921.028,386.4794,
2918.118,395.4301,
2915.207,397.42723,
2912.297,402.23307,
2909.386,409.03103,
2906.476,388.35114,
2903.565,406.7174,
2900.654,400.62717,
2897.744,420.98598,
2894.833,406.02309,
2891.923,407.7628,
2889.012,392.04191,
2886.102,385.20947,
2883.191,387.24434,
2880.280,370.872,
2877.370,361.88369,
2874.459,367.53937,
2871.549,394.0923,
2868.638,413.88711,
2865.727,419.80002,
2862.817,411.97861,
2859.906,437.42664,
2856.996,420.76132,
2854.085,419.13025,
2851.175,419.39455,
2848.264,423.75484,
2845.353,416.35784,
2842.443,420.05209,
2839.532,407.38439,
2836.622,406.58138,
2833.711,398.30181,
2830.801,380.36544,
2827.890,398.66961,
2824.979,395.27412,
2822.069,406.22726,
2819.158,409.95081,
2816.248,406.54921,
2813.337,417.13659,
2810.427,416.72796,
2807.516,410.51625,
2804.605,413.45433,
2801.695,413.11842,
2798.784,418.73254,
2795.874,406.26057,
2792.963,409.75032,
2790.052,391.25558,
2787.142,400.53946,
2784.231,399.95963,
2781.321,418.55854,
2778.410,419.03932,
2775.500,418.93276,
2772.589,406.74924,
2769.678,400.35578,
2766.768,420.85973,
2763.857,421.8261,
2760.947,404.79098,
2758.036,420.56853,
2755.126,440.10257,
2752.215,443.7408,
2749.304,435.3777,
2746.394,429.61493,
2743.483,430.54999,
2740.573,426.15262,
2737.662,430.61094,
2734.751,434.73565,
2731.841,406.30311,
2728.930,436.69914,
2726.020,444.92361,
2723.109,429.85859,
2720.199,450.74066,
2717.288,449.60037,
2714.377,451.50836,
2711.467,466.23352,
2708.556,458.26095,
2705.646,456.5458,
2702.735,456.7629,
2699.825,465.82635,
2696.914,454.96408,
2694.003,476.88253,
2691.093,455.73254,
2688.182,466.25,
2685.272,474.89581,
2682.361,467.5262,
2679.450,482.37345,
2676.540,473.98579,
2673.629,468.21857,
2670.719,471.97273,
2667.808,472.90955,
2664.898,470.14591,
2661.987,476.71658,
2659.076,485.46982,
2656.166,466.68714,
2653.255,487.73129,
2650.345,480.40971,
2647.434,494.16426,
2644.524,490.16126,
2641.613,496.90745,
2638.702,491.42359,
2635.792,477.1543,
2632.881,496.86897,
2629.971,505.48493,
2627.060,512.91812,
2624.149,499.87188,
2621.239,506.5163,
2618.328,496.63148,
2615.418,501.93181,
2612.507,513.86653,
2609.597,488.92265,
2606.686,521.77006,
2603.775,510.93254,
2600.865,531.48212,
2597.954,520.39374,
2595.044,519.94619,
2592.133,528.53678,
2589.223,562.32265,
2586.312,536.76256,
2583.401,532.06749,
2580.491,542.12495,
2577.580,541.29951,
2574.670,564.05483,
2571.759,544.69949,
2568.848,536.84112,
2565.938,535.34509,
2563.027,563.29995,
2560.117,570.89485,
2557.206,563.63376,
2554.296,569.07838,
2551.385,559.05191,
2548.474,550.06487,
2545.564,552.21834,
2542.653,547.18624,
2539.743,565.18839,
2536.832,546.84064,
2533.922,575.12385,
2531.011,568.07493,
2528.100,581.97826,
2525.190,600.15574,
2522.279,581.92171,
2519.369,574.34439,
2516.458,574.4738,
2513.548,592.43159,
2510.637,565.6641,
2507.726,575.07153,
2504.816,561.18913,
2501.905,572.87317,
2498.995,593.77225,
2496.084,589.31622,
2493.173,591.82881,
2490.263,595.42967,
2487.352,602.876,
2484.442,614.68684,
2481.531,615.62227,
2478.621,620.71445,
2475.710,616.21933,
2472.799,611.26346,
2469.889,617.46054,
2466.978,622.1985,
2464.068,617.37697,
2461.157,600.86501,
2458.247,610.33836,
2455.336,627.22848,
2452.425,623.79245,
2449.515,641.8446,
2446.604,651.13481,
2443.694,633.29602,
2440.783,641.87275,
2437.872,645.76051,
2434.962,654.5219,
2432.051,648.56495,
2429.141,662.6558,
2426.230,671.79366,
2423.320,664.03561,
2420.409,666.35901,
2417.498,654.27527,
2414.588,674.40958,
2411.677,662.93131,
2408.767,675.93799,
2405.856,668.69281,
2402.946,671.4046,
2400.035,677.24062,
2397.124,688.9131,
2394.214,683.3304,
2391.303,691.1836,
2388.393,689.06625,
2385.482,688.07375,
2382.571,707.57906,
2379.661,712.97086,
2376.750,714.04067,
2373.840,707.11251,
2370.929,722.07672,
2368.019,729.88981,
2365.108,705.22644,
2362.197,723.18157,
2359.287,726.86337,
2356.376,716.26585,
2353.466,712.05309,
2350.555,716.38518,
2347.645,731.94668,
2344.734,735.67396,
2341.823,743.11733,
2338.913,716.64407,
2336.002,748.47486,
2333.092,758.44529,
2330.181,770.79474,
2327.270,742.06518,
2324.360,736.49286,
2321.449,771.21939,
2318.539,772.22859,
2315.628,772.64488,
2312.718,761.76762,
2309.807,781.86482,
2306.896,781.43152,
2303.986,759.16562,
2301.075,785.22865,
2298.165,779.89389,
2295.254,786.01303,
2292.344,803.14629,
2289.433,790.19591,
2286.522,781.38389,
2283.612,814.54213,
2280.701,808.20968,
2277.791,819.4485,
2274.880,804.31592,
2271.969,821.95782,
2269.059,825.69142,
2266.148,820.8727,
2263.238,815.65155,
2260.327,842.90513,
2257.417,841.09666,
2254.506,856.72296,
2251.595,847.98102,
2248.685,831.30386,
2245.774,835.6565,
2242.864,871.22255,
2239.953,877.96738,
2237.043,856.75678,
2234.132,856.74353,
2231.221,859.35598,
2228.311,866.59922,
2225.400,893.89734,
2222.490,909.56582,
2219.579,884.35285,
2216.669,895.23569,
2213.758,919.77552,
2210.847,949.78902,
2207.937,957.12785,
2205.026,988.47216,
2202.116,996.80519,
2199.205,1024.3244,
2196.294,1046.804,
2193.384,1061.355,
2190.473,1062.534,
2187.563,1089.4627,
2184.652,1130.539,
2181.742,1122.6373,
2178.831,1162.6742,
2175.920,1206.9877,
2173.010,1225.5006,
2170.099,1249.9142,
2167.189,1288.3433,
2164.278,1307.4128,
2161.368,1357.534,
2158.457,1408.5006,
2155.546,1453.9154,
2152.636,1503.9095,
2149.725,1548.8741,
2146.815,1573.616,
2143.904,1571.2648,
2140.993,1611.906,
2138.083,1635.639,
2135.172,1643.3088,
2132.262,1650.0194,
2129.351,1631.8188,
2126.441,1591.4441,
2123.530,1570.0715,
2120.619,1456.0669,
2117.709,1379.593,
2114.798,1325.6036,
2111.888,1278.8258,
2108.977,1236.8195,
2106.067,1177.5057,
2103.156,1167.6492,
2100.245,1111.2462,
2097.335,1102.7212,
2094.424,1070.8464,
2091.514,1020.7419,
2088.603,1003.9274,
2085.692,1020.9376,
2082.782,1021.1135,
2079.871,1022.6432,
2076.961,1008.3478,
2074.050,1047.6318,
2071.140,1001.5599,
2068.229,1022.9909,
2065.318,1011.9913,
2062.408,1008.4467,
2059.497,994.04762,
2056.587,1010.273,
2053.676,970.70284,
2050.766,970.40321,
2047.855,998.13608,
2044.944,997.17627,
2042.034,1005.5851,
2039.123,980.77188,
2036.213,992.17441,
2033.302,988.6847,
2030.391,999.6905,
2027.481,1006.2256,
2024.570,1003.0358,
2021.660,1021.0674,
2018.749,1005.25,
2015.839,1003.7703,
2012.928,999.99665,
2010.017,1029.9634,
2007.107,1042.2014,
2004.196,1014.9404,
2001.286,1013.7305,
1998.375,988.54428,
1995.465,1002.5679,
1992.554,997.10305,
1989.643,1000.0772,
1986.733,1028.9325,
1983.822,968.41617,
1980.912,967.04287,
1978.001,987.08115,
1975.090,955.85916,
1972.180,965.28322,
1969.269,992.83625,
1966.359,1014.2772,
1963.448,1004.9092,
1960.538,1000.0615,
1957.627,991.33358,
1954.716,1019.3882,
1951.806,984.54807,
1948.895,991.39776,
1945.985,991.89706,
1943.074,967.17614,
1940.164,984.00977,
1937.253,1004.8585,
1934.342,997.08744,
1931.432,951.69479,
1928.521,953.03066,
1925.611,984.43161,
1922.700,955.05249,
1919.790,961.61398,
1916.879,950.29624,
1913.968,963.23279,
1911.058,963.61939,
1908.147,1006.866,
1905.237,977.05882,
1902.326,986.75367,
1899.415,1011.5036,
1896.505,979.25,
1893.594,982.88416,
1890.684,961.43318,
1887.773,968.43887,
1884.863,998.90376,
1881.952,967.67785,
1879.041,975.7012,
1876.131,977.54935,
1873.220,964.9181,
1870.310,958.60875,
1867.399,975.96212,
1864.489,981.05528,
1861.578,973.07442,
1858.667,949.58528,
1855.757,995.63783,
1852.846,1001.209,
1849.936,988.13287,
1847.025,1010.0748,
1844.114,1011.09,
1841.204,1023.9563,
1838.293,1021.26,
1835.383,1030.552,
1832.472,1032.5752,
1829.562,1027.8052,
1826.651,1012.8393,
1823.740,1025.6332,
1820.830,1049.4549,
1817.919,1013.5312,
1815.009,1053.0553,
1812.098,1035.2185,
1809.188,1064.1414,
1806.277,1033.0025,
1803.366,1030.3332,
1800.456,1037.4483,
1797.545,1076.6329,
1794.635,1089.347,
1791.724,1084.5704,
1788.813,1083.6402,
1785.903,1066.1472,
1782.992,1084.6434,
1780.082,1033.8068,
1777.171,1070.5862,
1774.261,1089.6452,
1771.350,1093.5647,
1768.439,1077.6756,
1765.529,1088.7065,
1762.618,1114.2944,
1759.708,1104.2389,
1756.797,1094.1591,
1753.887,1117.6611,
1750.976,1121.9431,
1748.065,1129.9243,
1745.155,1116.1727,
1742.244,1097.6286,
1739.334,1126.4312,
1736.423,1148.3154,
1733.512,1184.7216,
1730.602,1173.3135,
1727.691,1166.7853,
1724.781,1171.1829,
1721.870,1147.3022,
1718.960,1179.0727,
1716.049,1198.9956,
1713.138,1228.6099,
1710.228,1211.4926,
1707.317,1220.634,
1704.407,1211.4692,
1701.496,1219.3655,
1698.586,1235.0338,
1695.675,1258.707,
1692.764,1264.0369,
1689.854,1328.3485,
1686.943,1284.8688,
1684.033,1329.0827,
1681.122,1274.2186,
1678.211,1355.4601,
1675.301,1419.0557,
1672.390,1363.4534,
1669.480,1431.1858,
1666.569,1424.2149,
1663.659,1499.6746,
1660.748,1525.6549,
1657.837,1547.3872,
1654.927,1598.3203,
1652.016,1601.6631,
1649.106,1621.1143,
1646.195,1734.6026,
1643.285,1708.5918,
1640.374,1724.3789,
1637.463,1778.0246,
1634.553,1821.6096,
1631.642,1912.7277,
1628.732,1956.7596,
1625.821,2042.3122,
1622.911,2136.7147,
1620.000,2278.4484,
1617.089,2409.6231,
1614.179,2551.2173,
1611.268,2676.5656,
1608.358,2776.5677,
1605.447,2843.4791,
1602.536,2909.6864,
1599.626,2990.6044,
1596.715,2944.6091,
1593.805,2939.25,
1590.894,2830.0469,
1587.984,2838.6345,
1585.073,2870.327,
1582.162,2842.6894,
1579.252,2818.2474,
1576.341,2731.7405,
1573.431,2739.4443,
1570.520,2766.3594,
1567.610,2742.4456,
1564.699,2692.3734,
1561.788,2657.5319,
1558.878,2565.9529,
1555.967,2520.6434,
1553.057,2462.3885,
1550.146,2428.1773,
1547.235,2400.866,
1544.325,2368.5462,
1541.414,2338.8881,
1538.504,2304.7531,
1535.593,2291.1453,
1532.683,2292.953,
1529.772,2280.3314,
1526.861,2226.2125,
1523.951,2161.8955,
1521.040,2166.5271,
1518.130,2168.4895,
1515.219,2114.4111,
1512.309,2066.3401,
1509.398,2043.7689,
1506.487,2070.1634,
1503.577,2062.3109,
1500.666,2042.1161,
1497.756,2016.2584,
1494.845,2004.5702,
1491.934,2012.2028,
1489.024,1997.7654,
1486.113,1938.8354,
1483.203,1954.6779,
1480.292,1933.4917,
1477.382,1900.9613,
1474.471,1858.1832,
1471.560,1871.9226,
1468.650,1843.6699,
1465.739,1808.9568,
1462.829,1812.38,
1459.918,1828.9849,
1457.008,1838.8039,
1454.097,1826.0745,
1451.186,1800.5962,
1448.276,1793.0948,
1445.365,1792.0707,
1442.455,1793.3628,
1439.544,1808.3599,
1436.633,1774.2411,
1433.723,1804.0098,
1430.812,1779.4029,
1427.902,1756.2275,
1424.991,1755.2797,
1422.081,1724.0558,
1419.170,1680.6392,
1416.259,1677.4903,
1413.349,1668.4319,
1410.438,1663.1507,
1407.528,1669.3312,
1404.617,1724.9173,
1401.707,1719.3847,
1398.796,1687.4423,
1395.885,1698.6241,
1392.975,1698.458,
1390.064,1692.4907,
1387.154,1695.8937,
1384.243,1633.1104,
1381.332,1594.6726,
1378.422,1642.5491,
1375.511,1725.9227,
1372.601,1782.5442,
1369.690,1855.8278,
1366.780,1932.1969,
1363.869,1964.506,
1360.958,1999.9597,
1358.048,2016.4366,
1355.137,2087.166,
1352.227,2114.106,
1349.316,2114.7988,
1346.406,2189.3169,
1343.495,2204.9904,
1340.584,2231.463,
1337.674,2316.5364,
1334.763,2328.4144,
1331.853,2359.013,
1328.942,2394.9391,
1326.032,2410.6687,
1323.121,2452.5211,
1320.210,2508.203,
1317.300,2483.2119,
1314.389,2507.265,
1311.479,2554.1335,
1308.568,2562.0544,
1305.657,2612.4456,
1302.747,2672.6872,
1299.836,2703.6949,
1296.926,2830.3865,
1294.015,2876.3526,
1291.105,2938.1268,
1288.194,3000.5645,
1285.283,3060.0742,
1282.373,3114.953,
1279.462,3158.7594,
1276.552,3202.8013,
1273.641,3220.8618,
1270.731,3225.4784,
1267.820,3261.0993,
1264.909,3183.162,
1261.999,3176.3485,
1259.088,3206.4485,
1256.178,3141.4464,
1253.267,3108.7685,
1250.356,3014.207,
1247.446,2959.9287,
1244.535,2929.942,
1241.625,2853.7502,
1238.714,2760.7955,
1235.804,2717.9588,
1232.893,2665.6213,
1229.982,2678.8463,
1227.072,2578.3567,
1224.161,2592.2626,
1221.251,2497.9748,
1218.340,2409.8338,
1215.430,2398.4177,
1212.519,2388.3482,
1209.608,2357.8956,
1206.698,2358.5266,
1203.787,2362.25,
1200.877,2365.8161,
1197.966,2423.3623,
1195.055,2465.4994,
1192.145,2515.8279,
1189.234,2582.8022,
1186.324,2630.3427,
1183.413,2680.6967,
1180.503,2716.4931,
1177.592,2690.3306,
1174.681,2653.4897,
1171.771,2645.798,
1168.860,2539.5203,
1165.950,2538.1192,
1163.039,2499.0442,
1160.129,2451.1674,
1157.218,2418.7123,
1154.307,2398.4585,
1151.397,2371.9554,
1148.486,2333.5007,
1145.576,2328.3634,
1142.665,2307.9414,
1139.754,2318.4544,
1136.844,2288.3358,
1133.933,2278.942,
1131.023,2264.7825,
1128.112,2250.6064,
1125.202,2267.4964,
1122.291,2291.1274,
1119.380,2297.328,
1116.470,2305.2707,
1113.559,2284.599,
1110.649,2269.0822,
1107.738,2288.8976,
1104.828,2293.1899,
1101.917,2285.5229,
1099.006,2318.8171,
1096.096,2292.4975,
1093.185,2280.2054,
1090.275,2336.7082,
1087.364,2305.652,
1084.453,2303.8113,
1081.543,2302.9123,
1078.632,2304.5608,
1075.722,2351.0619,
1072.811,2351.6772,
1069.901,2371.7622,
1066.990,2319.9001,
1064.079,2367.1352,
1061.169,2407.4006,
1058.258,2429.9546,
1055.348,2450.1896,
1052.437,2446.4268,
1049.527,2394.5731,
1046.616,2480.5872,
1043.705,2491.0208,
1040.795,2483.5879,
1037.884,2489.3648,
1034.974,2498.1327,
1032.063,2493.8655,
1029.153,2485.8346,
1026.242,2482.3747,
1023.331,2508.0817,
1020.421,2503.4906,
1017.510,2538.4693,
1014.600,2572.2105,
1011.689,2590.5035,
1008.778,2626.1034,
1005.868,2626.2153,
1002.957,2733.7596,
1000.047,2876.9221,
997.136,2957.7276,
994.226,2967.4194,
991.315,2922.2401,
988.404,2855.9802,
985.494,2842.2937,
982.583,2754.9249,
979.673,2739.3234,
976.762,2713.0046,
973.852,2711.6044,
970.941,2740.5487,
968.030,2748.9781,
965.120,2685.3896,
962.209,2718.6388,
959.299,2712.918,
956.388,2740.168,
953.477,2754.5633,
950.567,2736.8972,
947.656,2732.8124,
944.746,2752.3522,
941.835,2762.1579,
938.925,2763.5919,
936.014,2774.884,
933.103,2781.3067,
930.193,2766.2573,
927.282,2741.1959,
924.372,2721.747,
921.461,2679.4844,
918.551,2643.7555,
915.640,2587.8803,
912.729,2543.9843,
909.819,2570.4699,
906.908,2549.4093,
903.998,2561.7712,
901.087,2597.7118,
898.176,2634.3834,
895.266,2654.25,
892.355,2662.103,
889.445,2704.0663,
886.534,2672.5249,
883.624,2708.6384,
880.713,2727.2086,
877.802,2716.5652,
874.892,2705.3977,
871.981,2727.8554,
869.071,2711.1472,
866.160,2702.0404,
863.250,2695.5806,
860.339,2698.6935,
857.428,2698.9628,
854.518,2652.1166,
851.607,2682.0711,
848.697,2644.6053,
845.786,2639.2621,
842.875,2649.4536,
839.965,2653.4105,
837.054,2695.0732,
834.144,2679.3269,
831.233,2692.9155,
828.323,2687.402,
825.412,2673.572,
822.501,2666.5051,
819.591,2623.5324,
816.680,2587.7948,
813.770,2570.479,
810.859,2554.4202,
807.949,2550.8964,
805.038,2575.354,
802.127,2567.9458,
799.217,2561.2869,
796.306,2521.2227,
793.396,2497.3111,
790.485,2507.777,
787.574,2517.7793,
784.664,2531.7212,
781.753,2499.3588,
778.843,2494.9921,
775.932,2518.1264,
773.022,2539.2356,
770.111,2532.695,
767.200,2548.2376,
764.290,2566.5412,
761.379,2574.2807,
758.469,2558.0662,
755.558,2507.7637,
752.648,2491.4717,
749.737,2479.111,
746.826,2455.1349,
743.916,2404.7691,
741.005,2318.9615,
738.095,2210.17,
735.184,2021.3453,
732.274,1952.3018,
729.363,2045.0409,
726.452,2259.2861,
723.542,2442.209,
720.631,2429.3138,
717.721,2433.7069,
714.810,2443.0114,
711.899,2442.745,
708.989,2436.2896,
706.078,2453.8787,
703.168,2453.3922,
700.257,2449.0123,
697.347,2444.6416,
694.436,2434.4426,
691.525,2404.7018,
688.615,2396.9922,
685.704,2396.25,
682.794,2390.399,
679.883,2372.7278,
676.973,2405.584,
674.062,2397.5741,
671.151,2385.7434,
668.241,2388.3974,
665.330,2411.0987,
662.420,2407.9038,
659.509,2415.5041,
656.598,2420.6827,
653.688,2416.6491,
650.777,2401.628,
647.867,2412.7766,
644.956,2427.0139,
642.046,2428.8602,
639.135,2426.9094,
636.224,2448.2858,
633.314,2455.4313,
630.403,2460.2061,
627.493,2468.0111,
624.582,2491.1991,
621.672,2553.7667,
618.761,2538.0115,
615.850,2544.9227,
612.940,2558.3238,
610.029,2560.6989,
607.119,2539.3789,
604.208,2533.6999,
601.297,2520.2856,
598.387,2533.187,
595.476,2589.8276,
592.566,2532.3716,
589.655,2535.8557,
586.745,2535.0046,
583.834,2502.072,
580.923,2423.3874,
578.013,2446.1447,
575.102,2439.0575,
572.192,2448.5434,
569.281,2495.0604,
566.371,2560.8008,
563.460,2557.3734,
560.549,2554.7118,
557.639,2561.0841,
554.728,2575.4818,
551.818,2594.9897,
548.907,2621.1889,
545.996,2629.0294,
543.086,2619.9211,
540.175,2623.0356,
537.265,2616.7315,
534.354,2638.8328,
531.444,2667.4299,
528.533,2675.4357,
525.622,2635.8624,
522.712,2658.8012,
519.801,2689.5608,
516.891,2713.1362,
513.980,2747.2052,
511.070,2749.5457,
508.159,2775.9937,
505.248,2811.7594,
502.338,2831.9955,
499.427,2857.466,
496.517,2908.9368,
493.606,2936.5202,
490.695,2923.464,
487.785,2925.0036,
484.874,2959.4999,
481.964,2937.1375,
479.053,2886.6043,
476.143,2917.3228,
473.232,2919.25,
470.321,2894.9212,
467.411,2878.3674,
464.500,2904.7458,
461.590,2884.8365,
458.679,2888.0547,
455.769,2879.1817,
452.858,2848.7835,
449.947,2892.3276,
447.037,2946.1503,
444.126,2949.3712,
441.216,2899.8262,
438.305,2868.587,
435.395,2936.37,
432.484,2951.7454,
429.573,2924.3325,
426.663,2941.8158,
423.752,2913.9584,
420.842,2875.2189,
417.931,2855.8853,
415.020,2896.8367,
412.110,2938.4887,
409.199,2980.6338,
406.289,3012.4477,
403.378,3022.2833,
400.468,3032.1112,
397.557,3023.4246,
394.646,2996.8973,
391.736,2953.8013,
388.825,2908.5474,
385.915,2868.1081,
383.004,2862.8103,
380.094,2914.5861,
377.183,3019.1803,
374.272,3099.2714,
371.362,3150.1968,
368.451,3170.6633,
365.541,3193.9299,
362.630,3212.8135,
359.719,3216.7387,
356.809,3204.92,
353.898,3265.5727,
350.988,3294.7272,
348.077,3295.6665,
345.167,3270.812,
342.256,3242.4234,
339.345,3224.6842,
336.435,3227.3537,
333.524,3257.9176,
330.614,3310.8237,
327.703,3304.1468,
324.793,3299.0064,
321.882,3347.3293,
318.971,3380.0408,
316.061,3419.5722,
313.150,3454.3309,
310.240,3470.6575,
307.329,3479.8256,
304.418,3496.4726,
301.508,3508.3115,
298.597,3493.5032,
295.687,3531.5299,
292.776,3610.667,
289.866,3743.8254,
286.955,3974.3078,
284.044,4114.7749,
281.134,4251.6779,
278.223,4406.9197,
275.313,4602.9232,
272.402,4697.6931,
269.492,4800.2543,
266.581,4938.6179,
263.670,4943.7641,
260.760,5032.488,
257.849,5130.7272,
254.939,5183.5667,
252.028,5274.0068,
249.117,5274.9016,
246.207,5232.2194,
243.296,5220.5068,
240.386,5163.0927,
237.475,5109.0462,
234.565,5049.7739,
231.654,4919.7657,
228.743,4845.0698,
225.833,4775.4918,
222.922,4694.1097,
220.012,4648.2107,
217.101,4565.5312,
214.191,4492.1902,
211.280,4482.0057,
208.369,4428.7706,
205.459,4367.7167,
202.548,4314.1247,
199.638,4313.399,
196.727,4347.2467,
193.816,4375.2602,
190.906,4382.5039,
187.995,4389.7442,
185.085,4428.6599,
182.174,4462.59,
179.264,4438.0159,
176.353,4435.8908,
173.442,4436.25,
170.532,4432.9737,
167.621,4404.8557,
164.711,4339.4376,
161.800,4216.9613,
158.890,4011.1192,
155.979,3823.2249,
153.068,3540.6574,
150.158,3173.5266,
147.247,2757.8323,
144.337,2267.6532,
141.426,1782.3881,
138.516,1339.3493,
135.605,946.29756,
132.694,637.49087,
129.784,409.32723,
126.873,276.31308,
123.963,195.75741,
121.052,140.51896,
118.141,103.39606,
115.231,71.984904,
112.320,56.708184,
109.410,51.341026,
106.499,41.370853,
103.589,38.689746,
100.678,34.175674,
97.767,23.511611,
94.857,28.793912,
91.946,28.428224,
89.036,24.701592,
86.125,27.538413,
83.215,26.126319,
80.304,23.771135,
77.393,22.354795,
74.483,14.388381,
71.572,13.873521,
68.662,19.557325,
65.751,12.492814,
62.840,14.103616,
59.930,17.313569,
57.019,13.788159,
54.109,9.6670349,
51.198,6.9483907,
48.288,6.3462615,
45.377,18.303689,
42.466,22.013342,
39.556,19.674407,
36.645,16.163456,
33.735,16.288497,
30.824,17.691774,
27.914,19.094124,
25.003,21.117912,
22.092,22.25,
19.182,23.165315,
16.271,51.14492,
13.361,192.48051,
10.450,454.42131,
7.539,937.65555,
4.629,1236.7352,
1.718,1252.1439,
-1.192,772.50842,
-4.103,391.00818,
-7.013,128.00586,
-9.924,-0.75,
