,PL5981~1,
Raman shift [1/cm],Intensity,
3014.167,1.375,
3011.256,0.82498926,
3008.346,247.70999,
3005.435,295.14532,
3002.525,301.16751,
2999.614,317.9893,
2996.704,330.46366,
2993.793,333.84274,
2990.882,354.98571,
2987.972,346.39013,
2985.061,355.5819,
2982.151,369.53971,
2979.240,389.85693,
2976.329,401.88319,
2973.419,425.34445,
2970.508,420.07498,
2967.598,441.47058,
2964.687,445.28533,
2961.777,444.65702,
2958.866,461.03919,
2955.955,467.41039,
2953.045,469.87838,
2950.134,517.41878,
2947.224,526.48888,
2944.313,532.17272,
2941.403,554.36359,
2938.492,552.55659,
2935.581,564.03636,
2932.671,585.61102,
2929.760,563.23654,
2926.850,572.74793,
2923.939,598.01048,
2921.028,591.79831,
2918.118,605.89641,
2915.207,621.4953,
2912.297,623.37923,
2909.386,627.57208,
2906.476,623.95646,
2903.565,628.56759,
2900.654,626.63489,
2897.744,600.81503,
2894.833,626.303,
2891.923,621.484,
2889.012,615.95304,
2886.102,623.71015,
2883.191,617.375,
2880.280,588.31279,
2877.370,571.88083,
2874.459,567.18649,
2871.549,618.13845,
2868.638,652.60385,
2865.727,651.8981,
2862.817,666.14771,
2859.906,643.48896,
2856.996,653.33424,
2854.085,665.01576,
2851.175,675.6793,
2848.264,654.1545,
2845.353,634.78477,
2842.443,641.39589,
2839.532,635.79283,
2836.622,630.09961,
2833.711,629.47078,
2830.801,629.58382,
2827.890,620.84009,
2824.979,637.68311,
2822.069,638.19305,
2819.158,623.51516,
2816.248,647.04105,
2813.337,655.12744,
2810.427,638.68355,
2807.516,620.43266,
2804.605,649.80529,
2801.695,641.23023,
2798.784,660.93554,
2795.874,649.11118,
2792.963,633.51798,
2790.052,630.37629,
2787.142,627.04596,
2784.231,624.47126,
2781.321,637.30638,
2778.410,627.59961,
2775.500,611.10156,
2772.589,632.22057,
2769.678,630.80159,
2766.768,659.66629,
2763.857,648.11103,
2760.947,642.3813,
2758.036,667.94203,
2755.126,655.74253,
2752.215,686.58858,
2749.304,690.22571,
2746.394,656.68941,
2743.483,688.62501,
2740.573,641.12923,
2737.662,661.95931,
2734.751,687.51568,
2731.841,660.2651,
2728.930,688.17157,
2726.020,698.82407,
2723.109,686.4165,
2720.199,698.55327,
2717.288,694.77647,
2714.377,711.11664,
2711.467,707.75193,
2708.556,710.24742,
2705.646,722.58631,
2702.735,700.22295,
2699.825,705.08224,
2696.914,699.42273,
2694.003,720.93436,
2691.093,703.4821,
2688.182,706.19352,
2685.272,724.72919,
2682.361,733.67522,
2679.450,724.79063,
2676.540,713.98472,
2673.629,738.39745,
2670.719,739.2946,
2667.808,732.0559,
2664.898,732.41391,
2661.987,734.80832,
2659.076,737.86638,
2656.166,765.6478,
2653.255,759.92603,
2650.345,777.07917,
2647.434,783.17466,
2644.524,775.7803,
2641.613,772.71755,
2638.702,758.51703,
2635.792,759.40392,
2632.881,769.86917,
2629.971,772.2274,
2627.060,766.20719,
2624.149,777.2125,
2621.239,790.64723,
2618.328,790.98571,
2615.418,813.77044,
2612.507,795.06271,
2609.597,794.01771,
2606.686,784.2967,
2603.775,805.01786,
2600.865,802.14288,
2597.954,801.43531,
2595.044,834.77623,
2592.133,821.82088,
2589.223,842.98975,
2586.312,820.93779,
2583.401,832.02828,
2580.491,831.82692,
2577.580,833.40801,
2574.670,851.43784,
2571.759,844.72346,
2568.848,843.375,
2565.938,848.66069,
2563.027,852.47272,
2560.117,853.10397,
2557.206,864.12777,
2554.296,865.83038,
2551.385,857.49899,
2548.474,859.89359,
2545.564,867.18507,
2542.653,874.69043,
2539.743,882.375,
2536.832,884.64042,
2533.922,874.28038,
2531.011,872.77463,
2528.100,903.5667,
2525.190,910.09754,
2522.279,886.89088,
2519.369,898.88434,
2516.458,910.71423,
2513.548,903.62065,
2510.637,899.28096,
2507.726,916.82107,
2504.816,900.37613,
2501.905,899.25915,
2498.995,892.00263,
2496.084,938.58757,
2493.173,930.47963,
2490.263,925.54338,
2487.352,933.2498,
2484.442,936.6405,
2481.531,949.21546,
2478.621,957.89163,
2475.710,976.17564,
2472.799,950.62163,
2469.889,955.73789,
2466.978,950.99365,
2464.068,948.33268,
2461.157,985.3326,
2458.247,964.53672,
2455.336,962.67246,
2452.425,973.2901,
2449.515,983.11097,
2446.604,985.90728,
2443.694,971.49093,
2440.783,996.76239,
2437.872,996.25016,
2434.962,1018.0616,
2432.051,999.7451,
2429.141,1010.71,
2426.230,1019.5054,
2423.320,1020.3031,
2420.409,1036.4584,
2417.498,1034.3582,
2414.588,1042.4624,
2411.677,1051.375,
2408.767,1041.7628,
2405.856,1025.5702,
2402.946,1039.375,
2400.035,1036.6778,
2397.124,1037.7547,
2394.214,1063.2918,
2391.303,1056.165,
2388.393,1067.868,
2385.482,1068.375,
2382.571,1094.2105,
2379.661,1106.7701,
2376.750,1107.9589,
2373.840,1100.2187,
2370.929,1087.5374,
2368.019,1110.2549,
2365.108,1116.3959,
2362.197,1133.4024,
2359.287,1124.585,
2356.376,1093.4278,
2353.466,1109.3596,
2350.555,1116.1401,
2347.645,1138.1366,
2344.734,1129.0985,
2341.823,1137.1428,
2338.913,1133.4795,
2336.002,1169.3415,
2333.092,1164.8005,
2330.181,1172.4645,
2327.270,1161.3101,
2324.360,1156.5589,
2321.449,1191.2049,
2318.539,1185.482,
2315.628,1200.8366,
2312.718,1193.8926,
2309.807,1185.8096,
2306.896,1203.3593,
2303.986,1205.6413,
2301.075,1208.9708,
2298.165,1206.7693,
2295.254,1220.0949,
2292.344,1203.1094,
2289.433,1217.4136,
2286.522,1224.2947,
2283.612,1237.9362,
2280.701,1240.1822,
2277.791,1254.6555,
2274.880,1258.5931,
2271.969,1251.4697,
2269.059,1263.6366,
2266.148,1287.6137,
2263.238,1300.6723,
2260.327,1284.4096,
2257.417,1299.0867,
2254.506,1313.9164,
2251.595,1318.1024,
2248.685,1316.95,
2245.774,1287.936,
2242.864,1301.1256,
2239.953,1326.1474,
2237.043,1333.1678,
2234.132,1339.8685,
2231.221,1342.481,
2228.311,1347.1147,
2225.400,1351.1631,
2222.490,1381.9028,
2219.579,1396.0074,
2216.669,1402.8297,
2213.758,1426.0731,
2210.847,1442.2415,
2207.937,1436.7007,
2205.026,1485.9292,
2202.116,1517.6553,
2199.205,1520.4614,
2196.294,1550.119,
2193.384,1566.0325,
2190.473,1608.1262,
2187.563,1639.5732,
2184.652,1688.6587,
2181.742,1753.9909,
2178.831,1847.6203,
2175.920,1934.273,
2173.010,2055.7832,
2170.099,2180.2986,
2167.189,2320.3509,
2164.278,2467.2604,
2161.368,2590.6542,
2158.457,2774.6685,
2155.546,2880.176,
2152.636,2976.8748,
2149.725,3052.8112,
2146.815,3142.6054,
2143.904,3175.2858,
2140.993,3206.7294,
2138.083,3201.0317,
2135.172,3154.9212,
2132.262,3121.8363,
2129.351,3069.8817,
2126.441,3019.5011,
2123.530,2820.1853,
2120.619,2695.4217,
2117.709,2546.6431,
2114.798,2430.6514,
2111.888,2287.8028,
2108.977,2151.3551,
2106.067,2024.1951,
2103.156,1948.1042,
2100.245,1850.3367,
2097.335,1784.7991,
2094.424,1741.3223,
2091.514,1697.219,
2088.603,1664.9326,
2085.692,1666.9697,
2082.782,1662.2385,
2079.871,1651.4462,
2076.961,1616.6998,
2074.050,1628.375,
2071.140,1626.1223,
2068.229,1600.7683,
2065.318,1590.402,
2062.408,1612.6776,
2059.497,1576.1428,
2056.587,1575.3051,
2053.676,1577.7418,
2050.766,1536.7621,
2047.855,1543.6915,
2044.944,1528.0897,
2042.034,1572.9241,
2039.123,1552.9945,
2036.213,1539.9727,
2033.302,1539.7009,
2030.391,1528.4094,
2027.481,1557.5454,
2024.570,1546.9328,
2021.660,1549.902,
2018.749,1546.8566,
2015.839,1585.8547,
2012.928,1589.6284,
2010.017,1583.6855,
2007.107,1584.9974,
2004.196,1550.9345,
2001.286,1547.3326,
1998.375,1540.5915,
1995.465,1548.0277,
1992.554,1560.0161,
1989.643,1555.5824,
1986.733,1556.268,
1983.822,1555.6446,
1980.912,1558.137,
1978.001,1540.375,
1975.090,1552.7277,
1972.180,1569.4442,
1969.269,1567.9411,
1966.359,1548.2666,
1963.448,1553.4463,
1960.538,1570.7361,
1957.627,1562.6753,
1954.716,1525.4379,
1951.806,1578.5433,
1948.895,1531.2615,
1945.985,1559.5841,
1943.074,1494.5077,
1940.164,1530.3176,
1937.253,1545.7535,
1934.342,1541.4691,
1931.432,1515.4286,
1928.521,1491.622,
1925.611,1492.6542,
1922.700,1490.0007,
1919.790,1498.8489,
1916.879,1492.0027,
1913.968,1515.3455,
1911.058,1481.6032,
1908.147,1539.648,
1905.237,1531.5515,
1902.326,1552.0224,
1899.415,1548.4433,
1896.505,1504.4233,
1893.594,1523.5519,
1890.684,1506.5255,
1887.773,1495.2367,
1884.863,1520.6825,
1881.952,1505.6602,
1879.041,1508.2353,
1876.131,1521.3332,
1873.220,1526.8617,
1870.310,1542.227,
1867.399,1517.7908,
1864.489,1525.2846,
1861.578,1499.9628,
1858.667,1516.8421,
1855.757,1533.1471,
1852.846,1556.0827,
1849.936,1538.6302,
1847.025,1553.2582,
1844.114,1556.6174,
1841.204,1568.7281,
1838.293,1565.3833,
1835.383,1581.142,
1832.472,1597.1889,
1829.562,1601.4854,
1826.651,1582.4941,
1823.740,1600.0379,
1820.830,1617.3199,
1817.919,1607.9737,
1815.009,1626.7808,
1812.098,1630.375,
1809.188,1574.0961,
1806.277,1601.6668,
1803.366,1609.7576,
1800.456,1630.9461,
1797.545,1607.3891,
1794.635,1617.375,
1791.724,1630.7438,
1788.813,1682.9552,
1785.903,1644.3555,
1782.992,1693.0858,
1780.082,1631.3167,
1777.171,1648.0383,
1774.261,1649.6103,
1771.350,1686.2475,
1768.439,1700.1191,
1765.529,1704.8315,
1762.618,1714.9594,
1759.708,1685.2986,
1756.797,1685.7311,
1753.887,1724.1709,
1750.976,1722.8128,
1748.065,1724.4349,
1745.155,1742.233,
1742.244,1725.8624,
1739.334,1762.9891,
1736.423,1759.9395,
1733.512,1774.8426,
1730.602,1811.3036,
1727.691,1785.8303,
1724.781,1780.0945,
1721.870,1818.3943,
1718.960,1820.7971,
1716.049,1855.4509,
1713.138,1850.4051,
1710.228,1856.2077,
1707.317,1890.1041,
1704.407,1911.4445,
1701.496,1880.5593,
1698.586,1923.5742,
1695.675,1918.0179,
1692.764,1951.457,
1689.854,1975.3789,
1686.943,1957.0495,
1684.033,1999.2822,
1681.122,2014.1371,
1678.211,2083.7088,
1675.301,2080.3873,
1672.390,2110.4976,
1669.480,2151.8323,
1666.569,2209.5176,
1663.659,2299.5509,
1660.748,2369.4302,
1657.837,2324.1525,
1654.927,2448.4453,
1652.016,2452.9544,
1649.106,2517.8194,
1646.195,2575.4709,
1643.285,2580.0586,
1640.374,2610.3785,
1637.463,2659.3926,
1634.553,2770.0252,
1631.642,2815.2751,
1628.732,2988.7602,
1625.821,3053.4627,
1622.911,3186.6199,
1620.000,3412.5025,
1617.089,3522.2058,
1614.179,3717.763,
1611.268,3940.9728,
1608.358,4096.1642,
1605.447,4258.9477,
1602.536,4314.0375,
1599.626,4418.5676,
1596.715,4359.3049,
1593.805,4370.2616,
1590.894,4343.3129,
1587.984,4309.9279,
1585.073,4282.4029,
1582.162,4262.5122,
1579.252,4211.0952,
1576.341,4190.7622,
1573.431,4139.035,
1570.520,4087.9205,
1567.610,4104.6892,
1564.699,4104.2246,
1561.788,4049.6713,
1558.878,3938.933,
1555.967,3888.1257,
1553.057,3847.0133,
1550.146,3764.3061,
1547.235,3675.7876,
1544.325,3635.1541,
1541.414,3623.8943,
1538.504,3575.2156,
1535.593,3534.8619,
1532.683,3511.4865,
1529.772,3444.1319,
1526.861,3396.3983,
1523.951,3362.4939,
1521.040,3295.7176,
1518.130,3258.3614,
1515.219,3182.7744,
1512.309,3190.5011,
1509.398,3157.8273,
1506.487,3179.5174,
1503.577,3137.8338,
1500.666,3216.0266,
1497.756,3082.2653,
1494.845,3126.6935,
1491.934,3062.2805,
1489.024,3033.4057,
1486.113,2984.1598,
1483.203,2975.046,
1480.292,2958.2533,
1477.382,2906.8801,
1474.471,2846.2627,
1471.560,2827.7467,
1468.650,2796.311,
1465.739,2794.5443,
1462.829,2821.07,
1459.918,2820.0102,
1457.008,2830.206,
1454.097,2830.1157,
1451.186,2781.2551,
1448.276,2779.8443,
1445.365,2830.8742,
1442.455,2840.7807,
1439.544,2885.4204,
1436.633,2852.6362,
1433.723,2809.2564,
1430.812,2790.3115,
1427.902,2738.5858,
1424.991,2705.4141,
1422.081,2612.6273,
1419.170,2618.2,
1416.259,2607.414,
1413.349,2583.9835,
1410.438,2577.375,
1407.528,2625.6556,
1404.617,2632.4126,
1401.707,2634.2732,
1398.796,2624.3016,
1395.885,2624.6587,
1392.975,2662.3125,
1390.064,2654.4888,
1387.154,2632.1969,
1384.243,2592.4416,
1381.332,2535.4656,
1378.422,2581.3504,
1375.511,2677.8389,
1372.601,2808.3948,
1369.690,2918.8128,
1366.780,3061.3086,
1363.869,3068.9483,
1360.958,3070.5987,
1358.048,3143.4192,
1355.137,3211.4537,
1352.227,3250.5908,
1349.316,3313.0356,
1346.406,3406.3483,
1343.495,3481.8419,
1340.584,3518.9458,
1337.674,3565.0215,
1334.763,3623.339,
1331.853,3701.2264,
1328.942,3702.5961,
1326.032,3719.503,
1323.121,3785.616,
1320.210,3871.3034,
1317.300,3896.8824,
1314.389,3924.2367,
1311.479,3968.7924,
1308.568,4019.7022,
1305.657,4101.5373,
1302.747,4176.9217,
1299.836,4241.0631,
1296.926,4320.9642,
1294.015,4398.1874,
1291.105,4466.5351,
1288.194,4583.2053,
1285.283,4636.8671,
1282.373,4739.7653,
1279.462,4810.9433,
1276.552,4881.1233,
1273.641,4906.6551,
1270.731,4865.1332,
1267.820,4899.5094,
1264.909,4830.8914,
1261.999,4826.8757,
1259.088,4813.1939,
1256.178,4814.0879,
1253.267,4736.1211,
1250.356,4632.459,
1247.446,4528.6616,
1244.535,4437.2814,
1241.625,4368.7677,
1238.714,4302.3706,
1235.804,4206.2198,
1232.893,4124.3735,
1229.982,4126.9287,
1227.072,3995.6585,
1224.161,3951.9143,
1221.251,3834.4431,
1218.340,3772.406,
1215.430,3738.4547,
1212.519,3680.6266,
1209.608,3624.6419,
1206.698,3602.6726,
1203.787,3586.37,
1200.877,3652.9352,
1197.966,3678.1116,
1195.055,3773.2323,
1192.145,3893.8117,
1189.234,3976.3856,
1186.324,4031.8324,
1183.413,4076.6897,
1180.503,4102.375,
1177.592,4097.0315,
1174.681,4068.6045,
1171.771,3992.0054,
1168.860,3889.3001,
1165.950,3801.9712,
1163.039,3780.5814,
1160.129,3721.5692,
1157.218,3691.9512,
1154.307,3687.7919,
1151.397,3635.8285,
1148.486,3568.4701,
1145.576,3595.7945,
1142.665,3559.3901,
1139.754,3537.6615,
1136.844,3508.8644,
1133.933,3501.894,
1131.023,3505.7913,
1128.112,3506.3037,
1125.202,3491.5731,
1122.291,3455.7618,
1119.380,3486.427,
1116.470,3491.7221,
1113.559,3559.6477,
1110.649,3534.1907,
1107.738,3523.7705,
1104.828,3527.8852,
1101.917,3520.0378,
1099.006,3528.8285,
1096.096,3538.7624,
1093.185,3512.4223,
1090.275,3541.1273,
1087.364,3514.0689,
1084.453,3486.0008,
1081.543,3490.3981,
1078.632,3506.808,
1075.722,3516.5392,
1072.811,3574.3678,
1069.901,3588.34,
1066.990,3582.1,
1064.079,3589.9022,
1061.169,3658.9942,
1058.258,3728.3144,
1055.348,3754.3146,
1052.437,3755.4714,
1049.527,3725.8449,
1046.616,3738.0085,
1043.705,3784.8501,
1040.795,3763.8958,
1037.884,3782.8111,
1034.974,3816.6508,
1032.063,3801.7907,
1029.153,3778.6334,
1026.242,3814.0966,
1023.331,3832.0406,
1020.421,3838.8605,
1017.510,3859.4244,
1014.600,3885.3712,
1011.689,3942.2803,
1008.778,4052.0666,
1005.868,4080.2785,
1002.957,4180.9399,
1000.047,4390.0231,
997.136,4507.0118,
994.226,4527.2213,
991.315,4487.1919,
988.404,4417.485,
985.494,4364.1885,
982.583,4266.5411,
979.673,4209.9395,
976.762,4146.8197,
973.852,4116.0271,
970.941,4133.3049,
968.030,4148.9412,
965.120,4050.7223,
962.209,4133.4188,
959.299,4115.5038,
956.388,4126.4535,
953.477,4161.4051,
950.567,4191.9563,
947.656,4213.5978,
944.746,4215.2969,
941.835,4217.8044,
938.925,4211.1364,
936.014,4199.2818,
933.103,4209.0297,
930.193,4227.1923,
927.282,4168.8627,
924.372,4140.9576,
921.461,4112.3374,
918.551,4060.3859,
915.640,3997.9292,
912.729,3947.3243,
909.819,3922.4837,
906.908,3900.5806,
903.998,3914.4869,
901.087,3978.8431,
898.176,4031.9856,
895.266,4039.9964,
892.355,4034.421,
889.445,4146.8828,
886.534,4132.3473,
883.624,4181.8559,
880.713,4230.8514,
877.802,4213.0776,
874.892,4144.7289,
871.981,4176.5464,
869.071,4141.4591,
866.160,4133.9951,
863.250,4162.2062,
860.339,4186.9431,
857.428,4174.0443,
854.518,4129.7251,
851.607,4107.2592,
848.697,4121.9461,
845.786,4119.4767,
842.875,4128.9497,
839.965,4166.9916,
837.054,4175.0635,
834.144,4236.3911,
831.233,4188.3793,
828.323,4167.2773,
825.412,4164.4624,
822.501,4142.2049,
819.591,4157.9064,
816.680,4064.6248,
813.770,4036.363,
810.859,4012.1667,
807.949,3970.3896,
805.038,3929.1715,
802.127,3935.7565,
799.217,3920.7218,
796.306,3889.8343,
793.396,3866.4818,
790.485,3857.4269,
787.574,3846.4684,
784.664,3848.9287,
781.753,3869.5045,
778.843,3873.9841,
775.932,3874.2391,
773.022,3891.6861,
770.111,3919.4838,
767.200,3911.4779,
764.290,3881.7926,
761.379,3890.3396,
758.469,3922.2839,
755.558,3879.4997,
752.648,3850.174,
749.737,3846.3334,
746.826,3805.4151,
743.916,3709.0691,
741.005,3571.2612,
738.095,3455.1628,
735.184,3290.4974,
732.274,3261.9288,
729.363,3370.7341,
726.452,3554.2252,
723.542,3691.8221,
720.631,3765.1254,
717.721,3794.5405,
714.810,3818.5056,
711.899,3841.1077,
708.989,3818.5138,
706.078,3815.1698,
703.168,3769.4407,
700.257,3758.5282,
697.347,3780.6797,
694.436,3766.0875,
691.525,3718.663,
688.615,3706.4883,
685.704,3716.599,
682.794,3718.9709,
679.883,3679.5644,
676.973,3706.0097,
674.062,3742.641,
671.151,3757.3067,
668.241,3759.5695,
665.330,3778.5052,
662.420,3760.1344,
659.509,3765.899,
656.598,3774.837,
653.688,3782.3656,
650.777,3791.943,
647.867,3779.2017,
644.956,3770.8026,
642.046,3781.0567,
639.135,3808.1305,
636.224,3837.3511,
633.314,3832.5875,
630.403,3825.4629,
627.493,3819.8387,
624.582,3836.2681,
621.672,3921.0115,
618.761,3926.6548,
615.850,3929.028,
612.940,3934.815,
610.029,3940.7445,
607.119,3924.9519,
604.208,3941.1253,
601.297,3949.372,
598.387,3957.5408,
595.476,3975.0779,
592.566,3971.9296,
589.655,3961.6566,
586.745,3947.2617,
583.834,3925.9329,
580.923,3892.4461,
578.013,3904.2171,
575.102,3903.3599,
572.192,3920.7402,
569.281,3957.7968,
566.371,3960.1447,
563.460,4044.3257,
560.549,4070.604,
557.639,4064.3292,
554.728,4071.9316,
551.818,4064.9087,
548.907,4078.6103,
545.996,4101.9826,
543.086,4130.0855,
540.175,4161.2313,
537.265,4167.7207,
534.354,4213.5238,
531.444,4259.0469,
528.533,4264.6994,
525.622,4283.3221,
522.712,4282.521,
519.801,4333.602,
516.891,4427.0092,
513.980,4454.8838,
511.070,4513.0184,
508.159,4576.4906,
505.248,4632.3924,
502.338,4670.0242,
499.427,4726.368,
496.517,4743.6376,
493.606,4751.7683,
490.695,4770.7941,
487.785,4816.9815,
484.874,4868.3182,
481.964,4865.3819,
479.053,4820.3884,
476.143,4791.2058,
473.232,4805.9213,
470.321,4799.2374,
467.411,4786.1348,
464.500,4787.9677,
461.590,4771.8872,
458.679,4800.943,
455.769,4811.3615,
452.858,4770.5573,
449.947,4733.8886,
447.037,4772.4888,
444.126,4797.1992,
441.216,4782.8189,
438.305,4750.8178,
435.395,4758.1765,
432.484,4737.2861,
429.573,4703.9901,
426.663,4723.7537,
423.752,4719.0982,
420.842,4660.2026,
417.931,4609.1042,
415.020,4664.4644,
412.110,4742.4628,
409.199,4770.375,
406.289,4781.4441,
403.378,4815.2623,
400.468,4781.9985,
397.557,4773.4316,
394.646,4771.6042,
391.736,4759.1537,
388.825,4689.7644,
385.915,4619.3488,
383.004,4597.0763,
380.094,4660.8187,
377.183,4845.9279,
374.272,4878.9205,
371.362,4885.4496,
368.451,4939.7427,
365.541,4962.2588,
362.630,5001.1494,
359.719,5029.8548,
356.809,5037.1357,
353.898,5099.2859,
350.988,5109.8652,
348.077,5100.5997,
345.167,5093.759,
342.256,5140.8243,
339.345,5166.5979,
336.435,5184.87,
333.524,5207.2875,
330.614,5299.6868,
327.703,5318.1069,
324.793,5319.2022,
321.882,5350.4687,
318.971,5389.1278,
316.061,5453.1597,
313.150,5521.1559,
310.240,5568.6513,
307.329,5543.2188,
304.418,5540.5822,
301.508,5545.6488,
298.597,5527.8788,
295.687,5583.2632,
292.776,5666.2086,
289.866,5797.1541,
286.955,6047.582,
284.044,6269.9623,
281.134,6482.0556,
278.223,6685.8591,
275.313,6873.7572,
272.402,7054.5345,
269.492,7217.5276,
266.581,7357.7306,
263.670,7474.6242,
260.760,7610.2397,
257.849,7742.1257,
254.939,7852.942,
252.028,7980.324,
249.117,8015.5838,
246.207,8006.6256,
243.296,8030.7828,
240.386,8057.5357,
237.475,8037.3349,
234.565,7971.3761,
231.654,7888.8428,
228.743,7813.8382,
225.833,7728.6895,
222.922,7628.4193,
220.012,7565.035,
217.101,7471.2584,
214.191,7401.4947,
211.280,7421.8636,
208.369,7376.2781,
205.459,7326.6252,
202.548,7298.1578,
199.638,7366.3688,
196.727,7346.3783,
193.816,7354.4875,
190.906,7431.1718,
187.995,7425.3796,
185.085,7453.6378,
182.174,7473.0755,
179.264,7420.3136,
176.353,7425.2682,
173.442,7415.785,
170.532,7386.6949,
167.621,7372.2753,
164.711,7229.0996,
161.800,7018.5862,
158.890,6770.2802,
155.979,6372.1975,
153.068,5840.4119,
150.158,5190.5859,
147.247,4445.3515,
144.337,3645.8968,
141.426,2851.2016,
138.516,2089.1462,
135.605,1484.9954,
132.694,1016.872,
129.784,672.70345,
126.873,458.87963,
123.963,313.51145,
121.052,215.12831,
118.141,161.58566,
115.231,124.42534,
112.320,102.17319,
109.410,89.51154,
106.499,74.55628,
103.589,69.694237,
100.678,63.757431,
97.767,51.671492,
94.857,51.375,
91.946,49.762557,
89.036,47.036306,
86.125,44.90869,
83.215,41.720398,
80.304,37.938404,
77.393,33.689384,
74.483,28.789055,
71.572,27.099704,
68.662,27.197453,
65.751,15.187784,
62.840,21.490742,
59.930,29.940279,
57.019,20.774214,
54.109,18.180678,
51.198,17.978219,
48.288,19.414637,
45.377,24.338284,
42.466,24.726123,
39.556,22.490119,
36.645,23.192309,
33.735,20.778758,
30.824,18.375,
27.914,18.375,
25.003,22.110825,
22.092,21.468859,
19.182,16.107252,
16.271,38.490936,
13.361,131.6666,
10.450,283.43193,
7.539,492.92654,
4.629,507.10165,
1.718,329.53864,
-1.192,-126.39389,
-4.103,-182.80199,
-7.013,-126.90097,
-9.924,-1.625,
