,PL469F~1,
Raman shift [1/cm],Intensity,
3014.167,1.375,
3011.256,0.3248819,
3008.346,281.47903,
3005.435,346.87677,
3002.525,381.52768,
2999.614,372.9893,
2996.704,380.01211,
2993.793,396.87039,
2990.882,407.15359,
2987.972,433.46581,
2985.061,450.4883,
2982.151,447.61365,
2979.240,463.85693,
2976.329,473.6291,
2973.419,490.45202,
2970.508,499.32493,
2967.598,511.70954,
2964.687,529.83696,
2961.777,548.71694,
2958.866,562.71081,
2955.955,562.41039,
2953.045,595.62331,
2950.134,591.2584,
2947.224,606.17213,
2944.313,636.52101,
2941.403,660.36359,
2938.492,673.52405,
2935.581,669.33207,
2932.671,688.89431,
2929.760,680.02884,
2926.850,705.70282,
2923.939,689.52916,
2921.028,712.45738,
2918.118,741.69238,
2915.207,725.08392,
2912.297,742.31576,
2909.386,754.77646,
2906.476,740.0576,
2903.565,725.53648,
2900.654,726.04537,
2897.744,723.16127,
2894.833,712.56045,
2891.923,714.8878,
2889.012,734.20737,
2886.102,712.00476,
2883.191,718.35329,
2880.280,694.19797,
2877.370,663.33439,
2874.459,647.23691,
2871.549,709.7831,
2868.638,748.15024,
2865.727,753.11345,
2862.817,745.26004,
2859.906,775.12144,
2856.996,759.40217,
2854.085,749.85399,
2851.175,752.42318,
2848.264,748.95334,
2845.353,755.28873,
2842.443,740.9931,
2839.532,743.22564,
2836.622,736.48699,
2833.711,717.61836,
2830.801,738.57647,
2827.890,723.60755,
2824.979,730.10307,
2822.069,753.61381,
2819.158,767.15397,
2816.248,747.15684,
2813.337,756.76647,
2810.427,748.80199,
2807.516,733.75657,
2804.605,757.43991,
2801.695,756.92761,
2798.784,732.55777,
2795.874,753.36443,
2792.963,747.30319,
2790.052,751.37221,
2787.142,747.62488,
2784.231,738.21351,
2781.321,752.375,
2778.410,745.32044,
2775.500,739.97017,
2772.589,762.95222,
2769.678,765.05419,
2766.768,780.23134,
2763.857,777.27288,
2760.947,799.34978,
2758.036,786.90361,
2755.126,799.42414,
2752.215,788.9931,
2749.304,782.5027,
2746.394,767.33868,
2743.483,777.825,
2740.573,796.00561,
2737.662,807.8972,
2734.751,785.375,
2731.841,792.51053,
2728.930,819.06588,
2726.020,800.38542,
2723.109,820.78717,
2720.199,815.375,
2717.288,823.53194,
2714.377,827.76254,
2711.467,840.71896,
2708.556,855.93879,
2705.646,836.24818,
2702.735,827.24358,
2699.825,865.77684,
2696.914,875.23228,
2694.003,857.43028,
2691.093,864.67826,
2688.182,844.91944,
2685.272,867.4632,
2682.361,848.13373,
2679.450,848.83592,
2676.540,855.67986,
2673.629,873.02969,
2670.719,881.58665,
2667.808,859.59089,
2664.898,873.55691,
2661.987,875.17513,
2659.076,883.86638,
2656.166,869.45717,
2653.255,900.40732,
2650.345,907.10277,
2647.434,928.97431,
2644.524,912.64123,
2641.613,912.97462,
2638.702,906.375,
2635.792,923.43582,
2632.881,919.05386,
2629.971,913.35491,
2627.060,912.70688,
2624.149,913.35002,
2621.239,901.87796,
2618.328,945.73919,
2615.418,924.73863,
2612.507,918.82161,
2609.597,920.65045,
2606.686,937.60796,
2603.775,963.85516,
2600.865,981.19417,
2597.954,959.7104,
2595.044,968.35729,
2592.133,972.375,
2589.223,979.50764,
2586.312,984.22926,
2583.401,989.27281,
2580.491,1004.1682,
2577.580,1014.3601,
2574.670,1001.5007,
2571.759,990.82449,
2568.848,964.85553,
2565.938,999.61301,
2563.027,1005.1546,
2560.117,1000.0946,
2557.206,1017.8399,
2554.296,1026.7114,
2551.385,1007.2591,
2548.474,1026.5233,
2545.564,1024.5649,
2542.653,1039.2273,
2539.743,1054.7579,
2536.832,1046.2516,
2533.922,1057.4696,
2531.011,1058.9754,
2528.100,1059.1033,
2525.190,1067.7939,
2522.279,1067.7502,
2519.369,1071.4507,
2516.458,1070.1583,
2513.548,1086.084,
2510.637,1087.0676,
2507.726,1070.8211,
2504.816,1060.0018,
2501.905,1064.0707,
2498.995,1063.7638,
2496.084,1096.1624,
2493.173,1091.0068,
2490.263,1088.3976,
2487.352,1108.9159,
2484.442,1094.1031,
2481.531,1101.8057,
2478.621,1113.7683,
2475.710,1103.3827,
2472.799,1113.9937,
2469.889,1146.2836,
2466.978,1142.1586,
2464.068,1153.7401,
2461.157,1138.99,
2458.247,1139.0809,
2455.336,1171.0521,
2452.425,1152.4976,
2449.515,1171.5351,
2446.604,1155.9073,
2443.694,1153.1192,
2440.783,1169.759,
2437.872,1206.4269,
2434.962,1187.1538,
2432.051,1208.2516,
2429.141,1182.7695,
2426.230,1193.7452,
2423.320,1217.5321,
2420.409,1215.7276,
2417.498,1210.7767,
2414.588,1194.0253,
2411.677,1229.7336,
2408.767,1234.063,
2405.856,1243.7034,
2402.946,1244.9934,
2400.035,1237.7694,
2397.124,1256.3643,
2394.214,1252.5922,
2391.303,1256.0159,
2388.393,1270.0378,
2385.482,1283.0666,
2382.571,1264.1977,
2379.661,1275.8167,
2376.750,1304.003,
2373.840,1287.1376,
2370.929,1326.8552,
2368.019,1306.5788,
2365.108,1323.2363,
2362.197,1322.5422,
2359.287,1308.2151,
2356.376,1319.3468,
2353.466,1324.6336,
2350.555,1318.8553,
2347.645,1325.0863,
2344.734,1361.1401,
2341.823,1366.4745,
2338.913,1348.7302,
2336.002,1355.9372,
2333.092,1361.9957,
2330.181,1370.6921,
2327.270,1380.99,
2324.360,1369.0472,
2321.449,1374.6675,
2318.539,1382.9927,
2315.628,1408.6008,
2312.718,1395.2935,
2309.807,1382.673,
2306.896,1398.3593,
2303.986,1405.8621,
2301.075,1427.6941,
2298.165,1412.0189,
2295.254,1393.6766,
2292.344,1423.6322,
2289.433,1436.6336,
2286.522,1432.2633,
2283.612,1448.4452,
2280.701,1439.8548,
2277.791,1446.6956,
2274.880,1454.161,
2271.969,1461.8853,
2269.059,1507.7729,
2266.148,1527.5386,
2263.238,1515.4793,
2260.327,1525.5473,
2257.417,1517.4589,
2254.506,1522.5203,
2251.595,1531.3604,
2248.685,1541.1654,
2245.774,1565.6053,
2242.864,1557.0234,
2239.953,1567.7405,
2237.043,1581.3368,
2234.132,1599.7802,
2231.221,1604.7962,
2228.311,1607.1147,
2225.400,1597.6283,
2222.490,1612.6878,
2219.579,1635.9302,
2216.669,1652.2558,
2213.758,1673.4613,
2210.847,1711.6772,
2207.937,1679.1666,
2205.026,1707.819,
2202.116,1725.4058,
2199.205,1759.2863,
2196.294,1788.995,
2193.384,1786.27,
2190.473,1831.422,
2187.563,1865.5442,
2184.652,1905.6464,
2181.742,1955.7639,
2178.831,2022.4023,
2175.920,2106.5772,
2173.010,2223.6057,
2170.099,2343.2312,
2167.189,2412.4872,
2164.278,2577.0866,
2161.368,2689.0833,
2158.457,2873.9537,
2155.546,3026.4472,
2152.636,3171.9599,
2149.725,3309.5763,
2146.815,3375.7733,
2143.904,3440.8954,
2140.993,3503.4119,
2138.083,3543.0923,
2135.172,3552.249,
2132.262,3551.1021,
2129.351,3499.8403,
2126.441,3434.2486,
2123.530,3288.1516,
2120.619,3158.0824,
2117.709,2968.538,
2114.798,2773.4359,
2111.888,2618.7529,
2108.977,2451.11,
2106.067,2323.8794,
2103.156,2244.3059,
2100.245,2128.3392,
2097.335,2068.8462,
2094.424,2044.6306,
2091.514,2004.5657,
2088.603,1954.9326,
2085.692,1920.9142,
2082.782,1893.359,
2079.871,1903.1615,
2076.961,1882.054,
2074.050,1895.8235,
2071.140,1863.605,
2068.229,1866.3489,
2065.318,1885.7442,
2062.408,1851.0944,
2059.497,1848.3988,
2056.587,1838.6427,
2053.676,1806.8765,
2050.766,1841.9879,
2047.855,1771.9129,
2044.944,1818.2564,
2042.034,1790.4619,
2039.123,1816.4524,
2036.213,1801.1039,
2033.302,1818.8097,
2030.391,1840.7644,
2027.481,1836.9849,
2024.570,1842.489,
2021.660,1844.375,
2018.749,1810.8186,
2015.839,1847.9131,
2012.928,1845.1686,
2010.017,1824.375,
2007.107,1813.9077,
2004.196,1796.3036,
2001.286,1821.17,
1998.375,1821.2825,
1995.465,1836.9732,
1992.554,1816.2046,
1989.643,1833.6146,
1986.733,1822.9504,
1983.822,1767.1712,
1980.912,1791.137,
1978.001,1770.5531,
1975.090,1779.1185,
1972.180,1787.8591,
1969.269,1788.6595,
1966.359,1811.4022,
1963.448,1788.8849,
1960.538,1781.621,
1957.627,1792.1831,
1954.716,1823.4845,
1951.806,1794.835,
1948.895,1768.8183,
1945.985,1786.2475,
1943.074,1770.2273,
1940.164,1784.3268,
1937.253,1749.2712,
1934.342,1743.0932,
1931.432,1779.9207,
1928.521,1763.0486,
1925.611,1749.375,
1922.700,1754.1236,
1919.790,1768.2939,
1916.879,1793.6313,
1913.968,1749.4316,
1911.058,1790.9125,
1908.147,1774.0129,
1905.237,1715.9045,
1902.326,1760.9676,
1899.415,1759.692,
1896.505,1715.0677,
1893.594,1721.0946,
1890.684,1746.1854,
1887.773,1772.1246,
1884.863,1762.0515,
1881.952,1748.6775,
1879.041,1745.349,
1876.131,1745.1894,
1873.220,1742.7599,
1870.310,1779.505,
1867.399,1716.4466,
1864.489,1764.6087,
1861.578,1763.6502,
1858.667,1706.7372,
1855.757,1758.3643,
1852.846,1770.8776,
1849.936,1776.6072,
1847.025,1783.5526,
1844.114,1786.8244,
1841.204,1787.1967,
1838.293,1788.8476,
1835.383,1825.049,
1832.472,1822.9907,
1829.562,1862.7568,
1826.651,1853.3997,
1823.740,1833.1911,
1820.830,1817.7135,
1817.919,1841.0638,
1815.009,1851.6562,
1812.098,1878.4065,
1809.188,1840.1038,
1806.277,1843.2422,
1803.366,1871.2086,
1800.456,1861.5399,
1797.545,1864.5594,
1794.635,1867.536,
1791.724,1884.4525,
1788.813,1929.574,
1785.903,1923.3266,
1782.992,1915.5211,
1780.082,1908.722,
1777.171,1878.041,
1774.261,1887.7853,
1771.350,1931.1413,
1768.439,1970.7589,
1765.529,1976.6472,
1762.618,1977.24,
1759.708,2013.0492,
1756.797,2014.8674,
1753.887,2007.2992,
1750.976,2033.9372,
1748.065,2029.2429,
1745.155,2031.8717,
1742.244,2025.1323,
1739.334,2017.6903,
1736.423,2078.8441,
1733.512,2073.0863,
1730.602,2090.5477,
1727.691,2104.2133,
1724.781,2117.1736,
1721.870,2138.0799,
1718.960,2170.3309,
1716.049,2157.9176,
1713.138,2182.5899,
1710.228,2218.7057,
1707.317,2248.143,
1704.407,2209.1503,
1701.496,2240.8369,
1698.586,2225.8953,
1695.675,2294.5531,
1692.764,2353.3381,
1689.854,2298.0167,
1686.943,2332.0934,
1684.033,2347.0273,
1681.122,2381.7803,
1678.211,2448.7373,
1675.301,2509.19,
1672.390,2483.713,
1669.480,2596.5274,
1666.569,2616.3653,
1663.659,2693.9793,
1660.748,2731.3777,
1657.837,2784.1027,
1654.927,2861.8202,
1652.016,2882.2703,
1649.106,2958.7912,
1646.195,2977.6288,
1643.285,3070.446,
1640.374,3117.0649,
1637.463,3151.0143,
1634.553,3242.5178,
1631.642,3386.5477,
1628.732,3494.7023,
1625.821,3717.4535,
1622.911,3836.6988,
1620.000,4111.8726,
1617.089,4401.564,
1614.179,4537.5961,
1611.268,4845.6268,
1608.358,5050.8699,
1605.447,5198.9761,
1602.536,5314.542,
1599.626,5372.9713,
1596.715,5352.8698,
1593.805,5297.6094,
1590.894,5299.301,
1587.984,5264.8652,
1585.073,5238.1046,
1582.162,5260.2565,
1579.252,5185.9998,
1576.341,5153.9559,
1573.431,5112.7826,
1570.520,5067.978,
1567.610,5006.7076,
1564.699,4990.8251,
1561.788,4916.7278,
1558.878,4803.4434,
1555.967,4692.7019,
1553.057,4659.8405,
1550.146,4568.9643,
1547.235,4447.8004,
1544.325,4372.1397,
1541.414,4319.8321,
1538.504,4274.7953,
1535.593,4204.7097,
1532.683,4124.352,
1529.772,4074.9878,
1526.861,4015.1538,
1523.951,3923.3393,
1521.040,3848.2742,
1518.130,3808.6506,
1515.219,3789.935,
1512.309,3772.0506,
1509.398,3710.1526,
1506.487,3695.2964,
1503.577,3678.4359,
1500.666,3660.5915,
1497.756,3647.7386,
1494.845,3566.5746,
1491.934,3547.0443,
1489.024,3445.9825,
1486.113,3495.2263,
1483.203,3446.0849,
1480.292,3416.4652,
1477.382,3367.9213,
1474.471,3384.2333,
1471.560,3308.9234,
1468.650,3256.1935,
1465.739,3236.1272,
1462.829,3230.9718,
1459.918,3213.1428,
1457.008,3211.5752,
1454.097,3222.5264,
1451.186,3220.7909,
1448.276,3222.8509,
1445.365,3241.1278,
1442.455,3266.7221,
1439.544,3224.8381,
1436.633,3161.3859,
1433.723,3206.5207,
1430.812,3152.095,
1427.902,3072.2475,
1424.991,3024.8594,
1422.081,3038.0546,
1419.170,3034.1906,
1416.259,2998.5423,
1413.349,3050.7943,
1410.438,2969.6067,
1407.528,2980.4493,
1404.617,3000.3938,
1401.707,3004.5038,
1398.796,3024.7596,
1395.885,3060.765,
1392.975,3081.9161,
1390.064,3064.4384,
1387.154,3072.7296,
1384.243,3036.4425,
1381.332,3003.5763,
1378.422,3049.964,
1375.511,3138.9582,
1372.601,3301.6498,
1369.690,3398.5256,
1366.780,3461.4812,
1363.869,3549.2021,
1360.958,3653.9601,
1358.048,3685.0686,
1355.137,3758.2276,
1352.227,3827.0874,
1349.316,3866.7574,
1346.406,3985.7422,
1343.495,4105.3471,
1340.584,4135.8031,
1337.674,4173.8439,
1334.763,4247.0567,
1331.853,4317.5262,
1328.942,4328.3802,
1326.032,4408.4902,
1323.121,4497.5076,
1320.210,4578.3123,
1317.300,4628.8038,
1314.389,4701.9317,
1311.479,4800.5009,
1308.568,4890.7798,
1305.657,4958.2418,
1302.747,5004.4575,
1299.836,5126.1713,
1296.926,5266.8698,
1294.015,5406.607,
1291.105,5548.859,
1288.194,5695.9726,
1285.283,5826.4674,
1282.373,5958.3981,
1279.462,6071.668,
1276.552,6182.6272,
1273.641,6231.219,
1270.731,6231.893,
1267.820,6304.2243,
1264.909,6224.1109,
1261.999,6199.0435,
1259.088,6162.5586,
1256.178,6085.8633,
1253.267,5994.3539,
1250.356,5878.2685,
1247.446,5725.8305,
1244.535,5527.9691,
1241.625,5354.7196,
1238.714,5217.5458,
1235.804,5046.8849,
1232.893,4927.5214,
1229.982,4828.5045,
1227.072,4773.2805,
1224.161,4718.9448,
1221.251,4570.1518,
1218.340,4478.9716,
1215.430,4450.9707,
1212.519,4384.8942,
1209.608,4312.9188,
1206.698,4319.8857,
1203.787,4332.7469,
1200.877,4397.774,
1197.966,4452.6227,
1195.055,4536.4336,
1192.145,4636.0281,
1189.234,4714.9808,
1186.324,4838.9297,
1183.413,4915.4004,
1180.503,4925.5515,
1177.592,4934.6978,
1174.681,4856.1113,
1171.771,4784.0356,
1168.860,4725.9848,
1165.950,4657.4844,
1163.039,4601.8676,
1160.129,4548.9837,
1157.218,4524.375,
1154.307,4494.322,
1151.397,4420.9566,
1148.486,4357.0753,
1145.576,4352.8694,
1142.665,4295.1551,
1139.754,4254.5753,
1136.844,4173.5435,
1133.933,4160.5567,
1131.023,4154.4912,
1128.112,4140.8739,
1125.202,4151.718,
1122.291,4139.3642,
1119.380,4111.7301,
1116.470,4147.9138,
1113.559,4177.8922,
1110.649,4140.1907,
1107.738,4142.6301,
1104.828,4180.3546,
1101.917,4194.2741,
1099.006,4174.0452,
1096.096,4159.2351,
1093.185,4173.2831,
1090.275,4194.6068,
1087.364,4192.5138,
1084.453,4124.6916,
1081.543,4120.3882,
1078.632,4164.0187,
1075.722,4143.1631,
1072.811,4198.1888,
1069.901,4195.5691,
1066.990,4207.5,
1064.079,4262.7746,
1061.169,4297.8687,
1058.258,4336.4425,
1055.348,4380.6085,
1052.437,4391.8188,
1049.527,4409.8785,
1046.616,4422.9109,
1043.705,4439.0195,
1040.795,4481.0468,
1037.884,4505.4094,
1034.974,4514.3338,
1032.063,4530.8132,
1029.153,4552.5175,
1026.242,4562.032,
1023.331,4581.5404,
1020.421,4622.3214,
1017.510,4663.5874,
1014.600,4694.3712,
1011.689,4725.9091,
1008.778,4791.2726,
1005.868,4931.6646,
1002.957,5075.3438,
1000.047,5263.3591,
997.136,5421.6964,
994.226,5535.3281,
991.315,5572.8899,
988.404,5509.73,
985.494,5412.1283,
982.583,5356.4521,
979.673,5309.5977,
976.762,5304.1815,
973.852,5302.4188,
970.941,5292.375,
968.030,5296.2826,
965.120,5318.0958,
962.209,5251.5975,
959.299,5244.6245,
956.388,5256.4544,
953.477,5296.4351,
950.567,5323.5525,
947.656,5276.5026,
944.746,5323.2282,
941.835,5337.5222,
938.925,5330.5042,
936.014,5342.5731,
933.103,5367.1431,
930.193,5356.0059,
927.282,5251.0295,
924.372,5189.3002,
921.461,5154.1282,
918.551,5047.3591,
915.640,4954.853,
912.729,4915.7876,
909.819,4890.2621,
906.908,4874.256,
903.998,4913.9386,
901.087,4971.4765,
898.176,5003.6241,
895.266,5028.7363,
892.355,5084.3533,
889.445,5159.0481,
886.534,5218.6509,
883.624,5268.7264,
880.713,5334.8381,
877.802,5340.425,
874.892,5264.4558,
871.981,5259.3689,
869.071,5216.7628,
866.160,5251.4625,
863.250,5237.3502,
860.339,5208.4489,
857.428,5196.6008,
854.518,5137.2677,
851.607,5098.9925,
848.697,5065.5501,
845.786,5106.8285,
842.875,5144.1408,
839.965,5111.8553,
837.054,5068.5425,
834.144,5083.46,
831.233,5061.0435,
828.323,5060.2447,
825.412,5041.1446,
822.501,4972.3962,
819.591,4955.8682,
816.680,4889.6698,
813.770,4823.8813,
810.859,4792.57,
807.949,4768.3261,
805.038,4715.3529,
802.127,4756.5093,
799.217,4723.1054,
796.306,4691.6451,
793.396,4648.5655,
790.485,4605.902,
787.574,4615.9978,
784.664,4632.4,
781.753,4664.2273,
778.843,4676.4147,
775.932,4692.2759,
773.022,4728.1907,
770.111,4701.2106,
767.200,4710.7947,
764.290,4684.3253,
761.379,4673.0094,
758.469,4682.8877,
755.558,4655.8221,
752.648,4570.2888,
749.737,4554.0278,
746.826,4546.9155,
743.916,4491.4652,
741.005,4349.2829,
738.095,4162.5512,
735.184,3946.5938,
732.274,3866.2196,
729.363,3976.6847,
726.452,4234.5805,
723.542,4423.9786,
720.631,4484.8346,
717.721,4547.9212,
714.810,4600.5056,
711.899,4623.4839,
708.989,4602.5038,
706.078,4548.6877,
703.168,4518.3728,
700.257,4484.6835,
697.347,4454.7661,
694.436,4463.1568,
691.525,4455.1187,
688.615,4442.0546,
685.704,4444.0089,
682.794,4459.5877,
679.883,4473.9157,
676.973,4485.9362,
674.062,4481.3561,
671.151,4462.4718,
668.241,4452.4284,
665.330,4481.2616,
662.420,4478.8654,
659.509,4459.3271,
656.598,4473.9072,
653.688,4495.4128,
650.777,4457.2382,
647.867,4512.1848,
644.956,4463.6983,
642.046,4423.8874,
639.135,4440.7071,
636.224,4517.3193,
633.314,4506.2042,
630.403,4524.6586,
627.493,4551.2813,
624.582,4566.3139,
621.672,4548.098,
618.761,4602.8506,
615.850,4662.8011,
612.940,4696.0089,
610.029,4694.5587,
607.119,4701.6654,
604.208,4729.3555,
601.297,4762.8083,
598.387,4766.7439,
595.476,4722.5291,
592.566,4745.3541,
589.655,4751.3187,
586.745,4702.9026,
583.834,4629.1525,
580.923,4596.5266,
578.013,4621.6381,
575.102,4685.7338,
572.192,4691.2174,
569.281,4637.5914,
566.371,4711.158,
563.460,4688.7453,
560.549,4719.7428,
557.639,4775.5804,
554.728,4807.6123,
551.818,4874.7195,
548.907,4843.669,
545.996,4829.149,
543.086,4858.9177,
540.175,4889.2849,
537.265,4931.9346,
534.354,4938.3446,
531.444,4943.0292,
528.533,4985.052,
525.622,5078.9417,
522.712,5108.4763,
519.801,5157.1456,
516.891,5223.7144,
513.980,5210.5514,
511.070,5298.1228,
508.159,5417.0389,
505.248,5517.8917,
502.338,5553.5724,
499.427,5594.4795,
496.517,5732.6476,
493.606,5830.375,
490.695,5833.0496,
487.785,5852.2944,
484.874,5831.4647,
481.964,5825.85,
479.053,5836.1911,
476.143,5835.4232,
473.232,5797.2466,
470.321,5765.8314,
467.411,5731.9131,
464.500,5684.5968,
461.590,5732.8384,
458.679,5765.6353,
455.769,5804.0596,
452.858,5848.0462,
449.947,5796.8628,
447.037,5847.0511,
444.126,5862.3447,
441.216,5838.4402,
438.305,5936.7294,
435.395,5924.8052,
432.484,5911.7918,
429.573,5927.2852,
426.663,5991.137,
423.752,5974.0576,
420.842,5952.9579,
417.931,5961.3528,
415.020,6038.7053,
412.110,6086.735,
409.199,6137.1158,
406.289,6188.6096,
403.378,6238.2546,
400.468,6202.7229,
397.557,6232.507,
394.646,6244.1711,
391.736,6169.3126,
388.825,6136.1264,
385.915,6124.7784,
383.004,6155.3559,
380.094,6239.2907,
377.183,6316.0433,
374.272,6417.7065,
371.362,6506.5666,
368.451,6559.1075,
365.541,6587.6278,
362.630,6613.4009,
359.719,6657.3798,
356.809,6727.5077,
353.898,6746.2277,
350.988,6762.7672,
348.077,6748.8519,
345.167,6694.7429,
342.256,6761.232,
339.345,6785.1579,
336.435,6801.5891,
333.524,6832.4355,
330.614,6802.6293,
327.703,6835.4742,
324.793,6882.3354,
321.882,6902.4561,
318.971,6935.911,
316.061,7002.0662,
313.150,7070.2297,
310.240,7105.1092,
307.329,7177.1241,
304.418,7209.0226,
301.508,7191.5165,
298.597,7109.3302,
295.687,7241.2093,
292.776,7362.3753,
289.866,7485.4594,
286.955,7704.1221,
284.044,7981.4173,
281.134,8245.0888,
278.223,8485.4038,
275.313,8724.8817,
272.402,8863.0914,
269.492,9025.2331,
266.581,9249.4106,
263.670,9403.7985,
260.760,9509.4938,
257.849,9612.0811,
254.939,9745.6478,
252.028,9834.2364,
249.117,9833.5698,
246.207,9822.3548,
243.296,9934.3565,
240.386,9839.9373,
237.475,9773.3861,
234.565,9729.8818,
231.654,9555.3202,
228.743,9453.3584,
225.833,9361.165,
222.922,9257.4533,
220.012,9194.7975,
217.101,9100.7676,
214.191,9009.2943,
211.280,8959.0994,
208.369,8910.2965,
205.459,8874.002,
202.548,8859.0185,
199.638,8897.4779,
196.727,8912.2896,
193.816,8901.7218,
190.906,8865.0957,
187.995,8857.1314,
185.085,8918.2105,
182.174,8999.9527,
179.264,9038.9821,
176.353,9108.7344,
173.442,9148.638,
170.532,9146.9824,
167.621,9083.5365,
164.711,8934.9831,
161.800,8723.7218,
158.890,8452.3844,
155.979,7992.9429,
153.068,7370.4492,
150.158,6613.2947,
147.247,5784.0598,
144.337,4836.5244,
141.426,3849.0483,
138.516,2851.8526,
135.605,2045.3557,
132.694,1406.2946,
129.784,920.65862,
126.873,598.85019,
123.963,403.62701,
121.052,276.76279,
118.141,204.65869,
115.231,162.45135,
112.320,129.27683,
109.410,105.46603,
106.499,95.495853,
103.589,87.212201,
100.678,78.843918,
97.767,69.601729,
94.857,60.366142,
91.946,52.343891,
89.036,46.93949,
86.125,50.485516,
83.215,45.534876,
80.304,39.177837,
77.393,35.636987,
74.483,45.202024,
71.572,43.49031,
68.662,30.613058,
65.751,22.842096,
62.840,26.637126,
59.930,33.562286,
57.019,34.267368,
54.109,28.403392,
51.198,23.470172,
48.288,21.358013,
45.377,19.247878,
42.466,22.909413,
39.556,29.029644,
36.645,26.923074,
33.735,21.701764,
30.824,18.037661,
27.914,20.141187,
25.003,22.86555,
22.092,25.989523,
19.182,29.466531,
16.271,32.264492,
13.361,96.172239,
10.450,219.75401,
7.539,436.93009,
4.629,420.57318,
1.718,232.63744,
-1.192,-157.7635,
-4.103,-179.6722,
-7.013,-112.37338,
-9.924,0.375,
