,PL3C42~1,
Wavenumbers [1/cm],Intensity,
3014.167,-5.5,
3011.256,1.5499034,
3008.346,119.77813,
3005.435,121.61661,
3002.525,143.35011,
2999.614,149.8857,
2996.704,143.54433,
2993.793,143.60542,
2990.882,161.88929,
2987.972,168.50504,
2985.061,159.74629,
2982.151,173.03952,
2979.240,171.71577,
2976.329,178.00273,
2973.419,185.94621,
2970.508,188.43331,
2967.598,194.31245,
2964.687,212.41033,
2961.777,209.06405,
2958.866,211.50594,
2955.955,202.74115,
2953.045,210.84899,
2950.134,220.47963,
2947.224,217.3256,
2944.313,243.25285,
2941.403,237.89279,
2938.492,231.26696,
2935.581,251.97853,
2932.671,243.82191,
2929.760,241.73844,
2926.850,248.5594,
2923.939,243.29906,
2921.028,263.45311,
2918.118,256.0403,
2915.207,258.5,
2912.297,266.46615,
2909.386,261.46352,
2906.476,264.23593,
2903.565,257.54815,
2900.654,269.45246,
2897.744,249.44971,
2894.833,241.78873,
2891.923,251.90711,
2889.012,264.37861,
2886.102,259.74864,
2883.191,246.51699,
2880.280,247.14593,
2877.370,194.05248,
2874.459,209.96548,
2871.549,218.10522,
2868.638,253.68554,
2865.727,268.18461,
2862.817,251.28477,
2859.906,284.5,
2856.996,275.04302,
2854.085,276.06304,
2851.175,285.85841,
2848.264,286.07834,
2845.353,296.09023,
2842.443,271.90975,
2839.532,265.82834,
2836.622,281.5,
2833.711,285.70723,
2830.801,276.91029,
2827.890,281.66784,
2824.979,284.93202,
2822.069,271.84116,
2819.158,295.41913,
2816.248,281.01737,
2813.337,310.23172,
2810.427,290.58816,
2807.516,292.70859,
2804.605,285.68269,
2801.695,292.11844,
2798.784,309.68685,
2795.874,293.50528,
2792.963,298.14309,
2790.052,288.50322,
2787.142,284.27635,
2784.231,283.95187,
2781.321,293.05421,
2778.410,282.70429,
2775.500,287.77794,
2772.589,280.19266,
2769.678,291.06994,
2766.768,299.93495,
2763.857,301.65993,
2760.947,302.90228,
2758.036,310.37275,
2755.126,300.53633,
2752.215,314.01343,
2749.304,314.32912,
2746.394,310.55846,
2743.483,311.75001,
2740.573,323.69475,
2737.662,317.18047,
2734.751,316.45161,
2731.841,312.95971,
2728.930,325.39828,
2726.020,334.06134,
2723.109,318.99517,
2720.199,312.10611,
2717.288,330.32482,
2714.377,314.56688,
2711.467,335.53296,
2708.556,323.85116,
2705.646,334.02116,
2702.735,338.81958,
2699.825,330.39093,
2696.914,333.07136,
2694.003,368.54554,
2691.093,337.78521,
2688.182,335.95556,
2685.272,339.1899,
2682.361,326.68777,
2679.450,349.20782,
2676.540,329.98778,
2673.629,347.85878,
2670.719,324.93807,
2667.808,353.70048,
2664.898,335.91537,
2661.987,347.93332,
2659.076,363.2112,
2656.166,335.45234,
2653.255,351.71939,
2650.345,345.38748,
2647.434,372.04244,
2644.524,358.81656,
2641.613,376.90038,
2638.702,367.7525,
2635.792,365.4681,
2632.881,373.96423,
2629.971,365.15765,
2627.060,366.66532,
2624.149,371.06876,
2621.239,363.5,
2618.328,354.64445,
2615.418,385.47728,
2612.507,378.12457,
2609.597,387.48004,
2606.686,373.64258,
2603.775,373.37698,
2600.865,386.43523,
2597.954,389.88331,
2595.044,396.83924,
2592.133,390.60823,
2589.223,391.9579,
2586.312,404.8417,
2583.401,403.80656,
2580.491,394.69232,
2577.580,388.54456,
2574.670,413.00936,
2571.759,390.53511,
2568.848,388.20171,
2565.938,414.6906,
2563.027,394.57275,
2560.117,402.84582,
2557.206,415.02029,
2554.296,402.93249,
2551.385,418.18599,
2548.474,406.64795,
2545.564,410.24676,
2542.653,422.05704,
2539.743,422.22797,
2536.832,418.60281,
2533.922,435.46846,
2531.011,431.57516,
2528.100,429.69862,
2525.190,426.17541,
2522.279,422.62555,
2519.369,434.63273,
2516.458,424.51062,
2513.548,434.88184,
2510.637,428.5,
2507.726,428.5,
2504.816,436.37599,
2501.905,436.00732,
2498.995,432.15691,
2496.084,436.36756,
2493.173,437.42153,
2490.263,438.33162,
2487.352,453.6236,
2484.442,443.46785,
2481.531,472.18613,
2478.621,484.7133,
2475.710,444.66102,
2472.799,465.5,
2469.889,475.19531,
2466.978,466.01565,
2464.068,484.35723,
2461.157,467.6925,
2458.247,459.97049,
2455.336,472.9012,
2452.425,469.45281,
2449.515,490.39604,
2446.604,479.32721,
2443.694,478.15133,
2440.783,478.26126,
2437.872,475.86465,
2434.962,486.28802,
2432.051,492.40131,
2429.141,495.78824,
2426.230,473.9994,
2423.320,503.30028,
2420.409,491.1218,
2417.498,501.86799,
2414.588,510.31749,
2411.677,502.14142,
2408.767,495.78838,
2405.856,497.52623,
2402.946,490.55362,
2400.035,505.88499,
2397.124,515.51069,
2394.214,523.5,
2391.303,515.99729,
2388.393,505.76743,
2385.482,474.86592,
2382.571,509.86749,
2379.661,510.63928,
2376.750,540.28814,
2373.840,539.0094,
2370.929,551.34838,
2368.019,527.2346,
2365.108,536.47644,
2362.197,548.45894,
2359.287,540.92841,
2356.376,551.47534,
2353.466,530.68149,
2350.555,532.7349,
2347.645,536.19668,
2344.734,545.4401,
2341.823,548.46683,
2338.913,562.67761,
2336.002,556.82542,
2333.092,548.31604,
2330.181,564.08053,
2327.270,569.44499,
2324.360,565.32308,
2321.449,567.98975,
2318.539,556.43888,
2315.628,582.07954,
2312.718,573.01762,
2309.807,594.63663,
2306.896,592.72065,
2303.986,573.66876,
2301.075,569.05317,
2298.165,574.89428,
2295.254,599.96142,
2292.344,588.44184,
2289.433,606.47682,
2286.522,600.5,
2283.612,584.6288,
2280.701,593.07844,
2277.791,583.30337,
2274.880,623.93205,
2271.969,612.17901,
2269.059,615.20301,
2266.148,632.90234,
2263.238,630.30309,
2260.327,627.05153,
2257.417,615.56555,
2254.506,647.5684,
2251.595,653.07457,
2248.685,659.33843,
2245.774,651.687,
2242.864,653.07359,
2239.953,635.68615,
2237.043,646.5,
2234.132,647.60129,
2231.221,653.47418,
2228.311,662.45875,
2225.400,663.52815,
2222.490,661.52925,
2219.579,662.85997,
2216.669,687.01669,
2213.758,678.28169,
2210.847,675.5,
2207.937,699.48205,
2205.026,696.38921,
2202.116,691.95753,
2199.205,704.91247,
2196.294,703.814,
2193.384,720.26253,
2190.473,718.0622,
2187.563,753.46617,
2184.652,749.21102,
2181.742,765.09098,
2178.831,770.89691,
2175.920,787.57469,
2173.010,789.69955,
2170.099,835.16123,
2167.189,847.83007,
2164.278,897.31508,
2161.368,933.21263,
2158.457,982.32695,
2155.546,1036.1347,
2152.636,1067.3776,
2149.725,1119.4328,
2146.815,1184.598,
2143.904,1204.8978,
2140.993,1208.1136,
2138.083,1237.2295,
2135.172,1255.8531,
2132.262,1287.8952,
2129.351,1318.4001,
2126.441,1264.5386,
2123.530,1213.3541,
2120.619,1193.3443,
2117.709,1136.3704,
2114.798,1077.6382,
2111.888,1018.0009,
2108.977,982.60595,
2106.067,930.27247,
2103.156,882.18643,
2100.245,878.48871,
2097.335,855.44242,
2094.424,815.38846,
2091.514,795.48916,
2088.603,773.70278,
2085.692,769.5,
2082.782,773.74094,
2079.871,767.2853,
2076.961,762.69373,
2074.050,780.93636,
2071.140,786.60368,
2068.229,776.9427,
2065.318,785.37599,
2062.408,772.54539,
2059.497,750.26188,
2056.587,741.75575,
2053.676,746.76647,
2050.766,744.73094,
2047.855,754.87023,
2044.944,767.63301,
2042.034,758.78311,
2039.123,743.1431,
2036.213,770.84666,
2033.302,763.15224,
2030.391,753.70355,
2027.481,759.42675,
2024.570,765.87134,
2021.660,772.14522,
2018.749,762.99388,
2015.839,771.46456,
2012.928,745.95973,
2010.017,753.01901,
2007.107,774.96731,
2004.196,775.67852,
2001.286,796.94163,
1998.375,778.44388,
1995.465,758.92679,
1992.554,771.64695,
1989.643,775.43087,
1986.733,787.75088,
1983.822,774.07681,
1980.912,767.40066,
1978.001,755.38126,
1975.090,761.09389,
1972.180,767.3617,
1969.269,761.31031,
1966.359,752.20269,
1963.448,760.9967,
1960.538,776.67265,
1957.627,754.53404,
1954.716,760.24146,
1951.806,748.59292,
1948.895,759.68031,
1945.985,701.07843,
1943.074,745.4371,
1940.164,757.13425,
1937.253,734.81724,
1934.342,739.9615,
1931.432,727.99527,
1928.521,745.22885,
1925.611,709.92906,
1922.700,722.36602,
1919.790,749.44776,
1916.879,721.80173,
1913.968,754.45696,
1911.058,722.82133,
1908.147,745.61828,
1905.237,759.39697,
1902.326,709.40073,
1899.415,714.87561,
1896.505,717.33142,
1893.594,734.49697,
1890.684,745.14703,
1887.773,747.18971,
1884.863,753.15376,
1881.952,742.85265,
1879.041,742.55192,
1876.131,730.65556,
1873.220,707.45125,
1870.310,724.92149,
1867.399,740.27609,
1864.489,731.55148,
1861.578,758.99439,
1858.667,768.80542,
1855.757,743.69212,
1852.846,766.06919,
1849.936,788.36188,
1847.025,758.14232,
1844.114,785.53531,
1841.204,773.75175,
1838.293,757.9842,
1835.383,776.24399,
1832.472,793.58174,
1829.562,800.5,
1826.651,779.3029,
1823.740,779.69159,
1820.830,827.48464,
1817.919,796.52367,
1815.009,790.78117,
1812.098,814.83857,
1809.188,841.88754,
1806.277,787.76152,
1803.366,829.58318,
1800.456,833.29094,
1797.545,813.79071,
1794.635,824.82297,
1791.724,811.84954,
1788.813,813.71311,
1785.903,853.32753,
1782.992,832.33154,
1780.082,807.49216,
1777.171,863.83619,
1774.261,852.23455,
1771.350,831.70451,
1768.439,876.94925,
1765.529,881.86013,
1762.618,859.01687,
1759.708,868.20662,
1756.797,887.7197,
1753.887,876.7551,
1750.976,868.57591,
1748.065,904.8364,
1745.155,890.64862,
1742.244,888.05342,
1739.334,906.08588,
1736.423,889.30377,
1733.512,889.23173,
1730.602,923.1687,
1727.691,940.40894,
1724.781,908.67721,
1721.870,914.79057,
1718.960,946.45589,
1716.049,973.47437,
1713.138,937.3152,
1710.228,941.81386,
1707.317,948.80743,
1704.407,929.73526,
1701.496,947.55405,
1698.586,986.45938,
1695.675,1003.5356,
1692.764,981.77868,
1689.854,1007.2874,
1686.943,1026.8592,
1684.033,1003.1209,
1681.122,1031.0072,
1678.211,1078.0527,
1675.301,1041.6141,
1672.390,1133.4372,
1669.480,1112.508,
1666.569,1113.6016,
1663.659,1122.186,
1660.748,1163.9049,
1657.837,1184.7843,
1654.927,1197.3126,
1652.016,1190.5206,
1649.106,1232.1365,
1646.195,1258.3392,
1643.285,1292.6367,
1640.374,1298.6882,
1637.463,1308.3107,
1634.553,1352.3522,
1631.642,1343.7921,
1628.732,1461.7192,
1625.821,1498.5451,
1622.911,1567.1112,
1620.000,1652.4165,
1617.089,1796.5945,
1614.179,1910.2851,
1611.268,2002.0796,
1608.358,2074.1287,
1605.447,2202.901,
1602.536,2231.9334,
1599.626,2230.7402,
1596.715,2257.728,
1593.805,2216.6777,
1590.894,2194.7673,
1587.984,2158.7224,
1585.073,2170.5163,
1582.162,2127.5813,
1579.252,2101.3157,
1576.341,2064.6564,
1573.431,1996.1956,
1570.520,1989.4369,
1567.610,1976.8527,
1564.699,1951.9242,
1561.788,1968.4434,
1558.878,1946.4101,
1555.967,1924.8934,
1553.057,1843.6732,
1550.146,1806.26,
1547.235,1831.7518,
1544.325,1798.4298,
1541.414,1756.0994,
1538.504,1748.4172,
1535.593,1674.4105,
1532.683,1639.0079,
1529.772,1649.7068,
1526.861,1599.2814,
1523.951,1600.4635,
1521.040,1600.2229,
1518.130,1586.1086,
1515.219,1579.4614,
1512.309,1528.2703,
1509.398,1518.7073,
1506.487,1511.5786,
1503.577,1523.7366,
1500.666,1511.2615,
1497.756,1495.0256,
1494.845,1511.2588,
1491.934,1457.6386,
1489.024,1499.9883,
1486.113,1475.538,
1483.203,1429.9798,
1480.292,1444.8643,
1477.382,1374.9494,
1474.471,1387.4278,
1471.560,1416.8187,
1468.650,1402.6352,
1465.739,1377.7687,
1462.829,1379.0491,
1459.918,1371.6877,
1457.008,1356.4384,
1454.097,1357.5837,
1451.186,1345.618,
1448.276,1310.5378,
1445.365,1300.5727,
1442.455,1322.333,
1439.544,1327.7125,
1436.633,1293.637,
1433.723,1338.8829,
1430.812,1319.5395,
1427.902,1308.4245,
1424.991,1347.2828,
1422.081,1331.0679,
1419.170,1285.4329,
1416.259,1262.2987,
1413.349,1249.4371,
1410.438,1248.5993,
1407.528,1277.8246,
1404.617,1255.3367,
1401.707,1230.0898,
1398.796,1250.8531,
1395.885,1262.5787,
1392.975,1271.876,
1390.064,1304.1992,
1387.154,1259.6388,
1384.243,1217.2628,
1381.332,1321.9627,
1378.422,1287.5771,
1375.511,1327.8587,
1372.601,1341.402,
1369.690,1387.9328,
1366.780,1415.3009,
1363.869,1475.7123,
1360.958,1555.9195,
1358.048,1577.6003,
1355.137,1576.7568,
1352.227,1597.5132,
1349.316,1634.775,
1346.406,1691.2801,
1343.495,1732.8118,
1340.584,1686.6424,
1337.674,1730.7561,
1334.763,1822.8063,
1331.853,1778.2992,
1328.942,1854.7728,
1326.032,1836.7689,
1323.121,1917.1928,
1320.210,1948.8318,
1317.300,1982.553,
1314.389,2035.82,
1311.479,2087.6552,
1308.568,2147.6721,
1305.657,2230.1577,
1302.747,2308.5548,
1299.836,2335.8711,
1296.926,2388.3718,
1294.015,2385.6138,
1291.105,2461.2266,
1288.194,2509.0409,
1285.283,2604.4204,
1282.373,2635.9688,
1279.462,2678.9697,
1276.552,2748.949,
1273.641,2811.4152,
1270.731,2852.2642,
1267.820,2867.5102,
1264.909,2904.4226,
1261.999,2863.9049,
1259.088,2765.3958,
1256.178,2765.4952,
1253.267,2722.7699,
1250.356,2664.8012,
1247.446,2598.322,
1244.535,2551.634,
1241.625,2497.3409,
1238.714,2405.5616,
1235.804,2321.5437,
1232.893,2285.2566,
1229.982,2253.2309,
1227.072,2186.2378,
1224.161,2110.8977,
1221.251,2065.4861,
1218.340,2041.5438,
1215.430,2004.2206,
1212.519,1979.9528,
1209.608,1981.5631,
1206.698,1969.9678,
1203.787,1938.289,
1200.877,1979.8871,
1197.966,1969.9963,
1195.055,2050.5586,
1192.145,2141.137,
1189.234,2188.5589,
1186.324,2196.1359,
1183.413,2210.165,
1180.503,2219.347,
1177.592,2187.9241,
1174.681,2164.9384,
1171.771,2132.4285,
1168.860,2085.9879,
1165.950,2125.0396,
1163.039,2121.5319,
1160.129,2095.4449,
1157.218,2074.289,
1154.307,2049.4328,
1151.397,2033.5339,
1148.486,2069.6009,
1145.576,2063.652,
1142.665,2044.1179,
1139.754,2077.486,
1136.844,2047.6836,
1133.933,2039.1246,
1131.023,2050.6372,
1128.112,2057.8571,
1125.202,2052.4614,
1122.291,2044.279,
1119.380,2119.4394,
1116.470,2113.2617,
1113.559,2155.8019,
1110.649,2146.2352,
1107.738,2120.0329,
1104.828,2088.3594,
1101.917,2062.3876,
1099.006,2063.6237,
1096.096,2058.4787,
1093.185,2041.7966,
1090.275,2054.2576,
1087.364,2060.9306,
1084.453,2067.5622,
1081.543,2089.9053,
1078.632,2116.6339,
1075.722,2124.2522,
1072.811,2132.1539,
1069.901,2197.6485,
1066.990,2157.2334,
1064.079,2184.6088,
1061.169,2197.5293,
1058.258,2206.6281,
1055.348,2223.6181,
1052.437,2225.2717,
1049.527,2243.0566,
1046.616,2205.697,
1043.705,2223.8522,
1040.795,2211.9834,
1037.884,2207.0631,
1034.974,2214.7345,
1032.063,2213.4925,
1029.153,2198.7463,
1026.242,2209.1258,
1023.331,2259.4968,
1020.421,2270.8942,
1017.510,2318.0029,
1014.600,2370.5713,
1011.689,2403.3327,
1008.778,2430.5,
1005.868,2430.9711,
1002.957,2483.4527,
1000.047,2556.292,
997.136,2622.7875,
994.226,2656.0692,
991.315,2648.3218,
988.404,2604.9355,
985.494,2525.2864,
982.583,2560.4052,
979.673,2574.2798,
976.762,2522.8995,
973.852,2506.1585,
970.941,2537.6493,
968.030,2548.1012,
965.120,2551.3461,
962.209,2514.6868,
959.299,2558.0774,
956.388,2589.1393,
953.477,2593.8008,
950.567,2598.9569,
947.656,2625.8261,
944.746,2605.4368,
941.835,2625.5551,
938.925,2603.5199,
936.014,2578.8777,
933.103,2557.9072,
930.193,2537.9007,
927.282,2532.7961,
924.372,2482.9053,
921.461,2452.1988,
918.551,2412.1296,
915.640,2379.7263,
912.729,2356.3025,
909.819,2329.9457,
906.908,2340.8972,
903.998,2324.7974,
901.087,2335.1396,
898.176,2345.886,
895.266,2365.6395,
892.355,2407.5259,
889.445,2434.3825,
886.534,2462.0508,
883.624,2458.0804,
880.713,2474.4246,
877.802,2489.6365,
874.892,2459.7253,
871.981,2367.066,
869.071,2348.6869,
866.160,2344.81,
863.250,2402.6865,
860.339,2448.6985,
857.428,2439.9436,
854.518,2453.6334,
851.607,2423.6789,
848.697,2403.368,
845.786,2395.4621,
842.875,2423.163,
839.965,2473.8057,
837.054,2461.7605,
834.144,2484.9656,
831.233,2493.4997,
828.323,2493.5217,
825.412,2494.3977,
822.501,2495.8829,
819.591,2470.2645,
816.680,2497.5449,
813.770,2426.1872,
810.859,2384.0124,
807.949,2383.4366,
805.038,2368.7943,
802.127,2379.4949,
799.217,2321.6141,
796.306,2308.3109,
793.396,2310.3855,
790.485,2293.4969,
787.574,2249.4964,
784.664,2275.74,
781.753,2295.9326,
778.843,2311.8314,
775.932,2335.6232,
773.022,2368.4856,
770.111,2361.945,
767.200,2305.9242,
764.290,2313.9266,
761.379,2347.0731,
758.469,2362.3849,
755.558,2335.2812,
752.648,2327.9498,
749.737,2281.4575,
746.826,2280.3448,
743.916,2299.7986,
741.005,2282.3166,
738.095,2280.6928,
735.184,2186.1121,
732.274,2127.4641,
729.363,2124.9753,
726.452,2170.656,
723.542,2243.5014,
720.631,2233.7383,
717.721,2265.5893,
714.810,2298.2102,
711.899,2297.9059,
708.989,2256.7527,
706.078,2269.3208,
703.168,2273.7144,
700.257,2269.1366,
697.347,2250.1968,
694.436,2210.482,
691.525,2246.6532,
688.615,2243.8085,
685.704,2230.5929,
682.794,2230.8616,
679.883,2263.6626,
676.973,2311.7448,
674.062,2302.9956,
671.151,2287.24,
668.241,2275.0203,
665.330,2258.6723,
662.420,2283.433,
659.509,2294.2144,
656.598,2318.272,
653.688,2343.4296,
650.777,2335.2849,
647.867,2299.4501,
644.956,2247.5403,
642.046,2240.8153,
639.135,2267.6135,
636.224,2260.6114,
633.314,2282.8417,
630.403,2302.6891,
627.493,2324.4063,
624.582,2338.9091,
621.672,2318.3173,
618.761,2328.8991,
615.850,2308.2565,
612.940,2321.9704,
610.029,2381.6337,
607.119,2352.4173,
604.208,2392.8108,
601.297,2376.1023,
598.387,2340.6401,
595.476,2341.8426,
592.566,2377.2606,
589.655,2325.8378,
586.745,2294.5,
583.834,2306.138,
580.923,2347.4479,
578.013,2338.8158,
575.102,2365.753,
572.192,2397.1467,
569.281,2418.2962,
566.371,2439.427,
563.460,2433.0344,
560.549,2403.187,
557.639,2372.8144,
554.728,2367.3723,
551.818,2397.0243,
548.907,2408.9847,
545.996,2409.7785,
543.086,2403.6546,
540.175,2395.0895,
537.265,2392.3272,
534.354,2397.0186,
531.444,2403.336,
528.533,2407.2106,
525.622,2431.265,
522.712,2431.646,
519.801,2440.7202,
516.891,2472.5509,
513.980,2532.1717,
511.070,2518.4826,
508.159,2530.5578,
505.248,2563.7663,
502.338,2598.11,
499.427,2618.9494,
496.517,2636.9444,
493.606,2655.5853,
490.695,2677.7794,
487.785,2708.571,
484.874,2670.203,
481.964,2654.8056,
479.053,2663.0067,
476.143,2648.4154,
473.232,2648.2194,
470.321,2642.1745,
467.411,2646.1369,
464.500,2677.2285,
461.590,2666.5081,
458.679,2715.778,
455.769,2757.5548,
452.858,2753.9888,
449.947,2739.4741,
447.037,2754.0961,
444.126,2778.8091,
441.216,2804.5426,
438.305,2822.0671,
435.395,2857.9375,
432.484,2871.7492,
429.573,2850.5248,
426.663,2782.1122,
423.752,2768.8284,
420.842,2686.4933,
417.931,2608.2292,
415.020,2663.5894,
412.110,2788.411,
409.199,2876.5317,
406.289,2921.254,
403.378,2920.6281,
400.468,2958.4278,
397.557,2929.8822,
394.646,2921.6667,
391.736,3002.5583,
388.825,2973.1433,
385.915,2928.3108,
383.004,2911.6338,
380.094,2954.0683,
377.183,3043.613,
374.272,3063.0722,
371.362,3065.8582,
368.451,3085.5972,
365.541,3120.1218,
362.630,3116.9365,
359.719,3119.8185,
356.809,3148.7361,
353.898,3103.0595,
350.988,3125.2192,
348.077,3136.7851,
345.167,3094.6352,
342.256,3117.0473,
339.345,3115.5285,
336.435,3112.6639,
333.524,3123.8758,
330.614,3135.7983,
327.703,3139.5,
324.793,3154.9675,
321.882,3199.5252,
318.971,3209.9334,
316.061,3234.4975,
313.150,3244.2596,
310.240,3204.9274,
307.329,3322.8444,
304.418,3331.744,
301.508,3280.1831,
298.597,3260.1918,
295.687,3257.8228,
292.776,3283.7501,
289.866,3345.5662,
286.955,3464.501,
284.044,3504.27,
281.134,3519.7217,
278.223,3534.1703,
275.313,3607.119,
272.402,3625.9854,
269.492,3622.7966,
266.581,3614.599,
263.670,3671.943,
260.760,3710.4401,
257.849,3751.8001,
254.939,3812.7123,
252.028,3848.2446,
249.117,3822.6697,
246.207,3797.5246,
243.296,3878.7807,
240.386,3813.7119,
237.475,3775.6526,
234.565,3781.8713,
231.654,3809.6259,
228.743,3804.568,
225.833,3772.7181,
222.922,3719.9948,
220.012,3752.0513,
217.101,3739.9271,
214.191,3723.0568,
211.280,3744.8807,
208.369,3763.3203,
205.459,3758.3247,
202.548,3738.3747,
199.638,3737.649,
196.727,3783.5973,
193.816,3815.3928,
190.906,3812.1507,
187.995,3859.2123,
185.085,3887.7942,
182.174,3913.6448,
179.264,3958.4563,
176.353,3996.1797,
173.442,4014.1374,
170.532,4015.8522,
167.621,4036.0395,
164.711,3973.1762,
161.800,3843.4232,
158.890,3644.0587,
155.979,3405.1215,
153.068,3112.2265,
150.158,2778.5793,
147.247,2444.0135,
144.337,2023.206,
141.426,1587.4336,
138.516,1167.3353,
135.605,846.75768,
132.694,579.60769,
129.784,369.24967,
126.873,244.81707,
123.963,172.26718,
121.052,122.90212,
118.141,88.634821,
115.231,65.051178,
112.320,52.534549,
109.410,47.681868,
106.499,43.408937,
103.589,38.578219,
100.678,33.87027,
97.767,29.604644,
94.857,30.192989,
91.946,27.275113,
89.036,21.709715,
86.125,16.745278,
83.215,12.845398,
80.304,12.654894,
77.393,19.028424,
74.483,18.18973,
71.572,14.601183,
68.662,9.4307325,
65.751,8.7242814,
62.840,9.945106,
59.930,11.687286,
57.019,12.392368,
54.109,9.5141958,
51.198,9.6112649,
48.288,14.52265,
45.377,17.336162,
42.466,16.438903,
39.556,13.154644,
36.645,11.048074,
33.735,13.615491,
30.824,14.29113,
27.914,7.2793778,
25.003,11.4811,
22.092,18.374855,
19.182,26.911892,
16.271,39.502714,
13.361,160.8224,
10.450,382.7583,
7.539,744.48565,
4.629,1042.9647,
1.718,1104.9269,
-1.192,682.45727,
-4.103,367.80979,
-7.013,138.99955,
-9.924,0.5,
