,PLA1DB~1,
Raman shift [1/cm],Intensity,
3014.167,0.375,
3011.256,0.57504295,
3008.346,452.38656,
3005.435,531.41741,
3002.525,568.60263,
2999.614,574.93995,
2996.704,591.82654,
2993.793,601.76498,
2990.882,607.88636,
2987.972,632.5213,
2985.061,653.83804,
2982.151,661.98846,
2979.240,690.82079,
2976.329,706.61271,
2973.419,740.97526,
2970.508,739.00829,
2967.598,743.52199,
2964.687,764.46467,
2961.777,793.17873,
2958.866,795.69448,
2955.955,814.375,
2953.045,825.28109,
2950.134,868.16217,
2947.224,863.05466,
2944.313,926.21759,
2941.403,921.20803,
2938.492,936.39669,
2935.581,944.26212,
2932.671,955.41794,
2929.760,955.40575,
2926.850,955.64342,
2923.939,975.92634,
2921.028,990.73368,
2918.118,994.99591,
2915.207,1002.375,
2912.297,1017.3115,
2909.386,1027.2071,
2906.476,1035.5379,
2903.565,1036.0039,
2900.654,1027.3639,
2897.744,1003.2619,
2894.833,1003.8594,
2891.923,1027.1058,
2889.012,1026.1727,
2886.102,1005.1669,
2883.191,1010.3693,
2880.280,1018.2889,
2877.370,992.59012,
2874.459,951.47586,
2871.549,1004.6515,
2868.638,1096.5646,
2865.727,1068.2404,
2862.817,1080.2333,
2859.906,1053.0331,
2856.996,1070.7822,
2854.085,1080.812,
2851.175,1081.0166,
2848.264,1062.1738,
2845.353,1084.5986,
2842.443,1053.368,
2839.532,1063.2556,
2836.622,1068.0996,
2833.711,1067.9967,
2830.801,1052.3971,
2827.890,1081.2264,
2824.979,1060.313,
2822.069,1074.4546,
2819.158,1076.8143,
2816.248,1093.2824,
2813.337,1094.5713,
2810.427,1115.426,
2807.516,1089.7492,
2804.605,1115.2668,
2801.695,1095.9408,
2798.784,1089.8925,
2795.874,1105.6547,
2792.963,1105.5891,
2790.052,1112.3729,
2787.142,1097.8619,
2784.231,1093.8595,
2781.321,1112.1864,
2778.410,1094.8509,
2775.500,1103.4777,
2772.589,1105.1066,
2769.678,1139.2623,
2766.768,1134.9672,
2763.857,1154.637,
2760.947,1159.4633,
2758.036,1183.5407,
2755.126,1151.0374,
2752.215,1165.5659,
2749.304,1195.4163,
2746.394,1182.4335,
2743.483,1190.775,
2740.573,1188.1648,
2737.662,1195.2374,
2734.751,1182.3992,
2731.841,1196.1864,
2728.930,1188.1293,
2726.020,1192.0538,
2723.109,1182.7568,
2720.199,1216.8249,
2717.288,1232.6378,
2714.377,1224.9252,
2711.467,1245.9167,
2708.556,1233.7893,
2705.646,1234.0933,
2702.735,1261.5632,
2699.825,1285.3096,
2696.914,1288.375,
2694.003,1265.1002,
2691.093,1295.2859,
2688.182,1273.8817,
2685.272,1288.3835,
2682.361,1275.6217,
2679.450,1267.3092,
2676.540,1267.0254,
2673.629,1297.3795,
2670.719,1285.7401,
2667.808,1296.5482,
2664.898,1283.4139,
2661.987,1299.9753,
2659.076,1315.6121,
2656.166,1330.9247,
2653.255,1348.8189,
2650.345,1338.6146,
2647.434,1354.1458,
2644.524,1341.5717,
2641.613,1365.5466,
2638.702,1366.4066,
2635.792,1358.8446,
2632.881,1350.0655,
2629.971,1391.9994,
2627.060,1390.0437,
2624.149,1372.9156,
2621.239,1377.6354,
2618.328,1386.2478,
2615.418,1385.6977,
2612.507,1402.1655,
2609.597,1416.6405,
2606.686,1435.4011,
2603.775,1436.6567,
2600.865,1432.4364,
2597.954,1479.1354,
2595.044,1474.7054,
2592.133,1474.1521,
2589.223,1470.7003,
2586.312,1445.3598,
2583.401,1506.5794,
2580.491,1500.0192,
2577.580,1462.4625,
2574.670,1507.9031,
2571.759,1485.0719,
2568.848,1508.7177,
2565.938,1480.7084,
2563.027,1479.8636,
2560.117,1515.4311,
2557.206,1546.6481,
2554.296,1487.9265,
2551.385,1530.0691,
2548.474,1530.3378,
2545.564,1527.375,
2542.653,1558.2911,
2539.743,1555.3257,
2536.832,1571.4572,
2533.922,1564.6746,
2531.011,1589.1495,
2528.100,1608.6398,
2525.190,1602.0975,
2522.279,1588.5777,
2519.369,1579.6198,
2516.458,1609.7178,
2513.548,1590.4391,
2510.637,1573.7113,
2507.726,1602.8174,
2504.816,1610.8778,
2501.905,1595.1,
2498.995,1604.5694,
2496.084,1628.5876,
2493.173,1633.7432,
2490.263,1633.1614,
2487.352,1651.5018,
2484.442,1686.4885,
2481.531,1700.9496,
2478.621,1675.7162,
2475.710,1685.3137,
2472.799,1684.5274,
2469.889,1697.6492,
2466.978,1707.8594,
2464.068,1697.1792,
2461.157,1700.8024,
2458.247,1715.1102,
2455.336,1731.1382,
2452.425,1709.3891,
2449.515,1717.479,
2446.604,1729.6054,
2443.694,1754.2361,
2440.783,1755.0394,
2437.872,1776.5728,
2434.962,1766.1446,
2432.051,1787.5971,
2429.141,1787.6278,
2426.230,1792.3098,
2423.320,1788.9036,
2420.409,1806.0413,
2417.498,1821.0239,
2414.588,1827.3597,
2411.677,1820.4109,
2408.767,1815.81,
2405.856,1833.1463,
2402.946,1869.3214,
2400.035,1836.9078,
2397.124,1842.4071,
2394.214,1873.8362,
2391.303,1878.1209,
2388.393,1885.5448,
2385.482,1882.7716,
2382.571,1892.3878,
2379.661,1900.398,
2376.750,1940.8971,
2373.840,1927.7064,
2370.929,1944.1151,
2368.019,1964.9532,
2365.108,1958.2834,
2362.197,1943.7777,
2359.287,1964.1316,
2356.376,1951.4067,
2353.466,1965.6454,
2350.555,1996.2149,
2347.645,2006.1763,
2344.734,2000.6146,
2341.823,2028.8278,
2338.913,1997.7108,
2336.002,1997.6117,
2333.092,2026.2599,
2330.181,2044.4466,
2327.270,2069.1649,
2324.360,2075.8962,
2321.449,2066.0519,
2318.539,2079.6747,
2315.628,2092.6776,
2312.718,2112.69,
2309.807,2110.1264,
2306.896,2122.3907,
2303.986,2118.3684,
2301.075,2122.0345,
2298.165,2113.2208,
2295.254,2130.8795,
2292.344,2156.9601,
2289.433,2130.0159,
2286.522,2139.8034,
2283.612,2153.3048,
2280.701,2170.5499,
2277.791,2191.9761,
2274.880,2220.9267,
2271.969,2261.2227,
2269.059,2237.0235,
2266.148,2235.8341,
2263.238,2258.8653,
2260.327,2272.0994,
2257.417,2303.4406,
2254.506,2316.4291,
2251.595,2273.397,
2248.685,2301.7768,
2245.774,2332.7923,
2242.864,2343.153,
2239.953,2355.7405,
2237.043,2361.5439,
2234.132,2349.6088,
2231.221,2375.3261,
2228.311,2426.0386,
2225.400,2435.4313,
2222.490,2447.9583,
2219.579,2486.8531,
2216.669,2495.2653,
2213.758,2530.1162,
2210.847,2558.9442,
2207.937,2624.8098,
2205.026,2596.7068,
2202.116,2656.9429,
2199.205,2710.0872,
2196.294,2753.5909,
2193.384,2813.216,
2190.473,2899.1614,
2187.563,3015.6747,
2184.652,3086.1105,
2181.742,3160.4918,
2178.831,3266.9822,
2175.920,3442.3678,
2173.010,3619.6324,
2170.099,3803.5581,
2167.189,4000.2909,
2164.278,4301.9117,
2161.368,4580.9384,
2158.457,4858.3653,
2155.546,5086.7348,
2152.636,5276.981,
2149.725,5503.1467,
2146.815,5709.4353,
2143.904,5736.1965,
2140.993,5810.2583,
2138.083,5859.0317,
2135.172,5790.6101,
2132.262,5763.0009,
2129.351,5634.9949,
2126.441,5419.3259,
2123.530,5202.4119,
2120.619,4916.1926,
2117.709,4680.3235,
2114.798,4379.2433,
2111.888,4136.6549,
2108.977,3882.8782,
2106.067,3629.2568,
2103.156,3472.4343,
2100.245,3301.3104,
2097.335,3198.7363,
2094.424,3175.5253,
2091.514,3076.2136,
2088.603,3014.9972,
2085.692,2964.2338,
2082.782,2952.375,
2079.871,2889.9433,
2076.961,2904.4377,
2074.050,2905.5326,
2071.140,2861.6515,
2068.229,2822.7357,
2065.318,2830.968,
2062.408,2847.7313,
2059.497,2835.7321,
2056.587,2795.1312,
2053.676,2796.6243,
2050.766,2755.9931,
2047.855,2736.6313,
2044.944,2744.4439,
2042.034,2736.716,
2039.123,2737.8363,
2036.213,2748.1639,
2033.302,2758.9617,
2030.391,2783.9001,
2027.481,2807.7407,
2024.570,2815.0607,
2021.660,2820.0794,
2018.749,2839.3995,
2015.839,2793.6795,
2012.928,2825.7425,
2010.017,2837.4532,
2007.107,2816.3021,
2004.196,2817.8989,
2001.286,2824.8733,
1998.375,2819.5502,
1995.465,2811.9357,
1992.554,2839.1747,
1989.643,2761.3129,
1986.733,2801.482,
1983.822,2803.7982,
1980.912,2803.4144,
1978.001,2801.5271,
1975.090,2804.6315,
1972.180,2800.2353,
1969.269,2815.4123,
1966.359,2833.132,
1963.448,2833.4173,
1960.538,2853.7203,
1957.627,2833.5174,
1954.716,2843.9728,
1951.806,2858.133,
1948.895,2835.7778,
1945.985,2828.2181,
1943.074,2774.2752,
1940.164,2823.0292,
1937.253,2824.6886,
1934.342,2803.9991,
1931.432,2795.8608,
1928.521,2811.1954,
1925.611,2776.4794,
1922.700,2795.1554,
1919.790,2838.103,
1916.879,2849.8868,
1913.968,2815.418,
1911.058,2842.2159,
1908.147,2876.5297,
1905.237,2838.7721,
1902.326,2831.1454,
1899.415,2811.6079,
1896.505,2834.5558,
1893.594,2844.0152,
1890.684,2850.3161,
1887.773,2855.8666,
1884.863,2858.6666,
1881.952,2839.6602,
1879.041,2868.7125,
1876.131,2910.6926,
1873.220,2846.7685,
1870.310,2831.7338,
1867.399,2826.455,
1864.489,2862.5572,
1861.578,2846.3912,
1858.667,2889.0426,
1855.757,2911.1721,
1852.846,2902.5648,
1849.936,2895.4891,
1847.025,2962.4918,
1844.114,2956.3161,
1841.204,2965.7316,
1838.293,2978.4033,
1835.383,2962.468,
1832.472,2987.0967,
1829.562,2991.8766,
1826.651,2977.8534,
1823.740,2997.6701,
1820.830,3019.4932,
1817.919,3002.2012,
1815.009,3044.4679,
1812.098,3027.2412,
1809.188,3073.1501,
1806.277,3061.707,
1803.366,3076.9739,
1800.456,3107.264,
1797.545,3021.4955,
1794.635,3050.1151,
1791.724,3105.0157,
1788.813,3127.1863,
1785.903,3157.2161,
1782.992,3152.4466,
1780.082,3176.0359,
1777.171,3144.3696,
1774.261,3147.0055,
1771.350,3189.9368,
1768.439,3214.101,
1765.529,3234.8287,
1762.618,3202.8031,
1759.708,3217.2885,
1756.797,3266.9811,
1753.887,3280.5805,
1750.976,3297.7578,
1748.065,3292.8573,
1745.155,3272.8783,
1742.244,3272.3342,
1739.334,3332.2056,
1736.423,3370.3862,
1733.512,3390.6555,
1730.602,3413.5794,
1727.691,3430.8899,
1724.781,3513.0327,
1721.870,3501.3796,
1718.960,3538.5978,
1716.049,3539.9853,
1713.138,3525.5501,
1710.228,3539.9106,
1707.317,3554.759,
1704.407,3557.2734,
1701.496,3664.0261,
1698.586,3663.2872,
1695.675,3690.4463,
1692.764,3792.7275,
1689.854,3772.5443,
1686.943,3830.3177,
1684.033,3846.0273,
1681.122,3949.5908,
1678.211,4014.7659,
1675.301,4051.264,
1672.390,4126.4647,
1669.480,4157.6184,
1666.569,4312.7589,
1663.659,4421.8122,
1660.748,4512.3663,
1657.837,4716.4904,
1654.927,4768.9522,
1652.016,4878.1731,
1649.106,4953.4596,
1646.195,5079.0843,
1643.285,5192.36,
1640.374,5323.929,
1637.463,5494.3202,
1634.553,5712.4784,
1631.642,5922.5889,
1628.732,6216.8149,
1625.821,6458.6014,
1622.911,6802.4252,
1620.000,7151.9403,
1617.089,7432.763,
1614.179,7816.4048,
1611.268,8253.9052,
1608.358,8614.4719,
1605.447,8903.8629,
1602.536,9179.4396,
1599.626,9265.5301,
1596.715,9310.4019,
1593.805,9385.0272,
1590.894,9385.449,
1587.984,9341.0704,
1585.073,9252.6966,
1582.162,9107.2979,
1579.252,8964.3579,
1576.341,8908.7357,
1573.431,8826.9735,
1570.520,8708.5347,
1567.610,8614.2956,
1564.699,8496.6711,
1561.788,8360.376,
1558.878,8223.4709,
1555.967,8108.0232,
1553.057,7988.4448,
1550.146,7889.7533,
1547.235,7735.1774,
1544.325,7553.1035,
1541.414,7455.1525,
1538.504,7388.1052,
1535.593,7310.7517,
1532.683,7229.5168,
1529.772,7161.4377,
1526.861,7159.6635,
1523.951,7164.4844,
1521.040,7164.5212,
1518.130,7209.9115,
1515.219,7189.3745,
1512.309,7210.8435,
1509.398,7229.7532,
1506.487,7271.7838,
1503.577,7320.5829,
1500.666,7307.9566,
1497.756,7334.6968,
1494.845,7313.0543,
1491.934,7281.6364,
1489.024,7361.5233,
1486.113,7444.1155,
1483.203,7383.7624,
1480.292,7331.2524,
1477.382,7157.6841,
1474.471,7041.6371,
1471.560,7014.7467,
1468.650,7020.891,
1465.739,7108.9197,
1462.829,7225.6058,
1459.918,7374.5858,
1457.008,7507.6372,
1454.097,7496.2945,
1451.186,7378.551,
1448.276,7187.7703,
1445.365,6915.2929,
1442.455,6727.8846,
1439.544,6542.3131,
1436.633,6413.382,
1433.723,6289.767,
1430.812,6243.0606,
1427.902,6151.1946,
1424.991,6143.6125,
1422.081,6125.0255,
1419.170,6003.2706,
1416.259,5943.0618,
1413.349,5865.4033,
1410.438,5876.2646,
1407.528,5902.6061,
1404.617,5950.474,
1401.707,6011.7014,
1398.796,6056.8959,
1395.885,6078.2687,
1392.975,6079.1874,
1390.064,6026.2855,
1387.154,5868.7458,
1384.243,5700.6468,
1381.332,5599.2523,
1378.422,5640.9241,
1375.511,6000.648,
1372.601,6209.1205,
1369.690,6361.8161,
1366.780,6481.7953,
1363.869,6574.2109,
1360.958,6700.3881,
1358.048,6803.9931,
1355.137,6934.5238,
1352.227,7046.4536,
1349.316,7117.4244,
1346.406,7188.0385,
1343.495,7238.2566,
1340.584,7357.8738,
1337.674,7441.9126,
1334.763,7473.104,
1331.853,7518.5383,
1328.942,7571.9639,
1326.032,7619.9717,
1323.121,7666.4232,
1320.210,7757.9536,
1317.300,7892.4024,
1314.389,8077.0857,
1311.479,8302.5295,
1308.568,8553.9772,
1305.657,8831.7195,
1302.747,9087.0641,
1299.836,9218.788,
1296.926,9410.5797,
1294.015,9479.5289,
1291.105,9615.3368,
1288.194,9669.3184,
1285.283,9737.8033,
1282.373,9814.5311,
1279.462,9927.7264,
1276.552,10073.423,
1273.641,10177.041,
1270.731,10183.203,
1267.820,10137.727,
1264.909,10111.166,
1261.999,10095.717,
1259.088,9913.2932,
1256.178,9736.2225,
1253.267,9583.3221,
1250.356,9466.1363,
1247.446,9329.8048,
1244.535,9122.1209,
1241.625,8873.1827,
1238.714,8643.3186,
1235.804,8435.5113,
1232.893,8233.8943,
1229.982,8138.9544,
1227.072,7919.8688,
1224.161,7737.1148,
1221.251,7565.4073,
1218.340,7383.2779,
1215.430,7285.0504,
1212.519,7186.5004,
1209.608,7081.035,
1206.698,7056.0345,
1203.787,7042.2845,
1200.877,7041.557,
1197.966,7125.1789,
1195.055,7370.8444,
1192.145,7556.6329,
1189.234,7751.0021,
1186.324,7999.4821,
1183.413,8226.4919,
1180.503,8298.9514,
1177.592,8194.849,
1174.681,8058.3579,
1171.771,7856.3969,
1168.860,7770.6603,
1165.950,7642.2379,
1163.039,7537.9475,
1160.129,7534.2779,
1157.218,7683.693,
1154.307,7848.9757,
1151.397,7922.0924,
1148.486,8044.1389,
1145.576,8255.137,
1142.665,8180.5523,
1139.754,8142.6435,
1136.844,8000.2165,
1133.933,7869.0617,
1131.023,7814.0703,
1128.112,7743.599,
1125.202,7619.5103,
1122.291,7606.4976,
1119.380,7600.3404,
1116.470,7596.8102,
1113.559,7620.3457,
1110.649,7562.5453,
1107.738,7451.753,
1104.828,7310.8932,
1101.917,7151.9348,
1099.006,7001.5199,
1096.096,6897.3546,
1093.185,6799.0183,
1090.275,6807.5604,
1087.364,6805.886,
1084.453,6878.7452,
1081.543,6986.0175,
1078.632,7071.8796,
1075.722,7128.8288,
1072.811,7152.4991,
1069.901,7154.2456,
1066.990,7131.7417,
1064.079,7201.912,
1061.169,7204.7892,
1058.258,7152.5424,
1055.348,7107.9683,
1052.437,7059.4648,
1049.527,6926.4351,
1046.616,6902.1079,
1043.705,6866.2321,
1040.795,6836.5814,
1037.884,6793.0078,
1034.974,6778.134,
1032.063,6811.1441,
1029.153,6830.2179,
1026.242,6862.2213,
1023.331,6907.5388,
1020.421,7055.0982,
1017.510,7210.6219,
1014.600,7388.147,
1011.689,7564.0088,
1008.778,7667.7429,
1005.868,7753.0121,
1002.957,7935.4072,
1000.047,8078.399,
997.136,8243.5387,
994.226,8261.5607,
991.315,8111.6127,
988.404,7921.0045,
985.494,7710.2652,
982.583,7616.044,
979.673,7526.2838,
976.762,7487.8072,
973.852,7487.0052,
970.941,7501.0062,
968.030,7513.7738,
965.120,7510.7008,
962.209,7588.2821,
959.299,7548.9646,
956.388,7575.5319,
953.477,7643.791,
950.567,7684.4993,
947.656,7682.5026,
944.746,7729.2282,
941.835,7703.8413,
938.925,7719.0907,
936.014,7695.9788,
933.103,7644.7203,
930.193,7603.5857,
927.282,7562.0048,
924.372,7444.4655,
921.461,7285.7769,
918.551,7180.3482,
915.640,7108.6543,
912.729,7041.2964,
909.819,6970.3683,
906.908,6909.7137,
903.998,6950.12,
901.087,6990.6543,
898.176,7052.7085,
895.266,7082.6963,
892.355,7067.3893,
889.445,7211.7432,
886.534,7322.5781,
883.624,7408.9669,
880.713,7466.9135,
877.802,7485.7746,
874.892,7482.5673,
871.981,7522.724,
869.071,7495.1554,
866.160,7487.6152,
863.250,7472.2215,
860.339,7488.7289,
857.428,7521.6702,
854.518,7439.8675,
851.607,7491.4557,
848.697,7515.507,
845.786,7542.0957,
842.875,7570.1624,
839.965,7608.4921,
837.054,7701.0542,
834.144,7761.5531,
831.233,7809.3724,
828.323,7847.1579,
825.412,7884.439,
822.501,7917.3962,
819.591,7900.8682,
816.680,7829.0608,
813.770,7723.0381,
810.859,7642.3981,
807.949,7577.5066,
805.038,7492.1936,
802.127,7457.6222,
799.217,7440.2126,
796.306,7340.5905,
793.396,7275.3827,
790.485,7263.4217,
787.574,7178.5582,
784.664,7209.7225,
781.753,7156.3284,
778.843,7171.4824,
775.932,7241.4487,
773.022,7310.8443,
770.111,7410.5888,
767.200,7482.0866,
764.290,7446.8987,
761.379,7407.5566,
758.469,7410.4213,
755.558,7409.9257,
752.648,7260.8533,
749.737,7158.9154,
746.826,7057.9014,
743.916,6930.53,
741.005,6742.54,
738.095,6354.4629,
735.184,5858.6024,
732.274,5731.4388,
729.363,6068.5419,
726.452,6689.6136,
723.542,6956.7134,
720.631,7050.1225,
717.721,7069.2194,
714.810,7073.3693,
711.899,7084.87,
708.989,7078.4146,
706.078,7100.0102,
703.168,7106.5894,
700.257,7087.5715,
697.347,7042.6376,
694.436,6981.2184,
691.525,6938.6168,
688.615,6963.3362,
685.704,6981.6482,
682.794,6986.3962,
679.883,7010.4563,
676.973,7034.4974,
674.062,7084.6788,
671.151,7120.4566,
668.241,7132.1838,
665.330,7130.6061,
662.420,7177.7313,
659.509,7278.1701,
656.598,7319.1235,
653.688,7299.7741,
650.777,7285.0771,
647.867,7305.7816,
644.956,7295.5154,
642.046,7280.5706,
639.135,7275.7287,
636.224,7288.745,
633.314,7362.5813,
630.403,7389.0607,
627.493,7361.3446,
624.582,7316.3207,
621.672,7351.9604,
618.761,7349.5753,
615.850,7361.5987,
612.940,7390.8179,
610.029,7432.6881,
607.119,7470.5904,
604.208,7516.2658,
601.297,7570.2653,
598.387,7611.1012,
595.476,7620.2264,
592.566,7618.6523,
589.655,7565.248,
586.745,7505.5632,
583.834,7466.9121,
580.923,7472.7115,
578.013,7528.4276,
575.102,7672.4324,
572.192,7804.4607,
569.281,7884.5598,
566.371,7969.0832,
563.460,8074.7296,
560.549,8098.8075,
557.639,8111.4541,
554.728,8191.552,
551.818,8162.6803,
548.907,8248.3964,
545.996,8338.0894,
543.086,8365.4047,
540.175,8268.0739,
537.265,8324.3873,
534.354,8336.3344,
531.444,8347.5036,
528.533,8406.9335,
525.622,8400.726,
522.712,8406.0493,
519.801,8455.4369,
516.891,8536.0437,
513.980,8573.9842,
511.070,8597.0967,
508.159,8661.7278,
505.248,8728.3822,
502.338,8746.7412,
499.427,8861.7442,
496.517,8965.9103,
493.606,9026.4129,
490.695,9038.5474,
487.785,9068.5692,
484.874,8999.0593,
481.964,9023.5737,
479.053,9087.4286,
476.143,8970.6983,
473.232,8979.9213,
470.321,9005.8381,
467.411,9019.0305,
464.500,8998.7713,
461.590,9053.9046,
458.679,9066.0732,
455.769,9073.4571,
452.858,9099.988,
449.947,9144.296,
447.037,9124.2505,
444.126,9093.175,
441.216,9081.8998,
438.305,9136.7588,
435.395,9105.6924,
432.484,9088.2923,
429.573,9090.7775,
426.663,9083.9362,
423.752,9155.9066,
420.842,9236.6971,
417.931,9328.1263,
415.020,9443.3967,
412.110,9501.5144,
409.199,9566.3627,
406.289,9613.375,
403.378,9613.1675,
400.468,9551.932,
397.557,9463.9931,
394.646,9361.6666,
391.736,9252.6144,
388.825,9041.4297,
385.915,8949.04,
383.004,8951.5004,
380.094,9031.3618,
377.183,9168.3125,
374.272,9335.5567,
371.362,9484.9922,
368.451,9585.384,
365.541,9634.9194,
362.630,9646.19,
359.719,9652.9581,
356.809,9673.2391,
353.898,9670.9927,
350.988,9719.1988,
348.077,9729.5917,
345.167,9659.0295,
342.256,9750.9189,
339.345,9809.7924,
336.435,9861.1376,
333.524,9923.7573,
330.614,10031.06,
327.703,10109.041,
324.793,10176.896,
321.882,10250.737,
318.971,10400.169,
316.061,10545.62,
313.150,10676.015,
310.240,10777.685,
307.329,10815.678,
304.418,10857.644,
301.508,10873.258,
298.597,10805.14,
295.687,10745.196,
292.776,10780.625,
289.866,10980.496,
286.955,11521.982,
284.044,12021.885,
281.134,12452.889,
278.223,12818.062,
275.313,13157.752,
272.402,13519.827,
269.492,13843.125,
266.581,14114.02,
263.670,14472.788,
260.760,14791.075,
257.849,15054.355,
254.939,15245.898,
252.028,15443.813,
249.117,15542.587,
246.207,15577.436,
243.296,15600.861,
240.386,15571.378,
237.475,15514.804,
234.565,15442.402,
231.654,15385.432,
228.743,15279.59,
225.833,15189.642,
222.922,15136.599,
220.012,15012.745,
217.101,14991.022,
214.191,14988.3,
211.280,14914.827,
208.369,14885.827,
205.459,14867.987,
202.548,14847.971,
199.638,14787.742,
196.727,14872.179,
193.816,14927.722,
190.906,14892.01,
187.995,14910.11,
185.085,14980.683,
182.174,15071.18,
179.264,15140.565,
176.353,15207.327,
173.442,15208.47,
170.532,15154.979,
167.621,15177.329,
164.711,14918.489,
161.800,14493.823,
158.890,13950.428,
155.979,13052.052,
153.068,11946.081,
150.158,10657.171,
147.247,9198.2924,
144.337,7595.2657,
141.426,5977.5133,
138.516,4402.5032,
135.605,3180.165,
132.694,2193.8684,
129.784,1433.3248,
126.873,945.60629,
123.963,660.28907,
121.052,461.30071,
118.141,314.9508,
115.231,253.97652,
112.320,202.68594,
109.410,162.82976,
106.499,144.31373,
103.589,142.05576,
100.678,132.78175,
97.767,105.05519,
94.857,98.831088,
91.946,95.165667,
89.036,91.455736,
86.125,79.399246,
83.215,76.375,
80.304,73.262375,
77.393,64.056166,
74.483,64.68527,
71.572,62.113831,
68.662,56.305733,
65.751,55.599281,
62.840,51.521384,
59.930,48.311431,
57.019,51.836841,
54.109,50.583517,
51.198,48.470172,
48.288,46.341025,
45.377,42.120757,
42.466,38.313903,
39.556,34.684289,
36.645,30.471147,
33.735,33.528988,
30.824,37.816774,
27.914,39.219124,
25.003,35.016538,
22.092,37.541473,
19.182,48.85554,
16.271,63.544833,
13.361,165.46742,
10.450,391.84415,
7.539,940.72003,
4.629,1452.5474,
1.718,1705.1508,
-1.192,1401.1957,
-4.103,872.59339,
-7.013,387.64258,
-9.924,1.375,
