,PL6F19~1,
Wavenumbers [1/cm],Intensity,
3014.167,-5,
3011.256,2.9498819,
3008.346,110.59071,
3005.435,124.77032,
3002.525,126.03747,
2999.614,146.28701,
2996.704,154.90309,
2993.793,138.61924,
2990.882,140.74047,
2987.972,148.00504,
2985.061,146.78325,
2982.151,158.09077,
2979.240,168.59694,
2976.329,185,
2973.419,176.13812,
2970.508,190.61666,
2967.598,181.43012,
2964.687,190.47758,
2961.777,196.43595,
2958.866,193.33284,
2955.955,189.44691,
2953.045,209.63311,
2950.134,211.03208,
2947.224,222.17081,
2944.313,225.75285,
2941.403,223,
2938.492,218.01085,
2935.581,221.59141,
2932.671,215.76398,
2929.760,233.32692,
2926.850,224.36579,
2923.939,242.35981,
2921.028,245.31179,
2918.118,265.11838,
2915.207,249.64554,
2912.297,251.98307,
2909.386,253.9927,
2906.476,273.573,
2903.565,260.75927,
2900.654,251.39938,
2897.744,278.88685,
2894.833,253.91782,
2891.923,256.13791,
2889.012,266.54335,
2886.102,266.43648,
2883.191,300.97074,
2880.280,318.66986,
2877.370,331.35464,
2874.459,365.37082,
2871.549,293.3154,
2868.638,291.91132,
2865.727,301.1808,
2862.817,269.59895,
2859.906,288.84899,
2856.996,309.50679,
2854.085,282.47264,
2851.175,282.66864,
2848.264,279.51451,
2845.353,296.82746,
2842.443,281.01393,
2839.532,281.41783,
2836.622,274.75846,
2833.711,281.10361,
2830.801,284.79853,
2827.890,272.45804,
2824.979,274.20998,
2822.069,274.36391,
2819.158,303.71967,
2816.248,293.27605,
2813.337,314.4122,
2810.427,292.91874,
2807.516,303.20125,
2804.605,317.73076,
2801.695,308.39474,
2798.784,319.33469,
2795.874,292.99472,
2792.963,303.78585,
2790.052,286.0045,
2787.142,299.90796,
2784.231,296.3556,
2781.321,301.06286,
2778.410,303.24492,
2775.500,313.42448,
2772.589,292.07797,
2769.678,319.13988,
2766.768,328.75339,
2763.857,324.21002,
2760.947,326.03783,
2758.036,333.69428,
2755.126,333.19017,
2752.215,326.02263,
2749.304,338.19063,
2746.394,313.29228,
2743.483,323.10004,
2740.573,321.2102,
2737.662,337.09616,
2734.751,332.0242,
2731.841,321.72893,
2728.930,340.428,
2726.020,339.44907,
2723.109,333.24758,
2720.199,344.41256,
2717.288,335.5438,
2714.377,336.87082,
2711.467,350.39341,
2708.556,356.1701,
2705.646,360,
2702.735,367.49742,
2699.825,354.23996,
2696.914,360.81002,
2694.003,372.28455,
2691.093,371.62456,
2688.182,358.47259,
2685.272,377.76956,
2682.361,356.33515,
2679.450,360.87655,
2676.540,360.28454,
2673.629,369.68612,
2670.719,370.63494,
2667.808,375.04864,
2664.898,370.51945,
2661.987,381.06684,
2659.076,376.65303,
2656.166,376.54972,
2653.255,385.78061,
2650.345,373.29583,
2647.434,402,
2644.524,401.22781,
2641.613,391.08548,
2638.702,390.93688,
2635.792,388.72182,
2632.881,381.16639,
2629.971,387.76507,
2627.060,390.83468,
2624.149,386.89062,
2621.239,402.51482,
2618.328,396.69549,
2615.418,427.03635,
2612.507,417.20551,
2609.597,415.5509,
2606.686,386.8434,
2603.775,417.72223,
2600.865,412.00337,
2597.954,401.57497,
2595.044,421.58991,
2592.133,432.88529,
2589.223,433.4579,
2586.312,426.10046,
2583.401,442.40875,
2580.491,441.6298,
2577.580,462.96864,
2574.670,443.72326,
2571.759,440.79795,
2568.848,452.17134,
2565.938,450.4763,
2563.027,439.29316,
2560.117,449.44861,
2557.206,457.42435,
2554.296,435.77574,
2551.385,451.37197,
2548.474,471.22268,
2545.564,457.75973,
2542.653,464.98994,
2539.743,453.51848,
2536.832,453.51028,
2533.922,461.18923,
2531.011,473,
2528.100,474.59931,
2525.190,487.06803,
2522.279,479.56278,
2519.369,487.67945,
2516.458,482.77974,
2513.548,481.76368,
2510.637,488.06148,
2507.726,476.19699,
2504.816,461.5017,
2501.905,493.10122,
2498.995,493.70141,
2496.084,487.16027,
2493.173,482.44735,
2490.263,499.55031,
2487.352,508.1252,
2484.442,518.97428,
2481.531,517.40979,
2478.621,512.58773,
2475.710,493.2377,
2472.799,517.58752,
2469.889,519.32968,
2466.978,546.32986,
2464.068,546.08465,
2461.157,525.65253,
2458.247,522.55885,
2455.336,539.84933,
2452.425,555.9151,
2449.515,530.55719,
2446.604,546.83417,
2443.694,530,
2440.783,549.43243,
2437.872,528.80223,
2434.962,548.42397,
2432.051,540.09869,
2429.141,550.94687,
2426.230,561.67404,
2423.320,563.21439,
2420.409,563.16018,
2417.498,569.40168,
2414.588,550.1978,
2411.677,583.88839,
2408.767,558.04724,
2405.856,572.81427,
2402.946,583.52994,
2400.035,547.44128,
2397.124,581.14437,
2394.214,593.34841,
2391.303,582.54132,
2388.393,580.32322,
2385.482,586.47126,
2382.571,596.05124,
2379.661,577.11626,
2376.750,589.99747,
2373.840,610.54994,
2370.929,602.12996,
2368.019,604.10901,
2365.108,593.97644,
2362.197,598.79179,
2359.287,611.97493,
2356.376,621.98767,
2353.466,619.6216,
2350.555,613.60499,
2347.645,621.88078,
2344.734,637.45624,
2341.823,649.83417,
2338.913,632.75671,
2336.002,628.48324,
2333.092,630.43679,
2330.181,638.29921,
2327.270,636.27503,
2324.360,662.71465,
2321.449,645.09183,
2318.539,652.78902,
2315.628,680.64629,
2312.718,656.08589,
2309.807,648.29795,
2306.896,664.74022,
2303.986,653.16876,
2301.075,654.10634,
2298.165,655.41336,
2295.254,662.80611,
2292.344,680.42747,
2289.433,665.06955,
2286.522,686.08033,
2283.612,689,
2280.701,692.46188,
2277.791,701.76142,
2274.880,722.35396,
2271.969,719.78189,
2269.059,700.32425,
2266.148,723.80467,
2263.238,695.21624,
2260.327,710.41385,
2257.417,716.71167,
2254.506,721.42736,
2251.595,726.14181,
2248.685,747.623,
2245.774,746.89025,
2242.864,744.80549,
2239.953,744.95857,
2237.043,745.64858,
2234.132,737.05711,
2231.221,748.39538,
2228.311,762.30798,
2225.400,773.97185,
2222.490,771.14328,
2219.579,758.21334,
2216.669,763.92846,
2213.758,775.73856,
2210.847,784.47858,
2207.937,782.20359,
2205.026,792.44402,
2202.116,802.95117,
2199.205,808.24941,
2196.294,821.686,
2193.384,823,
2190.473,790.39671,
2187.563,850.86466,
2184.652,826.91591,
2181.742,848.70451,
2178.831,855.03505,
2175.920,879.15484,
2173.010,900.15079,
2170.099,948.19496,
2167.189,928.22962,
2164.278,966.30955,
2161.368,1017.284,
2158.457,1065.2852,
2155.546,1099.3779,
2152.636,1149.2339,
2149.725,1177.4832,
2146.815,1221.5651,
2143.904,1245.0967,
2140.993,1246.5449,
2138.083,1289.6717,
2135.172,1286.2015,
2132.262,1308.941,
2129.351,1323.4068,
2126.441,1297.7961,
2123.530,1285.7082,
2120.619,1252.5691,
2117.709,1192.2882,
2114.798,1142.7345,
2111.888,1095.7888,
2108.977,1048.2914,
2106.067,1030.933,
2103.156,1005.2445,
2100.245,969.98494,
2097.335,944.79581,
2094.424,940.06894,
2091.514,941.20151,
2088.603,917.62674,
2085.692,918.54645,
2082.782,920.29318,
2079.871,920.82147,
2076.961,942.51471,
2074.050,938.09697,
2071.140,934.52917,
2068.229,908.72135,
2065.318,913.7035,
2062.408,917.87896,
2059.497,888.72613,
2056.587,884.56943,
2053.676,918.31512,
2050.766,890.7713,
2047.855,903.71844,
2044.944,870.50798,
2042.034,933.54906,
2039.123,911.57913,
2036.213,921.13119,
2033.302,920.08732,
2030.391,918.03341,
2027.481,937.67064,
2024.570,937.62866,
2021.660,951.11306,
2018.749,930.35416,
2015.839,919.38058,
2012.928,944.5755,
2010.017,928.25843,
2007.107,953.71961,
2004.196,941.92856,
2001.286,960.75261,
1998.375,952.73227,
1995.465,921.76161,
1992.554,911.61768,
1989.643,958.30638,
1986.733,943.87631,
1983.822,925.69276,
1980.912,931.90066,
1978.001,920.8219,
1975.090,935.76642,
1972.180,946.58644,
1969.269,930.97984,
1966.359,928.78388,
1963.448,941.76619,
1960.538,940.13094,
1957.627,957.72447,
1954.716,962.91382,
1951.806,940.43423,
1948.895,977.81795,
1945.985,922.55719,
1943.074,948.91518,
1940.164,937.08645,
1937.253,923.54362,
1934.342,918.52994,
1931.432,938.74133,
1928.521,945.15544,
1925.611,933.35074,
1922.700,916.54558,
1919.790,945.72795,
1916.879,917.51098,
1913.968,963.93975,
1911.058,967.46246,
1908.147,973.33576,
1905.237,965.82351,
1902.326,950.36297,
1899.415,944.3122,
1896.505,963.83755,
1893.594,990.45427,
1890.684,986.35297,
1887.773,983.15514,
1884.863,982.72437,
1881.952,980.60501,
1879.041,988.32139,
1876.131,973.08367,
1873.220,959.41147,
1870.310,952.4305,
1867.399,984.47221,
1864.489,1000.1432,
1861.578,979.2802,
1858.667,980.09283,
1855.757,971.98926,
1852.846,983.24616,
1849.936,987.65064,
1847.025,1015.3479,
1844.114,1017.4799,
1841.204,1003.2378,
1838.293,1012.5175,
1835.383,988.33751,
1832.472,1003.687,
1829.562,1029.6656,
1826.651,1049.0431,
1823.740,1032.7049,
1820.830,1038.6615,
1817.919,1058.4732,
1815.009,1044.8753,
1812.098,1077.0079,
1809.188,1075.3721,
1806.277,1042.7304,
1803.366,1057.4991,
1800.456,1087.9892,
1797.545,1098.9152,
1794.635,1043.6441,
1791.724,1074.6699,
1788.813,1080.6098,
1785.903,1113.1105,
1782.992,1123.2191,
1780.082,1139.2303,
1777.171,1158.3346,
1774.261,1138.9095,
1771.350,1133.409,
1768.439,1155.8039,
1765.529,1121.4565,
1762.618,1133.0337,
1759.708,1140.174,
1756.797,1153.9167,
1753.887,1147.1531,
1750.976,1118.5412,
1748.065,1154.1551,
1745.155,1158.1744,
1742.244,1158.2291,
1739.334,1169.4235,
1736.423,1171.7065,
1733.512,1161.813,
1730.602,1190.1647,
1727.691,1220.1915,
1724.781,1203.9759,
1721.870,1206.0477,
1718.960,1231.0225,
1716.049,1230.9662,
1713.138,1202.6401,
1710.228,1217.1465,
1707.317,1242.9989,
1704.407,1247.7968,
1701.496,1278.9926,
1698.586,1232.1048,
1695.675,1224.2572,
1692.764,1276.0697,
1689.854,1279,
1686.943,1296.3929,
1684.033,1265.7948,
1681.122,1343.6406,
1678.211,1313.3046,
1675.301,1313,
1672.390,1381.9821,
1669.480,1376.1203,
1666.569,1391.6602,
1663.659,1442.6244,
1660.748,1420.8291,
1657.837,1462.7376,
1654.927,1451.9606,
1652.016,1491.757,
1649.106,1482.7834,
1646.195,1515.055,
1643.285,1557.7493,
1640.374,1547.8989,
1637.463,1590.9187,
1634.553,1641.7389,
1631.642,1691.1412,
1628.732,1704.1778,
1625.821,1734.0713,
1622.911,1842.3858,
1620.000,1923.9669,
1617.089,2015.1691,
1614.179,2141.3903,
1611.268,2222.0258,
1608.358,2318.4113,
1605.447,2440.8581,
1602.536,2499.2538,
1599.626,2562.7956,
1596.715,2532.6036,
1593.805,2447.6158,
1590.894,2467.9428,
1587.984,2424.3649,
1585.073,2437.4196,
1582.162,2397.5859,
1579.252,2342.3568,
1576.341,2267.9149,
1573.431,2276.2784,
1570.520,2279.1781,
1567.610,2261.6076,
1564.699,2236.4242,
1561.788,2177.592,
1558.878,2186.7243,
1555.967,2185.144,
1553.057,2160.414,
1550.146,2151,
1547.235,2140.9645,
1544.325,2083.1021,
1541.414,2034.279,
1538.504,2017.2654,
1535.593,1982.2197,
1532.683,1984.7794,
1529.772,1982.6193,
1526.861,1950.1048,
1523.951,1944.946,
1521.040,1883.1209,
1518.130,1863.6378,
1515.219,1861.5594,
1512.309,1877.036,
1509.398,1865.4297,
1506.487,1869.7164,
1503.577,1877.4445,
1500.666,1847.3065,
1497.756,1819.6782,
1494.845,1840.8805,
1491.934,1861.9465,
1489.024,1845.5841,
1486.113,1794.0031,
1483.203,1783.7828,
1480.292,1784.697,
1477.382,1758.3278,
1474.471,1716.7006,
1471.560,1748.0886,
1468.650,1774.2491,
1465.739,1723.2774,
1462.829,1724.825,
1459.918,1744.2375,
1457.008,1751.1386,
1454.097,1718.8679,
1451.186,1682.2282,
1448.276,1696.1552,
1445.365,1693.643,
1442.455,1695.5466,
1439.544,1695.8783,
1436.633,1696.8937,
1433.723,1720.2492,
1430.812,1720.1529,
1427.902,1696.4363,
1424.991,1672.7422,
1422.081,1692.1845,
1419.170,1729.4265,
1416.259,1692.8767,
1413.349,1677.7133,
1410.438,1687.1965,
1407.528,1726.7621,
1404.617,1663.2149,
1401.707,1638.9162,
1398.796,1704.402,
1395.885,1732.0117,
1392.975,1727.0422,
1390.064,1747.8228,
1387.154,1740.3268,
1384.243,1732.7601,
1381.332,1771.4386,
1378.422,1782.6619,
1375.511,1776.1044,
1372.601,1841.4315,
1369.690,1855.5722,
1366.780,1856.208,
1363.869,1901.0416,
1360.958,1954.3119,
1358.048,2003.2589,
1355.137,2040.8219,
1352.227,2062.4053,
1349.316,2098.3845,
1346.406,2135.6558,
1343.495,2119.2526,
1340.584,2135.7487,
1337.674,2228.8609,
1334.763,2285.6119,
1331.853,2275.4123,
1328.942,2299.905,
1326.032,2297.2907,
1323.121,2348.6085,
1320.210,2375.657,
1317.300,2409.5116,
1314.389,2447.9865,
1311.479,2510.8734,
1308.568,2561.7386,
1305.657,2572.0052,
1302.747,2652.5796,
1299.836,2720.0885,
1296.926,2739.6575,
1294.015,2839.8637,
1291.105,2817.5837,
1288.194,2877.1007,
1285.283,2981.0684,
1282.373,3012.2031,
1279.462,3021.5292,
1276.552,3071.8821,
1273.641,3139.4987,
1270.731,3197.9926,
1267.820,3248.8595,
1264.909,3213.6373,
1261.999,3209.8682,
1259.088,3178.8561,
1256.178,3169.2919,
1253.267,3070.5662,
1250.356,2986.1424,
1247.446,2961.1735,
1244.535,2939.701,
1241.625,2883.4927,
1238.714,2802.8638,
1235.804,2738.8058,
1232.893,2749.2604,
1229.982,2698.1977,
1227.072,2585.939,
1224.161,2614.1417,
1221.251,2556.9722,
1218.340,2536.2956,
1215.430,2489.654,
1212.519,2470.9214,
1209.608,2487.2037,
1206.698,2464.5743,
1203.787,2440.1558,
1200.877,2446.6835,
1197.966,2538.3978,
1195.055,2554.0922,
1192.145,2630.383,
1189.234,2703.0106,
1186.324,2724.0904,
1183.413,2739.4315,
1180.503,2741.7411,
1177.592,2688.0099,
1174.681,2657.2808,
1171.771,2672.3406,
1168.860,2643.7618,
1165.950,2591.0101,
1163.039,2581.0952,
1160.129,2605.0043,
1157.218,2600.8091,
1154.307,2582.7103,
1151.397,2576.7481,
1148.486,2546.0461,
1145.576,2569.1542,
1142.665,2572.7058,
1139.754,2544.523,
1136.844,2507.887,
1133.933,2507.3166,
1131.023,2525.914,
1128.112,2539.1425,
1125.202,2552.6618,
1122.291,2585.3814,
1119.380,2601.9047,
1116.470,2592.1969,
1113.559,2622.7032,
1110.649,2648.3711,
1107.738,2655.3925,
1104.828,2645.2619,
1101.917,2626.4908,
1099.006,2604.1651,
1096.096,2574.0426,
1093.185,2607.4067,
1090.275,2602.7166,
1087.364,2603.7445,
1084.453,2608.3748,
1081.543,2633.3493,
1078.632,2651.9714,
1075.722,2634.1373,
1072.811,2652.5585,
1069.901,2660.4178,
1066.990,2693.3333,
1064.079,2708.4857,
1061.169,2728.0167,
1058.258,2735.4947,
1055.348,2737.7006,
1052.437,2766.5756,
1049.527,2794.5972,
1046.616,2784.1713,
1043.705,2778.3754,
1040.795,2770.615,
1037.884,2777.1148,
1034.974,2776.5722,
1032.063,2769.4919,
1029.153,2799.6764,
1026.242,2771.9978,
1023.331,2822.6634,
1020.421,2852.5188,
1017.510,2873.3261,
1014.600,2899.0713,
1011.689,2933.8282,
1008.778,2974.6501,
1005.868,3024.9846,
1002.957,3023.2638,
1000.047,3124.192,
997.136,3214.272,
994.226,3235.831,
991.315,3201.1683,
988.404,3155.4343,
985.494,3105.1944,
982.583,3069.2191,
979.673,3088.1443,
976.762,3075.2772,
973.852,3087.4046,
970.941,3108.6629,
968.030,3081.5087,
965.120,3107.0072,
962.209,3108.7122,
959.299,3104.7505,
956.388,3125.3986,
953.477,3141.7669,
950.567,3146.5356,
947.656,3159.2066,
944.746,3115.0297,
941.835,3153.4907,
938.925,3139.9682,
936.014,3151.7738,
933.103,3162.6417,
930.193,3133.6078,
927.282,3107.8625,
924.372,3105.3257,
921.461,3097.636,
918.551,3046.7825,
915.640,3014.9746,
912.729,3001.2885,
909.819,2953.4448,
906.908,2956.8145,
903.998,2946.6603,
901.087,2965.0047,
898.176,2988.4527,
895.266,3015.6004,
892.355,3052.9683,
889.445,3084.8604,
886.534,3104.2021,
883.624,3117.4196,
880.713,3126.0828,
877.802,3135.5583,
874.892,3142.8746,
871.981,3126.9877,
869.071,3041.7756,
866.160,3025.6201,
863.250,3065.8878,
860.339,3096.1985,
857.428,3087.0609,
854.518,3099.0853,
851.607,3067.4666,
848.697,3073.6929,
845.786,3067.0638,
842.875,3090.6053,
839.965,3157.8739,
837.054,3170.9256,
834.144,3164.2956,
831.233,3145.0013,
828.323,3158.2557,
825.412,3166.1897,
822.501,3133.5106,
819.591,3125.2466,
816.680,3125.8013,
813.770,3083.3978,
810.859,3070.1835,
807.949,3083.0707,
805.038,3077.0044,
802.127,3068.7731,
799.217,3038.1844,
796.306,3013.2431,
793.396,3016.4047,
790.485,3028.8921,
787.574,2990.782,
784.664,2985.0413,
781.753,3018.2202,
778.843,3029.119,
775.932,3023.6173,
773.022,3032.7347,
770.111,3082.6069,
767.200,3066.2059,
764.290,3061.7336,
761.379,3061.0307,
758.469,3051.5127,
755.558,3027.778,
752.648,3053.8453,
749.737,3063.5695,
746.826,3068.7973,
743.916,3072.2792,
741.005,3075.3843,
738.095,3096.4931,
735.184,3104.7205,
732.274,3052.3067,
729.363,2999.6377,
726.452,2998.8471,
723.542,3031.2228,
720.631,3034.5291,
717.721,3018.9603,
714.810,3011.5682,
711.899,3020.8812,
708.989,3028.9504,
706.078,3024.9935,
703.168,3033.7155,
700.257,3009.8822,
697.347,2977.6511,
694.436,3015.3672,
691.525,2992.0568,
688.615,2993.2891,
685.704,2993.9781,
682.794,3005.9147,
679.883,3056.5583,
676.973,3024.5034,
674.062,3027.5712,
671.151,3053.1632,
668.241,3064.9434,
665.330,3021.1345,
662.420,3045.0964,
659.509,3060.1589,
656.598,3068.5965,
653.688,3063.9485,
650.777,3037.8641,
647.867,3063.3466,
644.956,3054.7595,
642.046,3033.1475,
639.135,3018.5634,
636.224,3031.9682,
633.314,3025.6167,
630.403,3060.0638,
627.493,3080.3911,
624.582,3084.8303,
621.672,3137.8939,
618.761,3105.8027,
615.850,3111.5296,
612.940,3146.1751,
610.029,3181.0815,
607.119,3145.5481,
604.208,3166.8505,
601.297,3187.4689,
598.387,3197.4267,
595.476,3194.5887,
592.566,3179.6344,
589.655,3173.7605,
586.745,3167.6603,
583.834,3163.0979,
580.923,3166.9289,
578.013,3155.1579,
575.102,3173.7964,
572.192,3183.9262,
569.281,3178.3428,
566.371,3208.0825,
563.460,3218.0547,
560.549,3234.6438,
557.639,3224.5607,
554.728,3161.1534,
551.818,3211.0936,
548.907,3175.0752,
545.996,3157.4413,
543.086,3181.0263,
540.175,3199.7138,
537.265,3223.4527,
534.354,3218.956,
531.444,3189.0019,
528.533,3146.8762,
525.622,3173.2584,
522.712,3185.0675,
519.801,3205.4208,
516.891,3240.9208,
513.980,3285.0557,
511.070,3272.0957,
508.159,3294.1316,
505.248,3327.0014,
502.338,3331.5588,
499.427,3384.8153,
496.517,3439.1616,
493.606,3458.2228,
490.695,3434.3581,
487.785,3429.7393,
484.874,3454.849,
481.964,3465.2625,
479.053,3452.8295,
476.143,3422.879,
473.232,3459.8478,
470.321,3473.0537,
467.411,3460.8696,
464.500,3430.3018,
461.590,3402.7352,
458.679,3471.491,
455.769,3533.3699,
452.858,3531.2047,
449.947,3523.5653,
447.037,3523.2135,
444.126,3525.8485,
441.216,3545.6683,
438.305,3641.6717,
435.395,3628.7745,
432.484,3620.8345,
429.573,3624.74,
426.663,3606.4966,
423.752,3632.8968,
420.842,3581.064,
417.931,3509.5248,
415.020,3525.4504,
412.110,3583.7974,
409.199,3679.8165,
406.289,3750.1287,
403.378,3726.0256,
400.468,3733.5856,
397.557,3710.2925,
394.646,3709.4331,
391.736,3771.4789,
388.825,3723.9623,
385.915,3766.4125,
383.004,3811.7169,
380.094,3800.5393,
377.183,3791.5096,
374.272,3815.5962,
371.362,3848.5958,
368.451,3872.2675,
365.541,3843.7472,
362.630,3882.9767,
359.719,3926.1435,
356.809,3933.1908,
353.898,3886.7654,
350.988,3898.4119,
348.077,3909.4165,
345.167,3885.2432,
342.256,3870.3018,
339.345,3880.8801,
336.435,3906.4917,
333.524,3939.5167,
330.614,3955.9102,
327.703,3937.8968,
324.793,3922.4448,
321.882,3940.9441,
318.971,3917.8974,
316.061,3960.7847,
313.150,4006.6095,
310.240,3982.8618,
307.329,4029.8807,
304.418,4031.2178,
301.508,4024.9662,
298.597,4081.2379,
295.687,4074.4869,
292.776,4089.8334,
289.866,4141.2637,
286.955,4246.9015,
284.044,4230.375,
281.134,4234.2173,
278.223,4274.6945,
275.313,4293.1159,
272.402,4294.0955,
269.492,4289.782,
266.581,4291.7265,
263.670,4385.8296,
260.760,4385.3137,
257.849,4367.1856,
254.939,4387.7343,
252.028,4393.7908,
249.117,4393.259,
246.207,4393.9776,
243.296,4409.3504,
240.386,4384.2273,
237.475,4340.4176,
234.565,4290.8144,
231.654,4276.9371,
228.743,4263.6434,
225.833,4253.5608,
222.922,4247.6942,
220.012,4241.1372,
217.101,4234.0928,
214.191,4234.9011,
211.280,4254.5426,
208.369,4202.8478,
205.459,4175.8022,
202.548,4172.3705,
199.638,4162.937,
196.727,4217.4692,
193.816,4259.602,
190.906,4261.6857,
187.995,4281.2343,
185.085,4282.3257,
182.174,4284.423,
179.264,4315.5019,
176.353,4329.8932,
173.442,4358.8411,
170.532,4392.7835,
167.621,4339.4313,
164.711,4249.3182,
161.800,4120.0504,
158.890,3941.5579,
155.979,3708.4145,
153.068,3425.7986,
150.158,3089.9102,
147.247,2672.062,
144.337,2203.1511,
141.426,1731.0153,
138.516,1277.2231,
135.605,910.24143,
132.694,616.90283,
129.784,395.49534,
126.873,264.62658,
123.963,189.62904,
121.052,137.1358,
118.141,97.157292,
115.231,76.39346,
112.320,63.763641,
109.410,55.954671,
106.499,45.272343,
103.589,37.95771,
100.678,34.271622,
97.767,34.982559,
94.857,36.385978,
91.946,31.356448,
89.036,23.338694,
86.125,25.46631,
83.215,20.690796,
80.304,17.436596,
77.393,21.685616,
74.483,21.344865,
71.572,19.550592,
68.662,16.72293,
65.751,13.897126,
62.840,13.963404,
59.930,14.812714,
57.019,14.107632,
54.109,15.194322,
51.198,15.396781,
48.288,13.983013,
45.377,11.872878,
42.466,12.648877,
39.556,14.884881,
36.645,14.182691,
33.735,13.480752,
30.824,11.232904,
27.914,5.6235023,
25.003,10.603737,
22.092,14.645809,
19.182,16.503423,
16.271,31.892206,
13.361,94.475369,
10.450,188.58619,
7.539,284.95371,
4.629,313.61427,
1.718,228.69355,
-1.192,-59.227141,
-4.103,-109.36873,
-7.013,-81.821338,
-9.924,1,
