,PL28A0~1,
Raman shift [1/cm],Intensity,
3014.167,-0.5,
3011.256,0.70004295,
3008.346,75.81682,
3005.435,90.23145,
3002.525,105.38758,
2999.614,89.966263,
2996.704,114.31443,
2993.793,100.76613,
2990.882,90.194647,
2987.972,103.5454,
2985.061,110.7266,
2982.151,107.61933,
2979.240,128.43537,
2976.329,128.01911,
2973.419,132.5,
2970.508,139.89996,
2967.598,120.07711,
2964.687,144.33628,
2961.777,131.97004,
2958.866,139.83432,
2955.955,147.60618,
2953.045,149.55372,
2950.134,168.01019,
2947.224,167.55694,
2944.313,171.74715,
2941.403,167.54745,
2938.492,173.92547,
2935.581,176.72576,
2932.671,174.98069,
2929.760,177.96538,
2926.850,183.18647,
2923.939,194.34113,
2921.028,196.66477,
2918.118,197.05919,
2915.207,196.38615,
2912.297,191.53808,
2909.386,201.68249,
2906.476,196.91854,
2903.565,203.45185,
2900.654,193.99445,
2897.744,215.28627,
2894.833,202.21127,
2891.923,180.74029,
2889.012,201.66763,
2886.102,196.68784,
2883.191,190.50472,
2880.280,191.51435,
2877.370,176.85464,
2874.459,208.03452,
2871.549,206.11854,
2868.638,202.04434,
2865.727,209.78847,
2862.817,202.12835,
2859.906,205.95584,
2856.996,212.98415,
2854.085,200.65543,
2851.175,215.85841,
2848.264,223.78433,
2845.353,215.5,
2842.443,214.30209,
2839.532,203.96274,
2836.622,202.80339,
2833.711,195.03374,
2830.801,199.08971,
2827.890,219.68706,
2824.979,211.72204,
2822.069,198.69333,
2819.158,218.92049,
2816.248,219.27026,
2813.337,211.03657,
2810.427,232.63913,
2807.516,211.60797,
2804.605,218.63942,
2801.695,206.36842,
2798.784,197.16531,
2795.874,219.94593,
2792.963,210.5716,
2790.052,228.497,
2787.142,224.59204,
2784.231,216.79037,
2781.321,213.25432,
2778.410,220.35026,
2775.500,212.20241,
2772.589,225.5,
2769.678,219.00174,
2766.768,222.05147,
2763.857,225.76204,
2760.947,208.95272,
2758.036,215.05422,
2755.126,228.69017,
2752.215,226.84088,
2749.304,240.20142,
2746.394,229.47787,
2743.483,221.09997,
2740.573,222.06414,
2737.662,228.17012,
2734.751,222.12634,
2731.841,223.52748,
2728.930,234.05086,
2726.020,240.84201,
2723.109,230.65492,
2720.199,225.16553,
2717.288,235.23722,
2714.377,238.59574,
2711.467,234.28681,
2708.556,233.85116,
2705.646,236.41551,
2702.735,241.66237,
2699.825,237.5,
2696.914,232.64272,
2694.003,239.913,
2691.093,246.8213,
2688.182,235.09926,
2685.272,244.38478,
2682.361,238.59389,
2679.450,241.00621,
2676.540,268.11384,
2673.629,246.84531,
2670.719,247.28096,
2667.808,247.64591,
2664.898,241.5,
2661.987,247.73346,
2659.076,249.00862,
2656.166,274.24034,
2653.255,255.94388,
2650.345,257.5,
2647.434,271.61375,
2644.524,260.76623,
2641.613,261.78535,
2638.702,257.46844,
2635.792,250.65355,
2632.881,266.88103,
2629.971,263.5,
2627.060,264.66843,
2624.149,263.82186,
2621.239,264.47036,
2618.328,263.11852,
2615.418,260.80455,
2612.507,271.0178,
2609.597,274.04092,
2606.686,263.14862,
2603.775,280.73809,
2600.865,281.38057,
2597.954,274.5,
2595.044,281.10762,
2592.133,285.9394,
2589.223,278.71684,
2586.312,299.9121,
2583.401,274.41968,
2580.491,274.66343,
2577.580,288.51815,
2574.670,301.16042,
2571.759,299.44435,
2568.848,296.14642,
2565.938,273.59509,
2563.027,289.84093,
2560.117,294.30376,
2557.206,304.11624,
2554.296,286.84325,
2551.385,292.00404,
2548.474,293.68513,
2545.564,295.40503,
2542.653,306.20469,
2539.743,310.10474,
2536.832,302.25514,
2533.922,320.15308,
2531.011,295.20028,
2528.100,296.09585,
2525.190,309.24344,
2522.279,310.5938,
2519.369,308.27384,
2516.458,294.60836,
2513.548,314.96331,
2510.637,301.9141,
2507.726,321.62639,
2504.816,323.12571,
2501.905,329.93476,
2498.995,322.26112,
2496.084,315.43378,
2493.173,304.07881,
2490.263,323.6345,
2487.352,334.41493,
2484.442,313.77193,
2481.531,315.54796,
2478.621,301.3578,
2475.710,302.74537,
2472.799,331.04712,
2469.889,319.53047,
2466.978,324.27314,
2464.068,324.58465,
2461.157,316.73002,
2458.247,319.89713,
2455.336,321.90508,
2452.425,331.87266,
2449.515,347.76403,
2446.604,339.67974,
2443.694,336.24425,
2440.783,344.78716,
2437.872,341.08344,
2434.962,351.50922,
2432.051,343.35196,
2429.141,355.19404,
2426.230,357.5,
2423.320,360.87151,
2420.409,358.63459,
2417.498,347.33706,
2414.588,342.58743,
2411.677,361.67929,
2408.767,369.78838,
2405.856,364.49055,
2402.946,370.77435,
2400.035,368.91314,
2397.124,380.25402,
2394.214,363.7976,
2391.303,358.46138,
2388.393,364.19073,
2385.482,368.5,
2382.571,377.19655,
2379.661,369.59295,
2376.750,385.76103,
2373.840,359.5564,
2370.929,382.15345,
2368.019,379.22354,
2365.108,371.03403,
2362.197,387.26442,
2359.287,394.89499,
2356.376,370.54403,
2353.466,387.30309,
2350.555,383.33989,
2347.645,387.97283,
2344.734,385.04376,
2341.823,409.05225,
2338.913,384.56568,
2336.002,387.64595,
2333.092,399.14342,
2330.181,405.21868,
2327.270,410.11496,
2324.360,396.26411,
2321.449,418.88435,
2318.539,399.66816,
2315.628,388.68465,
2312.718,400.21586,
2309.807,403.5,
2306.896,405.01174,
2303.986,411.24028,
2301.075,408.56385,
2298.165,401.50954,
2295.254,412.24148,
2292.344,414.81535,
2289.433,413.14091,
2286.522,426.00877,
2283.612,425.17854,
2280.701,428.61657,
2277.791,426.97903,
2274.880,414.714,
2271.969,419.75515,
2269.059,437.11309,
2266.148,444.0409,
2263.238,426.40735,
2260.327,449.74128,
2257.417,435.23,
2254.506,429.5912,
2251.595,433.50732,
2248.685,448.123,
2245.774,455.5,
2242.864,454.91647,
2239.953,445.81725,
2237.043,443.88964,
2234.132,445.60129,
2231.221,444.36821,
2228.311,453.93813,
2225.400,454.35927,
2222.490,450.05702,
2219.579,454.20952,
2216.669,463.47138,
2213.758,466.89085,
2210.847,460.66373,
2207.937,487.31918,
2205.026,501.94519,
2202.116,483.85987,
2199.205,488.85012,
2196.294,490.43399,
2193.384,496.342,
2190.473,512.94366,
2187.563,508.5725,
2184.652,525.15673,
2181.742,535.97746,
2178.831,551.81134,
2175.920,569.83151,
2173.010,580.20068,
2170.099,610.3636,
2167.189,666.56458,
2164.278,674.91307,
2161.368,682.35583,
2158.457,733.64674,
2155.546,776.02982,
2152.636,796.73933,
2149.725,822.47314,
2146.815,842.93273,
2143.904,882.9052,
2140.993,899.92323,
2138.083,918.1474,
2135.172,928.46641,
2132.262,920.60827,
2129.351,931.62425,
2126.441,920.71354,
2123.530,873.96125,
2120.619,821.68369,
2117.709,781.47987,
2114.798,736.4075,
2111.888,703.86275,
2108.977,655.90395,
2106.067,620.12433,
2103.156,605.94198,
2100.245,601.48181,
2097.335,570.69372,
2094.424,555.82455,
2091.514,549.06988,
2088.603,546.97465,
2085.692,519.12842,
2082.782,527.06609,
2079.871,499.06944,
2076.961,512.95013,
2074.050,498.22727,
2071.140,511.05184,
2068.229,508.9427,
2065.318,524.2655,
2062.408,522.54539,
2059.497,523.70834,
2056.587,504.51198,
2053.676,513.46557,
2050.766,510.11585,
2047.855,488.55696,
2044.944,489.30289,
2042.034,482.44799,
2039.123,492.30135,
2036.213,496.65552,
2033.302,498.54328,
2030.391,508.85595,
2027.481,495.85378,
2024.570,480.54315,
2021.660,476.61826,
2018.749,492.27206,
2015.839,486.76903,
2012.928,495.62584,
2010.017,518.52606,
2007.107,499.33361,
2004.196,483.6905,
2001.286,488.4788,
1998.375,477.45374,
1995.465,486.08571,
1992.554,487.74707,
1989.643,482.67282,
1986.733,481.76754,
1983.822,486.21787,
1980.912,481.08388,
1978.001,472.63544,
1975.090,483.88321,
1972.180,476.50135,
1969.269,450.17812,
1966.359,440.20269,
1963.448,451.18825,
1960.538,448.19641,
1957.627,424.20896,
1954.716,447.72438,
1951.806,455.95998,
1948.895,424.07696,
1945.985,412.40196,
1943.074,430.65868,
1940.164,428.5,
1937.253,415.1568,
1934.342,413.63689,
1931.432,399.48107,
1928.521,395.03368,
1925.611,400.89614,
1922.700,409.78867,
1919.790,410.77748,
1916.879,387.24374,
1913.968,374.51353,
1911.058,390.76427,
1908.147,390.11602,
1905.237,367.85298,
1902.326,400.35628,
1899.415,414.57926,
1896.505,398.23486,
1893.594,401.21956,
1890.684,390.68318,
1887.773,373.43086,
1884.863,381.05125,
1881.952,406.21476,
1879.041,390.02284,
1876.131,380.68562,
1873.220,394.44696,
1870.310,377.93501,
1867.399,370.59596,
1864.489,405.56536,
1861.578,382.5934,
1858.667,387.90117,
1855.757,405.32936,
1852.846,378.53075,
1849.936,393.47698,
1847.025,400.9647,
1844.114,413.01524,
1841.204,390.5979,
1838.293,396.98753,
1835.383,411.60449,
1832.472,410.38348,
1829.562,392.08515,
1826.651,411.8511,
1823.740,419.40421,
1820.830,424.44494,
1817.919,391.48181,
1815.009,394.63104,
1812.098,421.63384,
1809.188,439.50772,
1806.277,452.23442,
1803.366,433.66636,
1800.456,443.66487,
1797.545,442.99663,
1794.635,417.14314,
1791.724,468.40301,
1788.813,428.89537,
1785.903,424.34877,
1782.992,451.93963,
1780.082,440.40379,
1777.171,438.49786,
1774.261,442.54524,
1771.350,458.751,
1768.439,454.05355,
1765.529,464.31947,
1762.618,448.82683,
1759.708,465.39172,
1756.797,478.60606,
1753.887,465.09038,
1750.976,454.81022,
1748.065,444.95776,
1745.155,446.5,
1742.244,478.28256,
1739.334,449.30943,
1736.423,446.16353,
1733.512,447.67885,
1730.602,467.94051,
1727.691,497.76216,
1724.781,491.91477,
1721.870,509.42393,
1718.960,502.98875,
1716.049,471.13589,
1713.138,497.13485,
1710.228,458.11485,
1707.317,462.11486,
1704.407,513.81024,
1701.496,497.62285,
1698.586,520.44758,
1695.675,488.81449,
1692.764,519.63526,
1689.854,510.97637,
1686.943,510.5,
1684.033,532.92877,
1681.122,528.58496,
1678.211,487.89021,
1675.301,513.41983,
1672.390,545.72132,
1669.480,618.81813,
1666.569,535.32523,
1663.659,600.62693,
1660.748,667.4395,
1657.837,613.7187,
1654.927,624.36688,
1652.016,660.4271,
1649.106,657.25519,
1646.195,648.74677,
1643.285,700.04688,
1640.374,722.7892,
1637.463,690.38271,
1634.553,738.29311,
1631.642,725.54236,
1628.732,820.8496,
1625.821,879.52028,
1622.911,910.32531,
1620.000,967.76927,
1617.089,1061.6094,
1614.179,1125.6951,
1611.268,1193.9347,
1608.358,1283.2391,
1605.447,1359.1577,
1602.536,1370.9551,
1599.626,1374.2598,
1596.715,1339.1036,
1593.805,1365.013,
1590.894,1358.8126,
1587.984,1334.9816,
1585.073,1287.2575,
1582.162,1244.4348,
1579.252,1268.5954,
1576.341,1283.5106,
1573.431,1297.2476,
1570.520,1237.0567,
1567.610,1209.3038,
1564.699,1179.6739,
1561.788,1166.6831,
1558.878,1152.5275,
1555.967,1118.0914,
1553.057,1095.8449,
1550.146,1091.5,
1547.235,1027.7447,
1544.325,995.9417,
1541.414,1012.5207,
1538.504,984.58903,
1535.593,948.11777,
1532.683,936.14969,
1529.772,910.68151,
1526.861,898.15588,
1523.951,911.75456,
1521.040,877.6132,
1518.130,832.57204,
1515.219,876.13973,
1512.309,866.17561,
1509.398,807.28517,
1506.487,807.04328,
1503.577,803.62187,
1500.666,767.7092,
1497.756,755.10189,
1494.845,771.85856,
1491.934,708.55039,
1489.024,723.95028,
1486.113,740.26266,
1483.203,717.51947,
1480.292,702.62084,
1477.382,641.49788,
1474.471,683.51867,
1471.560,677.27868,
1468.650,657.56762,
1465.739,665.3098,
1462.829,638.48141,
1459.918,618.81495,
1457.008,657.54661,
1454.097,653.21656,
1451.186,613.73791,
1448.276,635.78289,
1445.365,642.10427,
1442.455,607.22668,
1439.544,613.45461,
1436.633,634.00447,
1433.723,619.49396,
1430.812,627.58939,
1427.902,552.75586,
1424.991,521.4797,
1422.081,526.00486,
1419.170,535.1406,
1416.259,541.36038,
1413.349,534.94759,
1410.438,471.61917,
1407.528,489.91818,
1404.617,474.57528,
1401.707,491.015,
1398.796,513.97906,
1395.885,486.81882,
1392.975,488.31308,
1390.064,510.2626,
1387.154,499.92973,
1384.243,487.87864,
1381.332,469.94667,
1378.422,466.27288,
1375.511,481.26138,
1372.601,600.38257,
1369.690,524.77775,
1366.780,584.15927,
1363.869,647.08862,
1360.958,741.40552,
1358.048,764.29396,
1355.137,750.39726,
1352.227,759.93798,
1349.316,785.16487,
1346.406,818.18835,
1343.495,866.44082,
1340.584,922.85677,
1337.674,949.42962,
1334.763,965.81757,
1331.853,974.16265,
1328.942,983.39464,
1326.032,1017.9404,
1323.121,1100.3374,
1320.210,1099.1972,
1317.300,1146.2939,
1314.389,1207.0004,
1311.479,1235.4222,
1308.568,1234.414,
1305.657,1242.3387,
1302.747,1332.9153,
1299.836,1343.0455,
1296.926,1379.5593,
1294.015,1466.895,
1291.105,1486.3498,
1288.194,1546.0095,
1285.283,1597.0162,
1282.373,1631.7499,
1279.462,1686.3227,
1276.552,1741.0119,
1273.641,1788.1744,
1270.731,1828.206,
1267.820,1818.775,
1264.909,1782.2359,
1261.999,1761.2296,
1259.088,1836.0235,
1256.178,1765.1318,
1253.267,1733.3201,
1250.356,1699.7326,
1247.446,1646.6026,
1244.535,1597.192,
1241.625,1532.3038,
1238.714,1464.4523,
1235.804,1441.0826,
1232.893,1386.7542,
1229.982,1366.7027,
1227.072,1343.1646,
1224.161,1312.0824,
1221.251,1280.4422,
1218.340,1252.7135,
1215.430,1227.6355,
1212.519,1205.0865,
1209.608,1194.9806,
1206.698,1204.6065,
1203.787,1226.5101,
1200.877,1265.3358,
1197.966,1278.8232,
1195.055,1334.9612,
1192.145,1333.9812,
1189.234,1381.7546,
1186.324,1418.2281,
1183.413,1448.4645,
1180.503,1462.998,
1177.592,1430.7827,
1174.681,1415.0788,
1171.771,1391.8297,
1168.860,1406.1191,
1165.950,1367.1855,
1163.039,1351.2144,
1160.129,1375.6333,
1157.218,1380.0779,
1154.307,1353.3692,
1151.397,1328.7651,
1148.486,1308.6037,
1145.576,1286.7313,
1142.665,1292.0588,
1139.754,1286.8046,
1136.844,1301.607,
1133.933,1301.4619,
1131.023,1278.5604,
1128.112,1269.5698,
1125.202,1274.2827,
1122.291,1230.0094,
1119.380,1254.5693,
1116.470,1261.6295,
1113.559,1288.7905,
1110.649,1293.8806,
1107.738,1303.7522,
1104.828,1304.7619,
1101.917,1300.7844,
1099.006,1317.1702,
1096.096,1301.3925,
1093.185,1299.6365,
1090.275,1291.4073,
1087.364,1307.3392,
1084.453,1325.0619,
1081.543,1320.668,
1078.632,1306.1268,
1075.722,1304.1149,
1072.811,1292.1062,
1069.901,1328.7831,
1066.990,1340.3916,
1064.079,1363.5959,
1061.169,1361.9017,
1058.258,1358.8523,
1055.348,1375.1429,
1052.437,1393.336,
1049.527,1394.1112,
1046.616,1435.815,
1043.705,1443.5831,
1040.795,1441.3075,
1037.884,1439.5,
1034.974,1445.8312,
1032.063,1449.108,
1029.153,1427.0579,
1026.242,1440.0323,
1023.331,1472.9979,
1020.421,1473.9232,
1017.510,1497.833,
1014.600,1514.2707,
1011.689,1518.7625,
1008.778,1551.6839,
1005.868,1593.6236,
1002.957,1607.3892,
1000.047,1696.132,
997.136,1760.8029,
994.226,1783.5,
991.315,1779.5421,
988.404,1766.771,
985.494,1746.8095,
982.583,1715.9735,
979.673,1725.4013,
976.762,1712.8869,
973.852,1702.7101,
970.941,1714.6878,
968.030,1733.7948,
965.120,1718.5609,
962.209,1733.0541,
959.299,1760.997,
956.388,1742.9418,
953.477,1725.4323,
950.567,1734.33,
947.656,1745.1819,
944.746,1788.5093,
941.835,1750.0093,
938.925,1743.1322,
936.014,1742.4767,
933.103,1750.3866,
930.193,1758.1126,
927.282,1713.7045,
924.372,1662.1224,
921.461,1677.592,
918.551,1636.1207,
915.640,1608.9989,
912.729,1616.743,
909.819,1604.3871,
906.908,1588.381,
903.998,1576.3649,
901.087,1609.7809,
898.176,1621.9105,
895.266,1638.8441,
892.355,1693.7723,
889.445,1684.5404,
886.534,1677.821,
883.624,1708.1231,
880.713,1730.1346,
877.802,1735.1104,
874.892,1735.6254,
871.981,1749.3224,
869.071,1741.8037,
866.160,1724.6309,
863.250,1731.6535,
860.339,1742.3522,
857.428,1729.8911,
854.518,1693.6685,
851.607,1699.493,
848.697,1688.8071,
845.786,1677.7914,
842.875,1683.6856,
839.965,1701.6261,
837.054,1688.2767,
834.144,1668.3867,
831.233,1661.8335,
828.323,1630.3311,
825.412,1605.2953,
822.501,1618.5426,
819.591,1624.3274,
816.680,1568.4102,
813.770,1560.765,
810.859,1576.2323,
807.949,1571.4828,
805.038,1520.7035,
802.127,1514.1185,
799.217,1523.1901,
796.306,1547.5002,
793.396,1538.973,
790.485,1496.499,
787.574,1482.2162,
784.664,1501.0787,
781.753,1525.9715,
778.843,1530.1289,
775.932,1528.1296,
773.022,1542.5575,
770.111,1568.72,
767.200,1585.7262,
764.290,1568.5406,
761.379,1544.6226,
758.469,1539.1965,
755.558,1562.9683,
752.648,1511.6483,
749.737,1515.2086,
746.826,1485.6685,
743.916,1436.5194,
741.005,1408.1373,
738.095,1316.3953,
735.184,1213.2573,
732.274,1146.5238,
729.363,1171.6157,
726.452,1298.3269,
723.542,1430.2581,
720.631,1461.9652,
717.721,1481.5298,
714.810,1490.1193,
711.899,1496.4604,
708.989,1526.3166,
706.078,1532.1091,
703.168,1504.3534,
700.257,1496.6394,
697.347,1508.5874,
694.436,1493.8235,
691.525,1468.9056,
688.615,1482.3673,
685.704,1485.7295,
682.794,1472.4575,
679.883,1462.7523,
676.973,1468.3619,
674.062,1456.1003,
671.151,1456.8283,
668.241,1464.4028,
665.330,1454.4244,
662.420,1452.8269,
659.509,1458.8493,
656.598,1466.3947,
653.688,1466.4391,
650.777,1450.4991,
647.867,1479.9632,
644.956,1474.117,
642.046,1455.3058,
639.135,1448.9324,
636.224,1484.4483,
633.314,1474.1271,
630.403,1502.243,
627.493,1513.5141,
624.582,1496.7937,
621.672,1493.6257,
618.761,1521.6178,
615.850,1536.5609,
612.940,1542.5246,
610.029,1545.0261,
607.119,1548.1846,
604.208,1554.8901,
601.297,1542.046,
598.387,1523.0604,
595.476,1514.1286,
592.566,1510.1933,
589.655,1522.4578,
586.745,1523.4244,
583.834,1503.6425,
580.923,1461.8317,
578.013,1516.7631,
575.102,1491.9224,
572.192,1491.7973,
569.281,1539.8602,
566.371,1514.0336,
563.460,1497.3906,
560.549,1506.6056,
557.639,1530.2883,
554.728,1551.0073,
551.818,1543.2041,
548.907,1543.3282,
545.996,1556.1637,
543.086,1571.3125,
540.175,1556.5182,
537.265,1544.6358,
534.354,1559.5642,
531.444,1582.1226,
528.533,1591.1689,
525.622,1586.5132,
522.712,1577.0055,
519.801,1616.9437,
516.891,1684.8658,
513.980,1656.9912,
511.070,1687.6043,
508.159,1721.0802,
505.248,1747.7576,
502.338,1764.494,
499.427,1798.4547,
496.517,1818.2475,
493.606,1833.9028,
490.695,1853.5283,
487.785,1889.7084,
484.874,1877.4057,
481.964,1873.3139,
479.053,1882.4193,
476.143,1886.2591,
473.232,1869.9537,
470.321,1832.3591,
467.411,1795.7011,
464.500,1785.6054,
461.590,1829.2526,
458.679,1828.8432,
455.769,1829.2122,
452.858,1849.3981,
449.947,1819.6048,
447.037,1842.0177,
444.126,1867.1545,
441.216,1872.6793,
438.305,1839.1543,
435.395,1888.2622,
432.484,1913.5827,
429.573,1904.1749,
426.663,1881.3707,
423.752,1917.1606,
420.842,1936.2401,
417.931,1938.6381,
415.020,1935.6047,
412.110,1977.9336,
409.199,1986.165,
406.289,1982.4357,
403.378,1994.4129,
400.468,1968.7091,
397.557,1970.783,
394.646,1984.2708,
391.736,1993.9205,
388.825,1975.819,
385.915,1928.9889,
383.004,1888.2169,
380.094,1881.9147,
377.183,1968.4495,
374.272,2030.4946,
371.362,2061.617,
368.451,2060.8221,
365.541,2082.5877,
362.630,2081.3989,
359.719,2079.3476,
356.809,2089.4515,
353.898,2105.1763,
350.988,2107.8725,
348.077,2100.9822,
345.167,2088.9001,
342.256,2116.5417,
339.345,2120.2485,
336.435,2120.3863,
333.524,2131.6509,
330.614,2168.1635,
327.703,2166.6649,
324.793,2151.1487,
321.882,2141.4748,
318.971,2131.0666,
316.061,2145.5676,
313.150,2168.8881,
310.240,2182.9883,
307.329,2180.6415,
304.418,2143.9356,
301.508,2107.2108,
298.597,2128.6829,
295.687,2128.4683,
292.776,2135,
289.866,2160.4463,
286.955,2231.3639,
284.044,2322.4599,
281.134,2395.0499,
278.223,2441.3023,
275.313,2460.4605,
272.402,2476.699,
269.492,2509.264,
266.581,2562.4969,
263.670,2590.4338,
260.760,2626.7087,
257.849,2648.9072,
254.939,2638.6329,
252.028,2660.2153,
249.117,2675.8092,
246.207,2675.0295,
243.296,2638.4276,
240.386,2635.153,
237.475,2627.0479,
234.565,2610.9692,
231.654,2594.9008,
228.743,2548.9228,
225.833,2507.4384,
222.922,2483.6846,
220.012,2466.1993,
217.101,2422.7149,
214.191,2378.036,
211.280,2359.8494,
208.369,2328.2234,
205.459,2341.0483,
202.548,2374.1016,
199.638,2325.4831,
196.727,2358.7162,
193.816,2410.6685,
190.906,2456.5858,
187.995,2430.5209,
185.085,2454.127,
182.174,2480.5099,
179.264,2443.6489,
176.353,2424.7621,
173.442,2424.8388,
170.532,2441.2641,
167.621,2456.4046,
164.711,2401.1108,
161.800,2321.9405,
158.890,2247.0888,
155.979,2122.306,
153.068,1970.8452,
150.158,1790.2907,
147.247,1559.828,
144.337,1323.3638,
141.426,1064.633,
138.516,772.8583,
135.605,540.8346,
132.694,368.09419,
129.784,242.54572,
126.873,145.28806,
123.963,100.46091,
121.052,69.318563,
118.141,38.620778,
115.231,39.921141,
112.320,35.840005,
109.410,28.818224,
106.499,25.257448,
103.589,27.301272,
100.678,24.882431,
97.767,12.796492,
94.857,14.578967,
91.946,15.5,
89.036,14.709715,
86.125,9.7452777,
83.215,7.9690796,
80.304,8.6971634,
77.393,12.238013,
74.483,9.8794602,
71.572,8.1376479,
68.662,7.4307325,
65.751,6.7242814,
62.840,7.945106,
59.930,8.7508552,
57.019,5.9305273,
54.109,9.6801259,
51.198,10.388735,
48.288,5.5113249,
45.377,6.918081,
42.466,7.9122193,
39.556,9.1907115,
36.645,13.403853,
33.735,9.3075153,
30.824,6.0462088,
27.914,10.954436,
25.003,6.5189002,
22.092,6.7290456,
19.182,13.797477,
16.271,22.890849,
13.361,100.6766,
10.450,226.53795,
7.539,366.20102,
4.629,401.98368,
1.718,280.05191,
-1.192,-115.92619,
-4.103,-192.62979,
-7.013,-146.26335,
-9.924,-1.5,
