,PL267D~1,
Raman shift [1/cm],Intensity,
3014.167,1.25,
3011.256,0.14997853,
3008.346,422.89638,
3005.435,505.36661,
3002.525,538.19519,
2999.614,544.71626,
2996.704,571.10876,
2993.793,549.23157,
2990.882,580.76136,
2987.972,606.21469,
2985.061,611.22046,
2982.151,649.1475,
2979.240,661.06271,
2976.329,701.03413,
2973.419,710.86489,
2970.508,728.16668,
2967.598,728.68012,
2964.687,741.54823,
2961.777,778.86572,
2958.866,785.25742,
2955.955,822.29861,
2953.045,865.8652,
2950.134,866.16548,
2947.224,872.39234,
2944.313,900.62037,
2941.403,929.25,
2938.492,934.23915,
2935.581,943.33586,
2932.671,953.13416,
2929.760,968.90384,
2926.850,987.94361,
2923.939,988.68454,
2921.028,994.14987,
2918.118,1000.4729,
2915.207,1023.0728,
2912.297,1031.2119,
2909.386,1040.6806,
2906.476,1020.1967,
2903.565,1037.3463,
2900.654,1045.25,
2897.744,1050.9231,
2894.833,1037.6209,
2891.923,1032.5448,
2889.012,1032.7529,
2886.102,1019.6257,
2883.191,1032.2358,
2880.280,1002.1495,
2877.370,1001.3139,
2874.459,1018.25,
2871.549,1031.2633,
2868.638,1054.6149,
2865.727,1071.5116,
2862.817,1066.9786,
2859.906,1072.25,
2856.996,1063.2908,
2854.085,1060.4118,
2851.175,1084.8705,
2848.264,1097.3873,
2845.353,1060.7108,
2842.443,1053.0208,
2839.532,1040.2204,
2836.622,1052.4635,
2833.711,1045.0506,
2830.801,1053.8324,
2827.890,1028.2308,
2824.979,1047.1639,
2822.069,1089.0453,
2819.158,1075.4306,
2816.248,1075.5261,
2813.337,1095.7756,
2810.427,1079.9484,
2807.516,1068.5163,
2804.605,1083.4976,
2801.695,1073.0131,
2798.784,1087.8845,
2795.874,1074.6695,
2792.963,1069.7497,
2790.052,1063.2498,
2787.142,1063.25,
2784.231,1054.0249,
2781.321,1046.0614,
2778.410,1066.4885,
2775.500,1074.7424,
2772.589,1051.4824,
2769.678,1077.1783,
2766.768,1080.685,
2763.857,1107.8801,
2760.947,1112.3572,
2758.036,1108.0715,
2755.126,1126.4893,
2752.215,1126.4409,
2749.304,1142.3345,
2746.394,1121.1552,
2743.483,1130.45,
2740.573,1137.573,
2737.662,1135.1124,
2734.751,1127.2984,
2731.841,1135.25,
2728.930,1149.3306,
2726.020,1154.8218,
2723.109,1177.0024,
2720.199,1171.6626,
2717.288,1167.688,
2714.377,1183.5707,
2711.467,1195.5775,
2708.556,1219.5052,
2705.646,1188.9119,
2702.735,1194.5954,
2699.825,1197.9354,
2696.914,1198.155,
2694.003,1233.6256,
2691.093,1206.7145,
2688.182,1208.4315,
2685.272,1205.8958,
2682.361,1211.9258,
2679.450,1223.3077,
2676.540,1228.0264,
2673.629,1221.5639,
2670.719,1239.2426,
2667.808,1240.4445,
2664.898,1241.2763,
2661.987,1250.3172,
2659.076,1265.0129,
2656.166,1254.8646,
2653.255,1266.1429,
2650.345,1284.2591,
2647.434,1294.7933,
2644.524,1305.0725,
2641.613,1303.4788,
2638.702,1304.2973,
2635.792,1303.0645,
2632.881,1298.7974,
2629.971,1305.505,
2627.060,1311.4178,
2624.149,1305.925,
2621.239,1317.0133,
2618.328,1321.25,
2615.418,1317.6,
2612.507,1335.6926,
2609.597,1332.1781,
2606.686,1360.4448,
2603.775,1375.1746,
2600.865,1390.25,
2597.954,1385.6333,
2595.044,1395.5627,
2592.133,1396.5812,
2589.223,1395.1416,
2586.312,1416.5464,
2583.401,1440.9033,
2580.491,1452.3173,
2577.580,1438.1856,
2574.670,1407.8289,
2571.759,1411.5325,
2568.848,1434.1176,
2565.938,1430.7262,
2563.027,1434.1523,
2560.117,1449.4089,
2557.206,1425.7998,
2554.296,1431.0852,
2551.385,1471.9521,
2548.474,1469.2496,
2545.564,1481.5852,
2542.653,1475.1124,
2539.743,1487.7931,
2536.832,1475.1883,
2533.922,1510.3604,
2531.011,1511.2005,
2528.100,1532.5672,
2525.190,1528.093,
2522.279,1526.0307,
2519.369,1512.4191,
2516.458,1516.568,
2513.548,1529.1859,
2510.637,1530.4182,
2507.726,1543.8782,
2504.816,1532.5623,
2501.905,1543.4238,
2498.995,1513.6388,
2496.084,1556.156,
2493.173,1583.8295,
2490.263,1578.1042,
2487.352,1559.0445,
2484.442,1601.674,
2481.531,1610.5159,
2478.621,1595.2878,
2475.710,1579.7177,
2472.799,1634.8241,
2469.889,1610.4938,
2466.978,1615.2396,
2464.068,1636.5305,
2461.157,1616.7149,
2458.247,1652.5738,
2455.336,1660.8057,
2452.425,1636.8773,
2449.515,1661.2874,
2446.604,1678.6254,
2443.694,1698.458,
2440.783,1682.5856,
2437.872,1689.724,
2434.962,1704.6141,
2432.051,1708.324,
2429.141,1718.0616,
2426.230,1724.1848,
2423.320,1746.3073,
2420.409,1732.5514,
2417.498,1743.9776,
2414.588,1760.4325,
2411.677,1783.8515,
2408.767,1752.0679,
2405.856,1758.462,
2402.946,1785.9533,
2400.035,1794.3603,
2397.124,1781.6083,
2394.214,1801.2232,
2391.303,1825.2222,
2388.393,1822.6011,
2385.482,1829.5891,
2382.571,1844.0983,
2379.661,1840.8546,
2376.750,1837.1466,
2373.840,1841.4468,
2370.929,1891.7302,
2368.019,1869.3811,
2365.108,1893.716,
2362.197,1887.6391,
2359.287,1878.8717,
2356.376,1906.1972,
2353.466,1904.6438,
2350.555,1901.5098,
2347.645,1910.2354,
2344.734,1908.6417,
2341.823,1917.051,
2338.913,1968.6783,
2336.002,1940.8457,
2333.092,1941.3075,
2330.181,1951.8305,
2327.270,1971.3699,
2324.360,1968.3584,
2321.449,1994.7874,
2318.539,1985.3356,
2315.628,1994.8295,
2312.718,1981.3513,
2309.807,2031.641,
2306.896,2053.9198,
2303.986,2032.3864,
2301.075,2041.7819,
2298.165,2034.6634,
2295.254,2031.2931,
2292.344,2030.8765,
2289.433,2054.6168,
2286.522,2068.3839,
2283.612,2062.2092,
2280.701,2092.7342,
2277.791,2114.7691,
2274.880,2104.106,
2271.969,2115.7603,
2269.059,2120.3127,
2266.148,2181.0981,
2263.238,2160.3697,
2260.327,2173.0087,
2257.417,2182.7756,
2254.506,2201.478,
2251.595,2218.1192,
2248.685,2208.25,
2245.774,2213.6565,
2242.864,2220.0929,
2239.953,2236.5741,
2237.043,2229.8197,
2234.132,2240.8524,
2231.221,2282.9348,
2228.311,2287.8595,
2225.400,2297.3195,
2222.490,2336.8494,
2219.579,2342.7795,
2216.669,2331.2548,
2213.758,2385.6945,
2210.847,2417.6681,
2207.937,2445.1099,
2205.026,2451.6937,
2202.116,2477.543,
2199.205,2515.0486,
2196.294,2547.184,
2193.384,2605.6691,
2190.473,2641.9777,
2187.563,2729.6367,
2184.652,2820.5459,
2181.742,2919.7089,
2178.831,3055.2541,
2175.920,3215.2592,
2173.010,3385.483,
2170.099,3591.4976,
2167.189,3867.8645,
2164.278,4132.042,
2161.368,4414.1017,
2158.457,4635.9694,
2155.546,4922.5916,
2152.636,5171.7017,
2149.725,5377.223,
2146.815,5491.3135,
2143.904,5614.3801,
2140.993,5695.1652,
2138.083,5703.7425,
2135.172,5648.9557,
2132.262,5566.0431,
2129.351,5482.1635,
2126.441,5316.9389,
2123.530,5071.8593,
2120.619,4823.1323,
2117.709,4515.1639,
2114.798,4230.9605,
2111.888,3951.4435,
2108.977,3700.8195,
2106.067,3474.2658,
2103.156,3301.9529,
2100.245,3167.203,
2097.335,3077.5589,
2094.424,2951.8201,
2091.514,2883.2392,
2088.603,2877.1163,
2085.692,2846.5105,
2082.782,2830.3865,
2079.871,2811.6059,
2076.961,2794.0895,
2074.050,2749.2318,
2071.140,2722.8137,
2068.229,2684.6237,
2065.318,2670.3362,
2062.408,2665.2803,
2059.497,2656.6369,
2056.587,2643.0292,
2053.676,2614.7515,
2050.766,2606.4809,
2047.855,2601.6519,
2044.944,2586.0384,
2042.034,2614.643,
2039.123,2603.8695,
2036.213,2599.6922,
2033.302,2590.4675,
2030.391,2631.8419,
2027.481,2642.8843,
2024.570,2640.6213,
2021.660,2619.61,
2018.749,2647.5919,
2015.839,2651.1384,
2012.928,2625.8356,
2010.017,2650.9254,
2007.107,2650.25,
2004.196,2638.9881,
2001.286,2636.1051,
1998.375,2629.4203,
1995.465,2615.5973,
1992.554,2626.3969,
1989.643,2594.4597,
1986.733,2598.464,
1983.822,2602.25,
1980.912,2608.1713,
1978.001,2638.9105,
1975.090,2637.1462,
1972.180,2597.3192,
1969.269,2612.2328,
1966.359,2601.2497,
1963.448,2597.0162,
1960.538,2648.1291,
1957.627,2641.4172,
1954.716,2690.7275,
1951.806,2582.5784,
1948.895,2645.1022,
1945.985,2631.9395,
1943.074,2605.9217,
1940.164,2600.7887,
1937.253,2596.8808,
1934.342,2594.9511,
1931.432,2602.086,
1928.521,2548.6887,
1925.611,2556.5224,
1922.700,2538.1754,
1919.790,2565.5617,
1916.879,2583.3433,
1913.968,2521.3275,
1911.058,2581.6855,
1908.147,2625.6003,
1905.237,2606.9633,
1902.326,2632.0989,
1899.415,2583.0439,
1896.505,2624.5213,
1893.594,2625.0822,
1890.684,2610.1584,
1887.773,2621.0949,
1884.863,2613.8719,
1881.952,2608.855,
1879.041,2599.1721,
1876.131,2649.999,
1873.220,2569.8514,
1870.310,2602.6625,
1867.399,2596.4099,
1864.489,2601.4572,
1861.578,2627.3272,
1858.667,2589.9835,
1855.757,2605.6092,
1852.846,2647.7321,
1849.936,2635.7385,
1847.025,2653.4179,
1844.114,2697.4806,
1841.204,2698.0332,
1838.293,2688.7508,
1835.383,2709.017,
1832.472,2746.4135,
1829.562,2729.5875,
1826.651,2724.558,
1823.740,2749.9052,
1820.830,2720.982,
1817.919,2768.8851,
1815.009,2794.2373,
1812.098,2745.0847,
1809.188,2821.7924,
1806.277,2801.8254,
1803.366,2849.2851,
1800.456,2792.4149,
1797.545,2796.9095,
1794.635,2815.185,
1791.724,2835.0169,
1788.813,2867.6479,
1785.903,2866.6434,
1782.992,2877.0071,
1780.082,2862.0702,
1777.171,2879.5867,
1774.261,2894.44,
1771.350,2913.6843,
1768.439,2942.3571,
1765.529,2948.7954,
1762.618,2945.3512,
1759.708,2944.8044,
1756.797,2970.3788,
1753.887,2989.1217,
1750.976,2995.3259,
1748.065,2979.3591,
1745.155,3012.8755,
1742.244,3022.0344,
1739.334,3047.4853,
1736.423,3075.2612,
1733.512,3046.7784,
1730.602,3096.3354,
1727.691,3141.0475,
1724.781,3164.7681,
1721.870,3221.5598,
1718.960,3222.7388,
1716.049,3258.0039,
1713.138,3227.6302,
1710.228,3236.9153,
1707.317,3271.9791,
1704.407,3270.8596,
1701.496,3331.3237,
1698.586,3336.326,
1695.675,3339.9928,
1692.764,3381.9058,
1689.854,3408.1673,
1686.943,3456.5974,
1684.033,3507.9834,
1681.122,3517.1141,
1678.211,3590.5457,
1675.301,3659.0403,
1672.390,3716.3936,
1669.480,3764.8757,
1666.569,3843.6339,
1663.659,3951.985,
1660.748,3997.8504,
1657.837,4081.7213,
1654.927,4192.742,
1652.016,4216.4818,
1649.106,4346.3969,
1646.195,4354.312,
1643.285,4439.8223,
1640.374,4508.3998,
1637.463,4566.0691,
1634.553,4776.91,
1631.642,4956.313,
1628.732,5145.5477,
1625.821,5363.4136,
1622.911,5611.8412,
1620.000,5812.7051,
1617.089,6153.3843,
1614.179,6444.0153,
1611.268,6740.1338,
1608.358,7098.2064,
1605.447,7269.8798,
1602.536,7416.2374,
1599.626,7492.4852,
1596.715,7493.712,
1593.805,7469.9974,
1590.894,7481.3407,
1587.984,7412.2304,
1585.073,7408.0565,
1582.162,7380.029,
1579.252,7343.1546,
1576.341,7296.9979,
1573.431,7257.4894,
1570.520,7211.0311,
1567.610,7203.7207,
1564.699,7103.0208,
1561.788,7064.25,
1558.878,6964.5666,
1555.967,6854.8262,
1553.057,6750.8024,
1550.146,6676.4501,
1547.235,6581.4592,
1544.325,6455.5998,
1541.414,6346.4045,
1538.504,6258.063,
1535.593,6160.7418,
1532.683,6094.4403,
1529.772,6010.6449,
1526.861,5896.1569,
1523.951,5838.7051,
1521.040,5771.9729,
1518.130,5707.0699,
1515.219,5598.5706,
1512.309,5579.9662,
1509.398,5582.2273,
1506.487,5543.6361,
1503.577,5518.9848,
1500.666,5516.4226,
1497.756,5453.4777,
1494.845,5346.2895,
1491.934,5322.9193,
1489.024,5221.8575,
1486.113,5260.9019,
1483.203,5220.7298,
1480.292,5195.7342,
1477.382,5124.3572,
1474.471,5056.8356,
1471.560,5055.0377,
1468.650,5007.6379,
1465.739,4957.6304,
1462.829,4956.9768,
1459.918,4954.0952,
1457.008,4976.235,
1454.097,4958.2612,
1451.186,4937.4299,
1448.276,4995.9984,
1445.365,5013.4293,
1442.455,4994.3714,
1439.544,4938.4217,
1436.633,4997.2301,
1433.723,4973.2651,
1430.812,4929.0886,
1427.902,4813.3029,
1424.991,4773.4969,
1422.081,4741.0558,
1419.170,4745.1625,
1416.259,4685.4953,
1413.349,4769.4313,
1410.438,4731.272,
1407.528,4731.5059,
1404.617,4757.0569,
1401.707,4782.8578,
1398.796,4813.4667,
1395.885,4838.5847,
1392.975,4810.394,
1390.064,4772.8647,
1387.154,4866.9787,
1384.243,4853.146,
1381.332,4855.0711,
1378.422,4993.7763,
1375.511,5062.1613,
1372.601,5185.8189,
1369.690,5357.4078,
1366.780,5453.9491,
1363.869,5521.6504,
1360.958,5565.3382,
1358.048,5696.319,
1355.137,5795.1233,
1352.227,5858.3745,
1349.316,5964.4089,
1346.406,6097.533,
1343.495,6200.0461,
1340.584,6184.8911,
1337.674,6306.7189,
1334.763,6379.2965,
1331.853,6433.0759,
1328.942,6528.6437,
1326.032,6636.4932,
1323.121,6739.0151,
1320.210,6763.9204,
1317.300,6844.8825,
1314.389,7005.0298,
1311.479,7128.0265,
1308.568,7186.3934,
1305.657,7248.9503,
1302.747,7325.1851,
1299.836,7470.9603,
1296.926,7648.0694,
1294.015,7816.3056,
1291.105,7977.3448,
1288.194,8154.0049,
1285.283,8290.6264,
1282.373,8448.8511,
1279.462,8589.6212,
1276.552,8714.6834,
1273.641,8798.0829,
1270.731,8795.7246,
1267.820,8765.7429,
1264.909,8771.865,
1261.999,8748.3485,
1259.088,8778.4485,
1256.178,8644.0734,
1253.267,8452.467,
1250.356,8255.6404,
1247.446,8020.2062,
1244.535,7770.4468,
1241.625,7524.2318,
1238.714,7286.7686,
1235.804,7109.8326,
1232.893,7037.7816,
1229.982,6892.8701,
1227.072,6852.1311,
1224.161,6709.7264,
1221.251,6606.5656,
1218.340,6469.4742,
1215.430,6388.8802,
1212.519,6346.8955,
1209.608,6291.0893,
1206.698,6232.7391,
1203.787,6218.5264,
1200.877,6339.4729,
1197.966,6343.0695,
1195.055,6484.036,
1192.145,6608.1787,
1189.234,6791.121,
1186.324,6891.3427,
1183.413,6928.0064,
1180.503,6948.8539,
1177.592,6929.1892,
1174.681,6882.9041,
1171.771,6767.5919,
1168.860,6652.3834,
1165.950,6594.4852,
1163.039,6571.3772,
1160.129,6514.9326,
1157.218,6452.8095,
1154.307,6399.3913,
1151.397,6320.755,
1148.486,6209.7572,
1145.576,6163.2411,
1142.665,6070.8981,
1139.754,6021.7549,
1136.844,5949.923,
1133.933,5878.089,
1131.023,5858.5245,
1128.112,5859.0376,
1125.202,5840.564,
1122.291,5858.378,
1119.380,5866.1028,
1116.470,5851.0998,
1113.559,5882.4997,
1110.649,5904.6921,
1107.738,5912.8575,
1104.828,5898.8543,
1101.917,5884.9426,
1099.006,5906.4046,
1096.096,5918.3473,
1093.185,5870.9352,
1090.275,5884.2447,
1087.364,5830.6157,
1084.453,5806.4999,
1081.543,5802.1149,
1078.632,5784.2214,
1075.722,5776.9187,
1072.811,5840.6844,
1069.901,5846.7972,
1066.990,5857.7583,
1064.079,5905.8444,
1061.169,6002.363,
1058.258,6090.3531,
1055.348,6132.8352,
1052.437,6149.3658,
1049.527,6167.7675,
1046.616,6232.9297,
1043.705,6266.456,
1040.795,6269.142,
1037.884,6277.882,
1034.974,6285.5258,
1032.063,6304.526,
1029.153,6386.9118,
1026.242,6400.7511,
1023.331,6380.418,
1020.421,6379.0384,
1017.510,6459.8092,
1014.600,6517.5978,
1011.689,6558.0015,
1008.778,6700.7603,
1005.868,6851.4663,
1002.957,7098.3879,
1000.047,7336.4501,
997.136,7551.0335,
994.226,7658.6191,
991.315,7644.3713,
988.404,7567.5778,
985.494,7474.754,
982.583,7407.9426,
979.673,7345.5714,
976.762,7336.8178,
973.852,7351.3222,
970.941,7348.0984,
968.030,7322.857,
965.120,7342.8884,
962.209,7256.7817,
959.299,7297.4934,
956.388,7288.332,
953.477,7275.5808,
950.567,7283.0545,
947.656,7262.4944,
944.746,7325.3615,
941.835,7384.9369,
938.925,7403.5144,
936.014,7392.5927,
933.103,7383.4871,
930.193,7373.0721,
927.282,7297.042,
924.372,7237.8495,
921.461,7119.0536,
918.551,6999.0812,
915.640,6891.5316,
912.729,6812.979,
909.819,6778.469,
906.908,6749.8266,
903.998,6755.4083,
901.087,6778.8912,
898.176,6842.3099,
895.266,6936.6553,
892.355,7021.4488,
889.445,7033.1986,
886.534,7201.8941,
883.624,7299.8419,
880.713,7323.0843,
877.802,7318.3765,
874.892,7333.4423,
871.981,7372.435,
869.071,7295.577,
866.160,7253.2717,
863.250,7261.7423,
860.339,7268.3629,
857.428,7235.4932,
854.518,7192.3965,
851.607,7128.3271,
848.697,7073.9175,
845.786,7040.7569,
842.875,7056.2139,
839.965,7098.5507,
837.054,7055.2083,
834.144,7140.5698,
831.233,7125.9189,
828.323,7087.0051,
825.412,7025.2584,
822.501,6939.7392,
819.591,6909.1625,
816.680,6889.8205,
813.770,6805.0577,
810.859,6733.3342,
807.949,6679.7206,
805.038,6617.2412,
802.127,6633.7037,
799.217,6615.1244,
796.306,6589.5201,
793.396,6572.5248,
790.485,6565.5125,
787.574,6554.2847,
784.664,6528.8613,
781.753,6546.3925,
778.843,6550.8789,
775.932,6571.7187,
773.022,6638.4487,
770.111,6671.9694,
767.200,6634.6618,
764.290,6610.1146,
761.379,6612.2783,
758.469,6614.6013,
755.558,6558.5206,
752.648,6534.0825,
749.737,6512.9303,
746.826,6498.6553,
743.916,6456.23,
741.005,6349.8611,
738.095,6231.3271,
735.184,6054.9314,
732.274,6035.4772,
729.363,6137.4439,
726.452,6282.2231,
723.542,6414.9636,
720.631,6481.884,
717.721,6497.3858,
714.810,6488.0171,
711.899,6469.2896,
708.989,6439.4334,
706.078,6456.0774,
703.168,6425.6384,
700.257,6366.9437,
697.347,6318.7279,
694.436,6330.1371,
691.525,6289.143,
688.615,6351.9459,
685.704,6353.2391,
682.794,6295.9734,
679.883,6284.7093,
676.973,6272.6888,
674.062,6275.3547,
671.151,6280.0033,
668.241,6291.5417,
665.330,6321.0987,
662.420,6317.9038,
659.509,6328.0438,
656.598,6336.8465,
653.688,6347.3813,
650.777,6369.7379,
647.867,6325.1435,
644.956,6332.5862,
642.046,6338.2748,
639.135,6337.1191,
636.224,6359.2818,
633.314,6365.6333,
630.403,6397.993,
627.493,6446.1352,
624.582,6495.0769,
621.672,6521.2127,
618.761,6519.9702,
615.850,6544.5954,
612.940,6615.7971,
610.029,6706.9369,
607.119,6669.0346,
604.208,6713.5309,
601.297,6716.7989,
598.387,6702.2564,
595.476,6702.4219,
592.566,6651.2624,
589.655,6656.5036,
586.745,6680.7408,
583.834,6688.1966,
580.923,6638.3353,
578.013,6652.4605,
575.102,6618.9668,
572.192,6641.9844,
569.281,6732.4064,
566.371,6727.7107,
563.460,6800.6187,
560.549,6835.1482,
557.639,6855.0952,
554.728,6898.1022,
551.818,6895.7612,
548.907,6979.9584,
545.996,7046.3025,
543.086,7059.3783,
540.175,7032.1257,
537.265,7098.3323,
534.354,7172.4123,
531.444,7236.1335,
528.533,7282.6027,
525.622,7357.8696,
522.712,7444.0266,
519.801,7551.8783,
516.891,7654.3455,
513.980,7659.7656,
511.070,7769.4238,
508.159,7916.4941,
505.248,8064.3036,
502.338,8178.5258,
499.427,8290.4415,
496.517,8348.5328,
493.606,8396.8329,
490.695,8449.357,
487.785,8450.1268,
484.874,8443.7878,
481.964,8465.9973,
479.053,8494.1602,
476.143,8460.3699,
473.232,8434.5097,
470.321,8426.7097,
467.411,8415.0805,
464.500,8376.0367,
461.590,8367.6135,
458.679,8366.9009,
455.769,8384.9484,
452.858,8429.5216,
449.947,8508.9705,
447.037,8530.1041,
444.126,8527.3349,
441.216,8516.9854,
438.305,8515.4616,
435.395,8502.7929,
432.484,8509.1693,
429.573,8510.3873,
426.663,8438.1739,
423.752,8497.8074,
420.842,8472.8177,
417.931,8459.6697,
415.020,8637.1255,
412.110,8712.0216,
409.199,8752.8979,
406.289,8763.1005,
403.378,8744.2961,
400.468,8757.904,
397.557,8784.3584,
394.646,8810.3676,
391.736,8823.7912,
388.825,8809.4609,
385.915,8785.0266,
383.004,8782.9549,
380.094,8826.5496,
377.183,8910.8269,
374.272,9021.0949,
371.362,9092.7784,
368.451,9098.8697,
365.541,9257.2328,
362.630,9340.6718,
359.719,9368.3306,
356.809,9359.3699,
353.898,9443.9841,
350.988,9477.5572,
348.077,9499.028,
345.167,9529.7959,
342.256,9520.8311,
339.345,9573.519,
336.435,9630.5778,
333.524,9654.9746,
330.614,9741.4127,
327.703,9803.675,
324.793,9844.4682,
321.882,9865.4573,
318.971,9950.9532,
316.061,10018.338,
313.150,10074.417,
310.240,10126.365,
307.329,10206.86,
304.418,10261.96,
301.508,10287.887,
298.597,10279.002,
295.687,10335.138,
292.776,10468.084,
289.866,10674.478,
286.955,10950.762,
284.044,11200.872,
281.134,11441.002,
278.223,11673.8,
275.313,11896.33,
272.402,12123.33,
269.492,12365.099,
266.581,12624.538,
263.670,12880.38,
260.760,13130.293,
257.849,13351.557,
254.939,13524.02,
252.028,13620.35,
249.117,13680.919,
246.207,13738.472,
243.296,13847.546,
240.386,13859.903,
237.475,13801.085,
234.565,13706.135,
231.654,13705.405,
228.743,13623.548,
225.833,13548.92,
222.922,13513.192,
220.012,13447.622,
217.101,13335.468,
214.191,13232.508,
211.280,13203.409,
208.369,13265.167,
205.459,13283.075,
202.548,13273.278,
199.638,13331.33,
196.727,13372.637,
193.816,13375.587,
190.906,13335.958,
187.995,13441.665,
185.085,13497.637,
182.174,13521.796,
179.264,13531.192,
176.353,13573.26,
173.442,13591.899,
170.532,13563.5,
167.621,13385.419,
164.711,13181.682,
161.800,12898.461,
158.890,12480.299,
155.979,11687.895,
153.068,10704.642,
150.158,9556.5296,
147.247,8259.1898,
144.337,6803.1109,
141.426,5337.1552,
138.516,3928.4639,
135.605,2787.3295,
132.694,1906.6397,
129.784,1254.5376,
126.873,814.73276,
123.963,565.34129,
121.052,400.34017,
118.141,289.68536,
115.231,230.27266,
112.320,186.33911,
109.410,155.56841,
106.499,136.34022,
103.589,118.80389,
100.678,104.99054,
97.767,96.459289,
94.857,84.469186,
91.946,76.025113,
89.036,70.346817,
86.125,64.673175,
83.215,59.533558,
80.304,55.771135,
77.393,54.354795,
74.483,52.93973,
71.572,52.25,
68.662,51.903663,
65.751,48.371407,
62.840,47.25,
59.930,45.377138,
57.019,38.326318,
54.109,31.875552,
51.198,29.154828,
48.288,31.210363,
45.377,26.286716,
42.466,26.311097,
39.556,29.595356,
36.645,31.701926,
33.735,27.576764,
30.824,23.691774,
27.914,25.094124,
25.003,20.2689,
22.092,16.281286,
19.182,14.341531,
16.271,17.139492,
13.361,43.537479,
10.450,59.740777,
7.539,-47.799789,
4.629,-371.08789,
1.718,-731.35247,
-1.192,-1003.936,
-4.103,-734.91526,
-7.013,-375.18596,
-9.924,-0.75,
