,PL04B9~1,
Raman shift [1/cm],Intensity,
3014.167,-2.625,
3011.256,1.1250537,
3008.346,162.898,
3005.435,198.14532,
3002.525,211.30006,
2999.614,210.42435,
2996.704,225.77396,
2993.793,235.15495,
2990.882,224.23753,
2987.972,219.49608,
2985.061,244.70505,
2982.151,239.32962,
2979.240,275.31037,
2976.329,265.87773,
2973.419,286.59015,
2970.508,290.20837,
2967.598,306.42279,
2964.687,307.85258,
2961.777,311.99897,
2958.866,326.71378,
2955.955,326.20464,
2953.045,339.34595,
2950.134,358.24669,
2947.224,347.22906,
2944.313,380.41987,
2941.403,387.11314,
2938.492,383.5349,
2935.581,404.05227,
2932.671,398.01448,
2929.760,398.5827,
2926.850,412.74793,
2923.939,416.7301,
2921.028,433.375,
2918.118,426.11429,
2915.207,440.38791,
2912.297,430.47655,
2909.386,418.56478,
2906.476,432.11093,
2903.565,448.13427,
2900.654,423.48118,
2897.744,446.1487,
2894.833,429.61209,
2891.923,428.9423,
2889.012,433.41546,
2886.102,439.18716,
2883.191,422.39199,
2880.280,443.997,
2877.370,430.29941,
2874.459,434.72101,
2871.549,446.41442,
2868.638,444.32964,
2865.727,448.22112,
2862.817,459.91778,
2859.906,478.77956,
2856.996,460.89991,
2854.085,460.65652,
2851.175,470.11295,
2848.264,473.87016,
2845.353,471.5044,
2842.443,473.78127,
2839.532,440.43487,
2836.622,444.94792,
2833.711,430.32319,
2830.801,438.36765,
2827.890,454.23343,
2824.979,475.375,
2822.069,447.375,
2819.158,456.11625,
2816.248,460.66263,
2813.337,461.92134,
2810.427,458.85296,
2807.516,448.43266,
2804.605,440.60096,
2801.695,454.99344,
2798.784,470.70969,
2795.874,454.67053,
2792.963,453.08947,
2790.052,461.37414,
2787.142,441.15135,
2784.231,450.05201,
2781.321,449.6893,
2778.410,452.30013,
2775.500,445.54569,
2772.589,468.79778,
2769.678,456.48425,
2766.768,440.07014,
2763.857,466.05901,
2760.947,454.81511,
2758.036,473.33058,
2755.126,466.17842,
2752.215,470.14303,
2749.304,465.48111,
2746.394,465.77625,
2743.483,469.97493,
2740.573,463.08287,
2737.662,473.15163,
2734.751,470.14202,
2731.841,467.48306,
2728.930,477.803,
2726.020,481.27315,
2723.109,489.26158,
2720.199,476.02186,
2717.288,481.63778,
2714.377,491.34156,
2711.467,514.78489,
2708.556,505.07732,
2705.646,499.22007,
2702.735,494.35952,
2699.825,489.64595,
2696.914,514.13729,
2694.003,490.10019,
2691.093,511.8034,
2688.182,503.55648,
2685.272,502.72919,
2682.361,509.70469,
2679.450,510.53132,
2676.540,508.08634,
2673.629,531.09255,
2670.719,521.22159,
2667.808,516.00726,
2664.898,500.62209,
2661.987,510.84224,
2659.076,518.53665,
2656.166,527.93786,
2653.255,524.70154,
2650.345,519.0701,
2647.434,534.86057,
2644.524,542.50216,
2641.613,555.14621,
2638.702,560.23297,
2635.792,535.62426,
2632.881,535.02392,
2629.971,549.56975,
2627.060,547.37625,
2624.149,548.39998,
2621.239,556.86611,
2618.328,544.20545,
2615.418,545.02046,
2612.507,544.44618,
2609.597,567.43688,
2606.686,548.2706,
2603.775,570.13691,
2600.865,579.43303,
2597.954,568.14163,
2595.044,584.69652,
2592.133,591.04383,
2589.223,586.24236,
2586.312,587.9629,
2583.401,598.6414,
2580.491,582.38945,
2577.580,612.37335,
2574.670,605.84026,
2571.759,592.47603,
2568.848,595.02142,
2565.938,589.46995,
2563.027,616.66598,
2560.117,601.45912,
2557.206,604.375,
2554.296,597.77775,
2551.385,614.19305,
2548.474,610.52295,
2545.564,619.93182,
2542.653,613.84815,
2539.743,615.49823,
2536.832,634.82548,
2533.922,617.785,
2531.011,638.42542,
2528.100,625.375,
2525.190,634.07131,
2522.279,629.93778,
2519.369,637.75258,
2516.458,621.59172,
2513.548,655.0199,
2510.637,644.06759,
2507.726,640.31181,
2504.816,642.375,
2501.905,655.36037,
2498.995,643.10685,
2496.084,664.54918,
2493.173,654.69089,
2490.263,659.76822,
2487.352,674.1246,
2484.442,668.375,
2481.531,664.16228,
2478.621,662.67833,
2475.710,658.67404,
2472.799,692.19569,
2469.889,665.22539,
2466.978,669.97278,
2464.068,671.58662,
2461.157,673.49245,
2458.247,690.47803,
2455.336,692.8016,
2452.425,690.15802,
2449.515,700.07356,
2446.604,707.74144,
2443.694,699.74757,
2440.783,711.80405,
2437.872,706.08328,
2434.962,701.00172,
2432.051,708.375,
2429.141,709.08676,
2426.230,706.57057,
2423.320,696.44552,
2420.409,749.50291,
2417.498,998.14493,
2414.588,1802.3645,
2411.677,919.99222,
2408.767,747.86909,
2405.856,736.9941,
2402.946,731.16678,
2400.035,751.35623,
2397.124,735.30546,
2394.214,760.21141,
2391.303,747.91091,
2388.393,734.93776,
2385.482,733.24281,
2382.571,769.90702,
2379.661,755.51457,
2376.750,767.42417,
2373.840,773.66877,
2370.929,764.46164,
2368.019,775.03693,
2365.108,784.44568,
2362.197,777.16679,
2359.287,795.13991,
2356.376,774.41903,
2353.466,791.49478,
2350.555,801.3146,
2347.645,783.1909,
2344.734,798.92343,
2341.823,814.19258,
2338.913,798.57204,
2336.002,814.11662,
2333.092,831.14484,
2330.181,838.84816,
2327.270,824.14507,
2324.360,832.62738,
2321.449,823.31378,
2318.539,821.75725,
2315.628,833.11361,
2312.718,812.11067,
2309.807,842.23837,
2306.896,837.09957,
2303.986,821.7191,
2301.075,822.39625,
2298.165,828.97118,
2295.254,852.85797,
2292.344,848.32104,
2289.433,846.32091,
2286.522,852.39716,
2283.612,849.29334,
2280.701,863.60814,
2277.791,846.4971,
2274.880,870.80705,
2271.969,865.63015,
2269.059,880.75376,
2266.148,884.4568,
2263.238,889.67229,
2260.327,918.54703,
2257.417,886.30555,
2254.506,902.13852,
2251.595,888.24051,
2248.685,905.68068,
2245.774,921.58367,
2242.864,927.79147,
2239.953,916.41643,
2237.043,916.11606,
2234.132,918.15948,
2231.221,923.71875,
2228.311,925.15593,
2225.400,946.98096,
2222.490,940.6162,
2219.579,972.0331,
2216.669,970.37977,
2213.758,973.94102,
2210.847,989.27171,
2207.937,1011.5606,
2205.026,1023.7091,
2202.116,1004.7349,
2199.205,1012.1999,
2196.294,1032.4829,
2193.384,1032.4545,
2190.473,1042.6766,
2187.563,1065.5877,
2184.652,1104.706,
2181.742,1096.4,
2178.831,1145.091,
2175.920,1180.936,
2173.010,1256.4793,
2170.099,1306.8383,
2167.189,1379.8199,
2164.278,1452.6735,
2161.368,1538.3726,
2158.457,1623.1124,
2155.546,1741.0078,
2152.636,1819.3696,
2149.725,1905.1065,
2146.815,1990.9391,
2143.904,2036.3898,
2140.993,2088.4383,
2138.083,2140.2808,
2135.172,2144.8204,
2132.262,2138.8574,
2129.351,2114.7611,
2126.441,2078.4526,
2123.530,2030.3199,
2120.619,1921.2748,
2117.709,1795.3247,
2114.798,1707.894,
2111.888,1599.916,
2108.977,1490.3154,
2106.067,1368.994,
2103.156,1337.2548,
2100.245,1287.3499,
2097.335,1239.1865,
2094.424,1183.2046,
2091.514,1191.7997,
2088.603,1178.7299,
2085.692,1135.3194,
2082.782,1124.5115,
2079.871,1119.6959,
2076.961,1133.2772,
2074.050,1090.9265,
2071.140,1114.7778,
2068.229,1082.2799,
2065.318,1083.1647,
2062.408,1086.2237,
2059.497,1084.3512,
2056.587,1087.0144,
2053.676,1081.5756,
2050.766,1078.452,
2047.855,1039.4035,
2044.944,1044.2324,
2042.034,1068.901,
2039.123,1057.8531,
2036.213,1044.2395,
2033.302,1056.3532,
2030.391,1050.4261,
2027.481,1069.6674,
2024.570,1066.5753,
2021.660,1091.6603,
2018.749,1076.5772,
2015.839,1058.2582,
2012.928,1064.6284,
2010.017,1060.3088,
2007.107,1080.9077,
2004.196,1082.2441,
2001.286,1076.2266,
1998.375,1051.2411,
1995.465,1062.1071,
1992.554,1069.0044,
1989.643,1033.6539,
1986.733,1045.4452,
1983.822,1068.0427,
1980.912,1078.3047,
1978.001,1052.4251,
1975.090,1081.3903,
1972.180,1045.4469,
1969.269,1025.263,
1966.359,1067.4565,
1963.448,1055.4239,
1960.538,1028.1448,
1957.627,1048.4493,
1954.716,1037.7772,
1951.806,1041.8718,
1948.895,1045.5087,
1945.985,1010.0727,
1943.074,1026.4119,
1940.164,1024.9328,
1937.253,1017.6014,
1934.342,1009.9648,
1931.432,1021.5296,
1928.521,1015.881,
1925.611,1026.7904,
1922.700,1007.049,
1919.790,1008.9876,
1916.879,982.46748,
1913.968,1057.2803,
1911.058,1028.0447,
1908.147,1017.1312,
1905.237,985.50741,
1902.326,1024.4846,
1899.415,1030.047,
1896.505,1019.9773,
1893.594,1004.9207,
1890.684,1007.9894,
1887.773,995.78057,
1884.863,984.375,
1881.952,1004.6023,
1879.041,1040.6087,
1876.131,1017.6142,
1873.220,1036.5255,
1870.310,988.39303,
1867.399,931.23865,
1864.489,1022.5961,
1861.578,1003.842,
1858.667,1008.375,
1855.757,1008.5743,
1852.846,1007.1135,
1849.936,1010.351,
1847.025,1043.9589,
1844.114,1055.3279,
1841.204,1042.924,
1838.293,1046.3683,
1835.383,1065.1305,
1832.472,1060.7698,
1829.562,1053.8466,
1826.651,1077.5721,
1823.740,1083.0072,
1820.830,1070.5718,
1817.919,1069.0038,
1815.009,1054.819,
1812.098,1075.7136,
1809.188,1067.1192,
1806.277,1084.9545,
1803.366,1047.1403,
1800.456,1092.32,
1797.545,1089.2545,
1794.635,1075.2121,
1791.724,1120.0546,
1788.813,1106.366,
1785.903,1091.9757,
1782.992,1125.913,
1780.082,1104.6053,
1777.171,1125.7107,
1774.261,1140.5801,
1771.350,1142.6685,
1768.439,1138.738,
1765.529,1150.4657,
1762.618,1137.78,
1759.708,1140.7012,
1756.797,1169.3598,
1753.887,1148.0907,
1750.976,1127.0923,
1748.065,1150.6515,
1745.155,1164.0137,
1742.244,1180.2663,
1739.334,1166.4644,
1736.423,1164.147,
1733.512,1173.1962,
1730.602,1184.3512,
1727.691,1208.1018,
1724.781,1249.7709,
1721.870,1256.1559,
1718.960,1259.4862,
1716.049,1214.2314,
1713.138,1257.5297,
1710.228,1215.0275,
1707.317,1289.6401,
1704.407,1311.1558,
1701.496,1285.9401,
1698.586,1327.7263,
1695.675,1292.0752,
1692.764,1328.1906,
1689.854,1359.0758,
1686.943,1312.0613,
1684.033,1345.4809,
1681.122,1379.7973,
1678.211,1360.5653,
1675.301,1411.2177,
1672.390,1463.5126,
1669.480,1509.2146,
1666.569,1489.8955,
1663.659,1531.2896,
1660.748,1585.6809,
1657.837,1551.9278,
1654.927,1621.539,
1652.016,1628.9582,
1649.106,1652.6933,
1646.195,1665.5908,
1643.285,1676.403,
1640.374,1764.2739,
1637.463,1807.1676,
1634.553,1851.1287,
1631.642,1902.3196,
1628.732,1989.1394,
1625.821,2117.4018,
1622.911,2158.144,
1620.000,2343.019,
1617.089,2396.3402,
1614.179,2592.7066,
1611.268,2733.1701,
1608.358,2847.0372,
1605.447,2968.3474,
1602.536,3046.1984,
1599.626,3075.2933,
1596.715,3102.7878,
1593.805,3042.7718,
1590.894,3053.8691,
1587.984,3068.5003,
1585.073,3020.1768,
1582.162,2981.3191,
1579.252,2927.0952,
1576.341,2982.8633,
1573.431,2937.5042,
1570.520,2920.375,
1567.610,2881.6293,
1564.699,2855.3245,
1561.788,2823.6147,
1558.878,2769.3609,
1555.967,2717.0024,
1553.057,2646.1514,
1550.146,2620.2914,
1547.235,2546.0422,
1544.325,2511.6031,
1541.414,2521.5145,
1538.504,2448.5255,
1535.593,2392.1395,
1532.683,2371.5144,
1529.772,2335.0813,
1526.861,2318.4888,
1523.951,2278.4844,
1521.040,2217.2011,
1518.130,2153.0128,
1515.219,2151.7744,
1512.309,2149.0956,
1509.398,2089.1238,
1506.487,2131.588,
1503.577,2096.522,
1500.666,2089.876,
1497.756,2032.816,
1494.845,2059.5334,
1491.934,1991.2648,
1489.024,1957.5775,
1486.113,1986.9731,
1483.203,1937.8613,
1480.292,1926.2839,
1477.382,1913.2513,
1474.471,1888.121,
1471.560,1852.3484,
1468.650,1843.4248,
1465.739,1810.429,
1462.829,1810.4732,
1459.918,1821.7175,
1457.008,1830.529,
1454.097,1807.5618,
1451.186,1799.7328,
1448.276,1850.4923,
1445.365,1851.8371,
1442.455,1820.4552,
1439.544,1807.5993,
1436.633,1814.667,
1433.723,1846.1197,
1430.812,1851.7994,
1427.902,1769.7583,
1424.991,1785.8703,
1422.081,1723.9866,
1419.170,1718.375,
1416.259,1715.9448,
1413.349,1734.256,
1410.438,1696.2889,
1407.528,1694.1123,
1404.617,1671.0829,
1401.707,1660.0337,
1398.796,1677.9274,
1395.885,1684.3081,
1392.975,1701.5633,
1390.064,1737.4921,
1387.154,1733.2721,
1384.243,1709.9926,
1381.332,1646.9788,
1378.422,1776.2394,
1375.511,1851.1819,
1372.601,1855.1397,
1369.690,1852.8033,
1366.780,1952.9635,
1363.869,1993.1781,
1360.958,2046.5708,
1358.048,2124.1798,
1355.137,2159.3236,
1352.227,2184.4536,
1349.316,2232.8723,
1346.406,2288.7938,
1343.495,2358.3437,
1340.584,2398.4098,
1337.674,2462.663,
1334.763,2498.9396,
1331.853,2513.7753,
1328.942,2560.6271,
1326.032,2616.9435,
1323.121,2712.8449,
1320.210,2697.7583,
1317.300,2722.0033,
1314.389,2768.2503,
1311.479,2823.3164,
1308.568,2882.0445,
1305.657,2904.1419,
1302.747,2960.4028,
1299.836,3055.5373,
1296.926,3147.417,
1294.015,3255.8972,
1291.105,3307.9243,
1288.194,3356.7084,
1285.283,3462.6034,
1282.373,3555.4295,
1279.462,3637.3348,
1276.552,3704.3909,
1273.641,3761.3271,
1270.731,3800.9645,
1267.820,3784.1428,
1264.909,3761.3421,
1261.999,3769.5734,
1259.088,3802.4097,
1256.178,3766.6909,
1253.267,3698.2322,
1250.356,3610.9724,
1247.446,3456.9225,
1244.535,3346.5983,
1241.625,3231.3493,
1238.714,3087.4773,
1235.804,3032.3558,
1232.893,2913.0129,
1229.982,2853.5471,
1227.072,2829.1036,
1224.161,2824.8535,
1221.251,2746.946,
1218.340,2676.3238,
1215.430,2606.6806,
1212.519,2591.5602,
1209.608,2590.7337,
1206.698,2553.6519,
1203.787,2593.6212,
1200.877,2602.771,
1197.966,2641.4348,
1195.055,2740.6453,
1192.145,2784.4234,
1189.234,2887.4499,
1186.324,2940.557,
1183.413,2961.8065,
1180.503,2973.5593,
1177.592,2934.9,
1174.681,2886.9538,
1171.771,2862.6538,
1168.860,2831.3957,
1165.950,2812.2492,
1163.039,2778.3437,
1160.129,2760.0663,
1157.218,2718.8776,
1154.307,2682.4563,
1151.397,2681.8153,
1148.486,2653.4816,
1145.576,2612.8331,
1142.665,2577.3166,
1139.754,2558.1024,
1136.844,2529.1641,
1133.933,2501.9528,
1131.023,2497.9285,
1128.112,2501.7328,
1125.202,2487.8195,
1122.291,2477.0179,
1119.380,2523.1845,
1116.470,2503.7688,
1113.559,2495.189,
1110.649,2509.7461,
1107.738,2517.8392,
1104.828,2534.4351,
1101.917,2552.1617,
1099.006,2529.8391,
1096.096,2495.1813,
1093.185,2508.3513,
1090.275,2527.9882,
1087.364,2511.1052,
1084.453,2505.8747,
1081.543,2508.0603,
1078.632,2506.6884,
1075.722,2508.8795,
1072.811,2517.1745,
1069.901,2542.4991,
1066.990,2542.7583,
1064.079,2570.9566,
1061.169,2586.0319,
1058.258,2592.8803,
1055.348,2616.2488,
1052.437,2661.5905,
1049.527,2699.1806,
1046.616,2720.0325,
1043.705,2766.3086,
1040.795,2777.4595,
1037.884,2754.1225,
1034.974,2751.741,
1032.063,2780.3213,
1029.153,2765.7132,
1026.242,2751.8739,
1023.331,2817.2041,
1020.421,2824.7982,
1017.510,2836.9422,
1014.600,2850.4897,
1011.689,2875.6105,
1008.778,2940.6115,
1005.868,2995.5179,
1002.957,3122.8503,
1000.047,3247.207,
997.136,3322.2019,
994.226,3380.3899,
991.315,3401.5854,
988.404,3348.917,
985.494,3310.1065,
982.583,3298.1147,
979.673,3264.1825,
976.762,3241.8072,
973.852,3237.9111,
970.941,3256.0085,
968.030,3280.8604,
965.120,3238.486,
962.209,3264.9148,
959.299,3271.4997,
956.388,3250.5364,
953.477,3241.1845,
950.567,3249.2379,
947.656,3248.0623,
944.746,3306.6817,
941.835,3273.7432,
938.925,3302.8839,
936.014,3309.2235,
933.103,3282.9574,
930.193,3258.1752,
927.282,3253.3879,
924.372,3179.8201,
921.461,3129.1366,
918.551,3096.947,
915.640,3066.1024,
912.729,3032.7876,
909.819,3003.8148,
906.908,2961.6935,
903.998,2997.5525,
901.087,3001.6464,
898.176,2995.5118,
895.266,3006.3406,
892.355,3055.0651,
889.445,3154.9379,
886.534,3207.1371,
883.624,3205.264,
880.713,3229.486,
877.802,3255.2485,
874.892,3251.3973,
871.981,3260.6315,
869.071,3271.4918,
866.160,3246.4666,
863.250,3212.3585,
860.339,3210.6317,
857.428,3234.0009,
854.518,3193.7491,
851.607,3172.1153,
848.697,3179.3801,
845.786,3162.0595,
842.875,3151.1624,
839.965,3166.3215,
837.054,3152.6448,
834.144,3176.6786,
831.233,3150.7106,
828.323,3105.7007,
825.412,3060.5647,
822.501,3031.907,
819.591,3045.9558,
816.680,3006.3108,
813.770,2968.1824,
810.859,2945.0576,
807.949,2920.5627,
805.038,2876.6737,
802.127,2879.1431,
799.217,2862.9764,
796.306,2865.8886,
793.396,2866.1459,
790.485,2850.6893,
787.574,2829.4996,
784.664,2832.78,
781.753,2823.3102,
778.843,2847.2899,
775.932,2878.9182,
773.022,2887.9541,
770.111,2923.9275,
767.200,2932.4655,
764.290,2906.059,
761.379,2863.3184,
758.469,2826.236,
755.558,2814.6911,
752.648,2825.2809,
749.737,2797.3467,
746.826,2775.7803,
743.916,2764.0697,
741.005,2733.1345,
738.095,2580.5016,
735.184,2465.1269,
732.274,2385.355,
729.363,2418.6472,
726.452,2578.8631,
723.542,2697.8439,
720.631,2728.8402,
717.721,2752.4147,
714.810,2786.8351,
711.899,2816.9789,
708.989,2789.5435,
706.078,2783.7659,
703.168,2747.1562,
700.257,2735.1019,
697.347,2750.5924,
694.436,2750.6331,
691.525,2723.3037,
688.615,2714.8594,
685.704,2709.4898,
682.794,2692.673,
679.883,2655.6726,
676.973,2684.5219,
674.062,2703.1366,
671.151,2705.5534,
668.241,2706.5224,
665.330,2728.543,
662.420,2710.9709,
659.509,2722.6133,
656.598,2741.761,
653.688,2757.6754,
650.777,2765.483,
647.867,2768.6683,
644.956,2743.3707,
642.046,2722.3998,
639.135,2728.1612,
636.224,2776.2636,
633.314,2754.0333,
630.403,2787.9861,
627.493,2801.5483,
624.582,2785.0253,
621.672,2810.3691,
618.761,2843.2925,
615.850,2856.1299,
612.940,2856.6673,
610.029,2854.5587,
607.119,2861.6654,
604.208,2895.0356,
601.297,2908.375,
598.387,2898.9161,
595.476,2875.6721,
592.566,2878.8204,
589.655,2870.9524,
586.745,2852.054,
583.834,2824.8112,
580.923,2794.6119,
578.013,2833.8486,
575.102,2821.4315,
572.192,2801.1594,
569.281,2801.1396,
566.371,2833.2272,
563.460,2856.8336,
560.549,2873.6587,
557.639,2886.9406,
554.728,2901.3459,
551.818,2932.5585,
548.907,2932.062,
545.996,2921.1544,
543.086,2921.6085,
540.175,2969.1059,
537.265,2934.7125,
534.354,2954.49,
531.444,2994.7841,
528.533,3014.8515,
525.622,3063.7362,
522.712,3068.9142,
519.801,3112.7281,
516.891,3186.0884,
513.980,3169.8282,
511.070,3232.4706,
508.159,3304.2662,
505.248,3374.6558,
502.338,3438.0587,
499.427,3427.2531,
496.517,3499.6072,
493.606,3573.1901,
490.695,3603.7331,
487.785,3599.1143,
484.874,3597.0826,
481.964,3595.5444,
479.053,3587.5723,
476.143,3559.1576,
473.232,3537.9511,
470.321,3545.9454,
467.411,3549.2055,
464.500,3511.5192,
461.590,3556.6979,
458.679,3520.9491,
455.769,3522.3333,
452.858,3612.568,
449.947,3624.027,
447.037,3639.7237,
444.126,3652.8114,
441.216,3653.8929,
438.305,3616.5582,
435.395,3684.8063,
432.484,3730.8765,
429.573,3742.085,
426.663,3745.1256,
423.752,3798.3788,
420.842,3821.375,
417.931,3821.8059,
415.020,3823.3227,
412.110,3867.2718,
409.199,3884.353,
406.289,3901.1177,
403.378,3949.4006,
400.468,3956.9606,
397.557,3954.7477,
394.646,3936.9077,
391.736,3900.5199,
388.825,3905.0453,
385.915,3865.3961,
383.004,3831.6593,
380.094,3842.1736,
377.183,3936.2332,
374.272,4041.0782,
371.362,4102.0771,
368.451,4091.4266,
365.541,4125.2007,
362.630,4128.3664,
359.719,4128.4064,
356.809,4141.5077,
353.898,4160.2277,
350.988,4171.8848,
348.077,4179.9887,
345.167,4184.937,
342.256,4156.5484,
339.345,4191.9525,
336.435,4216.2178,
333.524,4180.8547,
330.614,4227.7996,
327.703,4232.1069,
324.793,4229.0776,
321.882,4248.3498,
318.971,4237.9416,
316.061,4275.8817,
313.150,4318.9131,
310.240,4317.4289,
307.329,4396.6997,
304.418,4402.3857,
301.508,4360.1504,
298.597,4317.9466,
295.687,4327.2426,
292.776,4375.4586,
289.866,4460.8424,
286.955,4586.4257,
284.044,4735.9349,
281.134,4839.0357,
278.223,4896.662,
275.313,4980.6635,
272.402,5069.2452,
269.492,5151.7434,
266.581,5225.0505,
263.670,5304.4499,
260.760,5359.2404,
257.849,5407.3654,
254.939,5461.6727,
252.028,5531.1403,
249.117,5556.9182,
246.207,5559.9738,
243.296,5573.8825,
240.386,5531.6246,
237.475,5521.8215,
234.565,5540.4991,
231.654,5522.2396,
228.743,5467.7426,
225.833,5401.1049,
222.922,5335.3602,
220.012,5356.4883,
217.101,5330.497,
214.191,5289.3811,
211.280,5266.1023,
208.369,5275.8128,
205.459,5287.763,
202.548,5301.3862,
199.638,5324.6069,
196.727,5394.4874,
193.816,5458.3292,
190.906,5494.0799,
187.995,5457.1546,
185.085,5503.482,
182.174,5561.3438,
179.264,5531.7104,
176.353,5538.6275,
173.442,5539.2992,
170.532,5523.1504,
167.621,5461.1465,
164.711,5372.3722,
161.800,5237.3321,
158.890,5032.2097,
155.979,4743.0126,
153.068,4334.6755,
150.158,3833.4288,
147.247,3316.5032,
144.337,2777.0115,
141.426,2202.6233,
138.516,1582.5124,
135.605,1127.9554,
132.694,768.33932,
129.784,497.90185,
126.873,331.2766,
123.963,237.05357,
121.052,168.14528,
118.141,109.60532,
115.231,84.505038,
112.320,71.833184,
109.410,64.693408,
106.499,45.465217,
103.589,46.41729,
100.678,45.214188,
97.767,31.706374,
94.857,32.760978,
91.946,33.375,
89.036,32.358919,
86.125,25.976071,
83.215,24.90592,
80.304,26.332731,
77.393,29.16541,
74.483,28.06473,
71.572,25.563239,
68.662,21.54379,
65.751,13.066377,
62.840,11.338404,
59.930,14.622434,
57.019,23.083418,
54.109,17.20907,
51.198,12.073391,
48.288,11.358013,
45.377,9.2478785,
42.466,15.382729,
39.556,24.799407,
36.645,21.288456,
33.735,16.221012,
30.824,13.037661,
27.914,15.141187,
25.003,12.88445,
22.092,10.729191,
19.182,9.6267115,
16.271,17.321103,
13.361,57.88476,
10.450,104.32703,
7.539,74.997785,
4.629,-101.46327,
1.718,-360.11902,
-1.192,-687.77695,
-4.103,-566.16191,
-7.013,-321.07873,
-9.924,-1.625,
