,PL5A48~1,
Wavenumbers [1/cm],Intensity,
3014.167,-5.625,
3011.256,2.0749356,
3008.346,73.701492,
3005.435,84.72129,
3002.525,75.072427,
2999.614,96.424346,
2996.704,92.693557,
2993.793,87.241936,
2990.882,90.550588,
2987.972,116.23879,
2985.061,89.81835,
2982.151,97.420384,
2979.240,102.75616,
2976.329,113.62363,
2973.419,107.03636,
2970.508,119.30831,
2967.598,117.80512,
2964.687,126.85258,
2961.777,121.03306,
2958.866,130.71378,
2955.955,125.65155,
2953.045,126.00811,
2950.134,139.53538,
2947.224,134.97285,
2944.313,147.28526,
2941.403,132.16058,
2938.492,147.24764,
2935.581,140.99343,
2932.671,141.29777,
2929.760,147.89037,
2926.850,140.42726,
2923.939,156.69274,
2921.028,160.52202,
2918.118,161.11429,
2915.207,164.20422,
2912.297,152.45116,
2909.386,153.99543,
2906.476,170.43679,
2903.565,157.53648,
2900.654,157.43364,
2897.744,153.70188,
2894.833,168.24119,
2891.923,152.375,
2889.012,167.21315,
2886.102,160.4358,
2883.191,156.38444,
2880.280,104.87259,
2877.370,52.032019,
2874.459,70.482063,
2871.549,88.151239,
2868.638,136.83475,
2865.727,145.74422,
2862.817,154.20387,
2859.906,175.83084,
2856.996,170.41576,
2854.085,157.85399,
2851.175,170.35387,
2848.264,172.816,
2845.353,181.375,
2842.443,182.97221,
2839.532,181.49443,
2836.622,180.85807,
2833.711,166.59006,
2830.801,183.85662,
2827.890,189.03932,
2824.979,179.30099,
2822.069,192.52284,
2819.158,198.15397,
2816.248,177.40974,
2813.337,198.48841,
2810.427,190.7717,
2807.516,201.57625,
2804.605,187.64424,
2801.695,194.71709,
2798.784,198.70969,
2795.874,184.21403,
2792.963,200.08926,
2790.052,186.37779,
2787.142,192.86188,
2784.231,193.11724,
2781.321,207.80349,
2778.410,188.93971,
2775.500,199.97017,
2772.589,181.45297,
2769.678,205.26575,
2766.768,195.70701,
2763.857,191.32298,
2760.947,198.38761,
2758.036,206.30497,
2755.126,195.65065,
2752.215,212.27033,
2749.304,213.84261,
2746.394,209.58669,
2743.483,204.32503,
2740.573,210.90824,
2737.662,216.57767,
2734.751,204.49149,
2731.841,213.40248,
2728.930,217.92586,
2726.020,213.59433,
2723.109,222.014,
2720.199,223.80624,
2717.288,230.26916,
2714.377,214.34614,
2711.467,230.22774,
2708.556,227.279,
2705.646,224.54398,
2702.735,230.85179,
2699.825,226.47144,
2696.914,230.80316,
2694.003,241.65955,
2691.093,235.64217,
2688.182,234.17648,
2685.272,230.62251,
2682.361,228.89793,
2679.450,245.34212,
2676.540,226.375,
2673.629,228.03418,
2670.719,233.30199,
2667.808,242.93728,
2664.898,245.661,
2661.987,240.14188,
2659.076,243.13793,
2656.166,239.90746,
2653.255,243.81888,
2650.345,239.10277,
2647.434,261.46074,
2644.524,254.26705,
2641.613,254.40391,
2638.702,243.64328,
2635.792,257.31418,
2632.881,258.23191,
2629.971,264.88505,
2627.060,239.70625,
2624.149,255.91563,
2621.239,263.6413,
2618.328,250.64662,
2615.418,275.39318,
2612.507,255.58453,
2609.597,267.44686,
2606.686,267.4794,
2603.775,257.13691,
2600.865,260.31697,
2597.954,254.7104,
2595.044,265.00919,
2592.133,269.31764,
2589.223,276.2908,
2586.312,270.15887,
2583.401,286.6414,
2580.491,280.55288,
2577.580,280.3948,
2574.670,289.60763,
2571.759,268.06165,
2568.848,285.1873,
2565.938,278.94639,
2563.027,284.00909,
2560.117,278.92639,
2557.206,282.70341,
2554.296,292.03175,
2551.385,296.50706,
2548.474,297.33782,
2545.564,312.77354,
2542.653,295.36494,
2539.743,287.35035,
2536.832,285.5993,
2533.922,310.40654,
2531.011,311.55007,
2528.100,306.70949,
2525.190,313.07131,
2522.279,310.375,
2519.369,305.24324,
2516.458,291.1512,
2513.548,291.80224,
2510.637,316.32979,
2507.726,300.68727,
2504.816,301.375,
2501.905,319.22988,
2498.995,323.61388,
2496.084,324.6154,
2493.173,314.50646,
2490.263,323.34112,
2487.352,342.91593,
2484.442,332.94459,
2481.531,332.26864,
2478.621,336.5172,
2475.710,306.52836,
2472.799,329.33461,
2469.889,343.70742,
2466.978,343.60186,
2464.068,357.65548,
2461.157,340.68494,
2458.247,351.22795,
2455.336,356.33195,
2452.425,342.32781,
2449.515,343.00701,
2446.604,344.95792,
2443.694,360.93341,
2440.783,362.32658,
2437.872,376.26561,
2434.962,372.58698,
2432.051,365.98603,
2429.141,360.66324,
2426.230,375.33194,
2423.320,373.9609,
2420.409,375.82995,
2417.498,378.81038,
2414.588,372.82746,
2411.677,377.44268,
2408.767,354.14567,
2405.856,357.96786,
2402.946,368.01217,
2400.035,374.27406,
2397.124,370.17178,
2394.214,379.18461,
2391.303,367.30318,
2388.393,364.88197,
2385.482,345.25624,
2382.571,387.40062,
2379.661,383.70047,
2376.750,389.16567,
2373.840,394.78746,
2370.929,420.12592,
2368.019,396.25494,
2365.108,389.74673,
2362.197,397.55584,
2359.287,395.58503,
2356.376,402.36091,
2353.466,407.78426,
2350.555,404.18996,
2347.645,415.9922,
2344.734,419.85886,
2341.823,403.62375,
2338.913,421.40183,
2336.002,407.64525,
2333.092,422.24858,
2330.181,429.67421,
2327.270,408.75013,
2324.360,414.34203,
2321.449,395.48386,
2318.539,411.39641,
2315.628,428.41617,
2312.718,427.42566,
2309.807,401.76597,
2306.896,431.60348,
2303.986,420.76459,
2301.075,421.69413,
2298.165,447.51966,
2295.254,435.76277,
2292.344,434.7401,
2289.433,451.07,
2286.522,459.40178,
2283.612,446.57396,
2280.701,444.70235,
2277.791,447.45702,
2274.880,474.87297,
2271.969,474.95936,
2269.059,459.11341,
2266.148,460.67049,
2263.238,472.37113,
2260.327,470.85782,
2257.417,474.76556,
2254.506,472.03884,
2251.595,480.375,
2248.685,487.74036,
2245.774,514.70425,
2242.864,478.02337,
2239.953,487.375,
2237.043,482.69929,
2234.132,485.83729,
2231.221,507.16576,
2228.311,495.84796,
2225.400,509.79718,
2222.490,516.57678,
2219.579,493.99974,
2216.669,525.33207,
2213.758,531.11356,
2210.847,512.44807,
2207.937,524.6828,
2205.026,518.37383,
2202.116,546.70409,
2199.205,540.49971,
2196.294,544.12701,
2193.384,545.217,
2190.473,542.94307,
2187.563,573.3025,
2184.652,557.92316,
2181.742,554.78402,
2178.831,569.64355,
2175.920,590.95788,
2173.010,583.39938,
2170.099,623.70339,
2167.189,600.64049,
2164.278,636.9348,
2161.368,650.37307,
2158.457,686.56236,
2155.546,698.75292,
2152.636,746.51852,
2149.725,780.51592,
2146.815,769.87553,
2143.904,786.98465,
2140.993,809.21099,
2138.083,818.87037,
2135.172,814.11431,
2132.262,822.30194,
2129.351,824.7404,
2126.441,797.17105,
2123.530,803.30766,
2120.619,791.73304,
2117.709,751.62862,
2114.798,730.60568,
2111.888,708.63793,
2108.977,679.03062,
2106.067,668.89176,
2103.156,653.53797,
2100.245,645.37061,
2097.335,638.85667,
2094.424,631.12558,
2091.514,597.87771,
2088.603,598.57778,
2085.692,597.92145,
2082.782,605.32276,
2079.871,618.87558,
2076.961,621.375,
2074.050,614.76288,
2071.140,614.97329,
2068.229,590.52601,
2065.318,614.97873,
2062.408,606.67075,
2059.497,598.73211,
2056.587,600.68869,
2053.676,593.49252,
2050.766,607.91237,
2047.855,608.46044,
2044.944,613.90224,
2042.034,628.24202,
2039.123,613.89352,
2036.213,599.375,
2033.302,606.98358,
2030.391,603.71425,
2027.481,609.53343,
2024.570,611.68933,
2021.660,650.89157,
2018.749,619.51471,
2015.839,646.89534,
2012.928,638.29446,
2010.017,639.10247,
2007.107,651.54139,
2004.196,670.76784,
2001.286,656.70717,
1998.375,648.2874,
1995.465,652.88125,
1992.554,621.06941,
1989.643,623.13305,
1986.733,630.87325,
1983.822,655.96437,
1980.912,652.15757,
1978.001,658.34159,
1975.090,648.72768,
1972.180,658.68618,
1969.269,652.20547,
1966.359,664.10486,
1963.448,663.53088,
1960.538,666.24406,
1957.627,657.56694,
1954.716,657.34627,
1951.806,649.56727,
1948.895,665.87105,
1945.985,626.68546,
1943.074,652.42289,
1940.164,653.63435,
1937.253,646.57905,
1934.342,646.71672,
1931.432,650.31191,
1928.521,672.21956,
1925.611,650.86876,
1922.700,643.74931,
1919.790,672.79664,
1916.879,637.37423,
1913.968,675.32459,
1911.058,666.30893,
1908.147,668.29765,
1905.237,685.38969,
1902.326,671.04612,
1899.415,646.48597,
1896.505,647.64627,
1893.594,666.8323,
1890.684,666.02203,
1887.773,673.26286,
1884.863,689.40689,
1881.952,677.1477,
1879.041,685.01779,
1876.131,668.38677,
1873.220,635.48108,
1870.310,677.78747,
1867.399,707.94317,
1864.489,705.86873,
1861.578,692.25421,
1858.667,680.34806,
1855.757,680.95137,
1852.846,705.86731,
1849.936,693.51515,
1847.025,688.07571,
1844.114,715.39854,
1841.204,711.45192,
1838.293,716.8459,
1835.383,734.375,
1832.472,718.36283,
1829.562,706.7362,
1826.651,728.25588,
1823.740,702.70444,
1820.830,713.29647,
1817.919,729.33314,
1815.009,742.50604,
1812.098,744.375,
1809.188,734.99518,
1806.277,749.04302,
1803.366,720.50809,
1800.456,729.5291,
1797.545,750.57352,
1794.635,760.82698,
1791.724,750.375,
1788.813,754.78066,
1785.903,772.60949,
1782.992,759.42563,
1780.082,737.34191,
1777.171,761.03452,
1774.261,738.75509,
1771.350,761.01776,
1768.439,794.01479,
1765.529,788.37124,
1762.618,786.11567,
1759.708,805.79888,
1756.797,802.375,
1753.887,787.70736,
1750.976,771.06806,
1748.065,817.14457,
1745.155,822.18809,
1742.244,812.67209,
1739.334,813.32088,
1736.423,837.81048,
1733.512,818.54158,
1730.602,855.9961,
1727.691,862.39541,
1724.781,855.44212,
1721.870,843.91303,
1718.960,821.64143,
1716.049,856.80681,
1713.138,847.27508,
1710.228,833.93144,
1707.317,849.18186,
1704.407,870.24134,
1701.496,882.40203,
1698.586,875.98312,
1695.675,893.15346,
1692.764,938.87093,
1689.854,927.0246,
1686.943,915.74598,
1684.033,900.74754,
1681.122,917.08613,
1678.211,935.20369,
1675.301,910.45209,
1672.390,987.24042,
1669.480,942.7039,
1666.569,983.3623,
1663.659,982.91397,
1660.748,1015.6257,
1657.837,1027.4783,
1654.927,987.96073,
1652.016,1013.2984,
1649.106,1050.4484,
1646.195,1054.0703,
1643.285,1081.8737,
1640.374,1062.1102,
1637.463,1143.4651,
1634.553,1148.375,
1631.642,1148.8093,
1628.732,1188.535,
1625.821,1215.3959,
1622.911,1247.1947,
1620.000,1326.3671,
1617.089,1419.5043,
1614.179,1445.67,
1611.268,1540.7316,
1608.358,1588.2211,
1605.447,1646.9469,
1602.536,1691.378,
1599.626,1722.8929,
1596.715,1679.0873,
1593.805,1623.3981,
1590.894,1649.9598,
1587.984,1596.3468,
1585.073,1635.0207,
1582.162,1570.7399,
1579.252,1607.1097,
1576.341,1537.4676,
1573.431,1493.0966,
1570.520,1513.8926,
1567.610,1516.4141,
1564.699,1478.8485,
1561.788,1477.3467,
1558.878,1457.7955,
1555.967,1454.303,
1553.057,1422.6512,
1550.146,1428.8004,
1547.235,1439.4717,
1544.325,1402.5742,
1541.414,1362.7935,
1538.504,1364.7615,
1535.593,1365.2283,
1532.683,1353.2126,
1529.772,1327.3442,
1526.861,1293.996,
1523.951,1293.0388,
1521.040,1295.0501,
1518.130,1296.3176,
1515.219,1251.5345,
1512.309,1267.1273,
1509.398,1267.2343,
1506.487,1268.9263,
1503.577,1255.1743,
1500.666,1216.0612,
1497.756,1238.8243,
1494.845,1256.6552,
1491.934,1263.3435,
1489.024,1253.7186,
1486.113,1281.1915,
1483.203,1245.1838,
1480.292,1215.7682,
1477.382,1226.7317,
1474.471,1214.26,
1471.560,1204.2953,
1468.650,1215.3572,
1465.739,1200.8793,
1462.829,1205.4891,
1459.918,1214.7175,
1457.008,1196.6209,
1454.097,1178.5264,
1451.186,1186.3557,
1448.276,1205.5406,
1445.365,1199.2652,
1442.455,1187.054,
1439.544,1213.8,
1436.633,1144.2509,
1433.723,1236.1167,
1430.812,1253.6018,
1427.902,1232.0064,
1424.991,1258.5437,
1422.081,1210.7487,
1419.170,1190.8219,
1416.259,1204.5763,
1413.349,1175.1444,
1410.438,1195.1653,
1407.528,1214.1687,
1404.617,1179.7988,
1401.707,1175.6325,
1398.796,1216.6162,
1395.885,1229.6269,
1392.975,1218.6252,
1390.064,1224.9035,
1387.154,1214.8325,
1384.243,1196.479,
1381.332,1219.6749,
1378.422,1286.6648,
1375.511,1292.2855,
1372.601,1285.0024,
1369.690,1316.9495,
1366.780,1297.8219,
1363.869,1337.1431,
1360.958,1371.5406,
1358.048,1404.1075,
1355.137,1427.2089,
1352.227,1464.4863,
1349.316,1508.7628,
1346.406,1521.0136,
1343.495,1524.368,
1340.584,1530.1964,
1337.674,1532.6982,
1334.763,1560.9748,
1331.853,1576.7378,
1328.942,1569.3698,
1326.032,1573.2687,
1323.121,1589.9353,
1320.210,1605.3638,
1317.300,1642.8378,
1314.389,1649.4441,
1311.479,1670.6369,
1308.568,1719.5301,
1305.657,1726.7465,
1302.747,1757.4137,
1299.836,1839.8295,
1296.926,1807.7596,
1294.015,1816.0335,
1291.105,1863.0437,
1288.194,1940.4631,
1285.283,1970.5471,
1282.373,1973.4766,
1279.462,1978.9631,
1276.552,2006.6743,
1273.641,2038.0691,
1270.731,2062.6646,
1267.820,2106.0227,
1264.909,2131.9795,
1261.999,2133.8784,
1259.088,2065.4693,
1256.178,2054.5233,
1253.267,2041.0999,
1250.356,1986.581,
1247.446,1985.8441,
1244.535,1968.6787,
1241.625,1923.475,
1238.714,1894.6092,
1235.804,1858.7294,
1232.893,1825.7587,
1229.982,1786.8963,
1227.072,1802.2866,
1224.161,1745.3802,
1221.251,1741.8201,
1218.340,1728.8275,
1215.430,1698.9041,
1212.519,1675.9419,
1209.608,1660.5156,
1206.698,1655.8646,
1203.787,1687.5056,
1200.877,1679.1581,
1197.966,1707.9312,
1195.055,1752.0374,
1192.145,1787.926,
1189.234,1832.4098,
1186.324,1852.466,
1183.413,1866.6237,
1180.503,1874.6064,
1177.592,1855.981,
1174.681,1842.6319,
1171.771,1783.3228,
1168.860,1824.405,
1165.950,1771.1284,
1163.039,1755.2798,
1160.129,1756.7344,
1157.218,1760.7787,
1154.307,1742.2266,
1151.397,1712.1099,
1148.486,1738.4154,
1145.576,1792.5225,
1142.665,1726.8169,
1139.754,1742.5293,
1136.844,1741.0723,
1133.933,1728.4044,
1131.023,1730.8169,
1128.112,1760.6579,
1125.202,1791.0272,
1122.291,1776.247,
1119.380,1768.3663,
1116.470,1767.4838,
1113.559,1796.7585,
1110.649,1801.4459,
1107.738,1794.0168,
1104.828,1794.7843,
1101.917,1792.9071,
1099.006,1768.7977,
1096.096,1761.4825,
1093.185,1763.2385,
1090.275,1767.4214,
1087.364,1762.1999,
1084.453,1766.687,
1081.543,1773.6897,
1078.632,1787.284,
1075.722,1811.6825,
1072.811,1803.8786,
1069.901,1796.8925,
1066.990,1820.6249,
1064.079,1837.2632,
1061.169,1878.2746,
1058.258,1889.5886,
1055.348,1867.7267,
1052.437,1879.4426,
1049.527,1909.8044,
1046.616,1895.0343,
1043.705,1910.3318,
1040.795,1911.544,
1037.884,1897.2373,
1034.974,1880.9059,
1032.063,1874.3288,
1029.153,1876.648,
1026.242,1870.5933,
1023.331,1959.536,
1020.421,1936.246,
1017.510,1940.786,
1014.600,1966.8336,
1011.689,1990.348,
1008.778,2018.4691,
1005.868,2007.8229,
1002.957,2057.7234,
1000.047,2122.887,
997.136,2162.5821,
994.226,2169.1289,
991.315,2154.0681,
988.404,2127.3229,
985.494,2075.6052,
982.583,2085.8838,
979.673,2092.4965,
976.762,2086.7427,
973.852,2076.0709,
970.941,2072.0424,
968.030,2082.1323,
965.120,2103.332,
962.209,2093.1015,
959.299,2093.4997,
956.388,2087.6554,
953.477,2082.375,
950.567,2085.2507,
947.656,2097.0516,
944.746,2125.0869,
941.835,2153.9087,
938.925,2130.1047,
936.014,2128.5381,
933.103,2140.2564,
930.193,2126.1874,
927.282,2085.0542,
924.372,2079.135,
921.461,2077.6386,
918.551,2044.8427,
915.640,2007.3519,
912.729,2005.5498,
909.819,2049.1501,
906.908,2024.7197,
903.998,1975.6531,
901.087,2024.4796,
898.176,2055.0802,
895.266,2061.484,
892.355,2088.3591,
889.445,2104.3052,
886.534,2100.2006,
883.624,2105.4305,
880.713,2127.7685,
877.802,2131.7846,
874.892,2099.9627,
871.981,2078.9349,
869.071,2017.9497,
866.160,2018.4144,
863.250,2062.166,
860.339,2093.7953,
857.428,2091.5838,
854.518,2107.0882,
851.607,2028.0416,
848.697,2031.5704,
845.786,2050.2733,
842.875,2085.1929,
839.965,2127.9623,
837.054,2112.8588,
834.144,2155.9539,
831.233,2189.0399,
828.323,2192.9673,
825.412,2189.2044,
822.501,2191.1833,
819.591,2145.7313,
816.680,2141.9711,
813.770,2153.9051,
810.859,2149.1915,
807.949,2133.5482,
805.038,2126.8949,
802.127,2089.8542,
799.217,2049.8508,
796.306,2031.6993,
793.396,2047.2302,
790.485,2072.0576,
787.574,2049.5582,
784.664,2080.7225,
781.753,2083.0201,
778.843,2105.389,
775.932,2108.1532,
773.022,2062.3057,
770.111,2087.6506,
767.200,2119.0662,
764.290,2137.621,
761.379,2143.1934,
758.469,2135.9341,
755.558,2115.1319,
752.648,2106.9858,
749.737,2089.0553,
746.826,2095.7603,
743.916,2113.6542,
741.005,2117.493,
738.095,2145.0968,
735.184,2101.1811,
732.274,2031.8888,
729.363,1996.7981,
726.452,2027.6074,
723.542,2084.265,
720.631,2113.3693,
717.721,2128.822,
714.810,2132.4716,
711.899,2122.6027,
708.989,2093.5534,
706.078,2111.805,
703.168,2125.4833,
700.257,2137.5636,
697.347,2140.0713,
694.436,2117.5059,
691.525,2122.3288,
688.615,2077.4645,
685.704,2061.599,
682.794,2082.46,
679.883,2102.6273,
676.973,2108.2369,
674.062,2112.5654,
671.151,2105.6084,
668.241,2101.7607,
665.330,2124.4674,
662.420,2105.2979,
659.509,2111.5339,
656.598,2134.685,
653.688,2145.1827,
650.777,2105.7521,
647.867,2146.3648,
644.956,2105.2238,
642.046,2056.1327,
639.135,2050.9167,
636.224,2128.2914,
633.314,2111.6187,
630.403,2141.074,
627.493,2164.375,
624.582,2164.9047,
621.672,2167.2807,
618.761,2152.9362,
615.850,2169.8635,
612.940,2196.2549,
610.029,2209.4293,
607.119,2185.7404,
604.208,2191.1851,
601.297,2209.3305,
598.387,2227.8146,
595.476,2235.1865,
592.566,2222.5934,
589.655,2222.9666,
586.745,2213.9598,
583.834,2205.8646,
580.923,2225.4413,
578.013,2236.4276,
575.102,2226.7561,
572.192,2205.9419,
569.281,2191.2802,
566.371,2224.1504,
563.460,2222.4367,
560.549,2218.4259,
557.639,2215.5693,
554.728,2215.3951,
551.818,2247.3881,
548.907,2212.9349,
545.996,2204.6481,
543.086,2233.5428,
540.175,2234.3214,
537.265,2234.375,
534.354,2233.3716,
531.444,2236.2762,
528.533,2243.0089,
525.622,2195.6761,
522.712,2229.668,
519.801,2259.1388,
516.891,2266.1657,
513.980,2294.8146,
511.070,2280.4707,
508.159,2294.3879,
505.248,2316.3736,
502.338,2313.8946,
499.427,2331.6468,
496.517,2366.3548,
493.606,2397.1143,
490.695,2409.1655,
487.785,2386.0717,
484.874,2412.1013,
481.964,2410.1028,
479.053,2384.9266,
476.143,2387.2305,
473.232,2424.0646,
470.321,2417.9388,
467.411,2384.4718,
464.500,2349.6271,
461.590,2359.5817,
458.679,2411.9015,
455.769,2441.9779,
452.858,2420.8862,
449.947,2435.4009,
447.037,2415.9249,
444.126,2423.5568,
441.216,2461.9042,
438.305,2464.9519,
435.395,2485.6997,
432.484,2482.2054,
429.573,2447.6423,
426.663,2384.5507,
423.752,2374.4931,
420.842,2310.2657,
417.931,2235.2977,
415.020,2231.5059,
412.110,2318.437,
409.199,2403.1867,
406.289,2465.0164,
403.378,2485.2879,
400.468,2459.5841,
397.557,2463.7146,
394.646,2498.8081,
391.736,2561.7231,
388.825,2541.3588,
385.915,2530.0531,
383.004,2533.9413,
380.094,2555.6053,
377.183,2560.1202,
374.272,2557.0328,
371.362,2563.6765,
368.451,2591.2017,
365.541,2637.7349,
362.630,2643.2739,
359.719,2640.9266,
356.809,2647.6533,
353.898,2619.1989,
350.988,2615.1724,
348.077,2622.4407,
345.167,2633.5859,
342.256,2657.4921,
339.345,2621.329,
336.435,2605.3048,
333.524,2662.3515,
330.614,2661.6064,
327.703,2657.2678,
324.793,2642.5478,
321.882,2611.4687,
318.971,2650.1278,
316.061,2694.1388,
313.150,2709.0536,
310.240,2653.3949,
307.329,2701.3996,
304.418,2708.1524,
301.508,2695.5258,
298.597,2707.3724,
295.687,2717.8564,
292.776,2719.4583,
289.866,2729.8542,
286.955,2798.5557,
284.044,2828.615,
281.134,2848.151,
278.223,2861.1594,
275.313,2859.6857,
272.402,2812.9027,
269.492,2808.5255,
266.581,2872.1107,
263.670,2882.4032,
260.760,2922.4642,
257.849,2960.2244,
254.939,2971.2326,
252.028,2938.802,
249.117,2935.9684,
246.207,2951.1632,
243.296,2965.804,
240.386,2942.5613,
237.475,2929.375,
234.565,2932.9411,
231.654,2955.5829,
228.743,2924.1268,
225.833,2890.9722,
222.922,2876.0013,
220.012,2867.9872,
217.101,2861.94,
214.191,2857.0636,
211.280,2852.6989,
208.369,2894.0894,
205.459,2884.8305,
202.548,2836.1131,
199.638,2811.4411,
196.727,2889.9263,
193.816,2938.13,
190.906,2907.375,
187.995,2907.375,
185.085,2917.7778,
182.174,2921.3438,
179.264,2891.7104,
176.353,2938.3558,
173.442,2967.8252,
170.532,2972.4752,
167.621,2990.4996,
164.711,2870.8155,
161.800,2707.0102,
158.890,2556.5871,
155.979,2421.3339,
153.068,2231.6064,
150.158,1993.0583,
147.247,1726.698,
144.337,1410.3033,
141.426,1108.5258,
138.516,853.31248,
135.605,604.71898,
132.694,402.08317,
129.784,249.88055,
126.873,175.50704,
123.963,119.97102,
121.052,81.159613,
118.141,60.456455,
115.231,46.874163,
112.320,38.409549,
109.410,33.556868,
106.499,29.283937,
103.589,23.892964,
100.678,19.560135,
97.767,17.427322,
94.857,18.760978,
91.946,17.762557,
89.036,14.923408,
86.125,12.086587,
83.215,8.1894779,
80.304,7.0510288,
77.393,12.008218,
74.483,11.719865,
71.572,8.8385352,
68.662,4.7213375,
65.751,8.2535929,
62.840,7.929894,
59.930,6.5622862,
57.019,7.2673682,
54.109,6.7778392,
51.198,8.1846557,
48.288,12.3297,
45.377,6.7026759,
42.466,7.6727547,
39.556,11.914526,
36.645,9.1057648,
33.735,8.8942485,
30.824,5.3990345,
27.914,-7.2221199,
25.003,-6.1344501,
22.092,-1.718859,
19.182,4.4665315,
16.271,7.264492,
13.361,45.88476,
10.450,79.947485,
7.539,-21.308243,
4.629,-201.48984,
1.718,-409.34248,
-1.192,-617.09156,
-4.103,-460.10881,
-7.013,-237.64935,
-9.924,0.375,
