,PLF12D~1,
Wavenumbers [1/cm],Intensity,
3014.167,-7,
3011.256,0.9498819,
3008.346,70.831328,
3005.435,92.459361,
3002.525,101.02013,
2999.614,112.14804,
2996.704,103.68144,
2993.793,112.88537,
2990.882,105,
2987.972,118.05549,
2985.061,118.80294,
2982.151,130.65884,
2979.240,126.84885,
2976.329,140.51365,
2973.419,130.96945,
2970.508,122.61666,
2967.598,142.19116,
2964.687,143.13451,
2961.777,154.49587,
2958.866,156.00297,
2955.955,162.62388,
2953.045,154.85237,
2950.134,171.39358,
2947.224,168.71172,
2944.313,181.31481,
2941.403,176.55976,
2938.492,172.70189,
2935.581,169.11288,
2932.671,183.12017,
2929.760,175.98076,
2926.850,185.11165,
2923.939,186.36452,
2921.028,186.41192,
2918.118,185.16121,
2915.207,186.17078,
2912.297,191.94922,
2909.386,179.18978,
2906.476,202.41008,
2903.565,192.83852,
2900.654,194.16482,
2897.744,203.87428,
2894.833,184.10328,
2891.923,180.5417,
2889.012,187.66474,
2886.102,186.75136,
2883.191,184.99717,
2880.280,155.59807,
2877.370,99.668681,
2874.459,70.943366,
2871.549,113.5269,
2868.638,155.72783,
2865.727,186.94616,
2862.817,190.28609,
2859.906,187.05128,
2856.996,196.52944,
2854.085,200.56304,
2851.175,222.8825,
2848.264,222.00967,
2845.353,229.41769,
2842.443,202.20139,
2839.532,213.41783,
2836.622,207.17969,
2833.711,195.94819,
2830.801,200.39559,
2827.890,207.74824,
2824.979,204.77796,
2822.069,213.26156,
2819.158,226.8787,
2816.248,209.75868,
2813.337,224.45366,
2810.427,220.35262,
2807.516,212.84172,
2804.605,215.67789,
2801.695,225.47367,
2798.784,217.36962,
2795.874,214.70976,
2792.963,227.35734,
2790.052,209.00493,
2787.142,219.60515,
2784.231,211.54813,
2781.321,229.86275,
2778.410,203.80963,
2775.500,221.19034,
2772.589,210.00152,
2769.678,234.85665,
2766.768,238.6233,
2763.857,226.42197,
2760.947,227.45902,
2758.036,226.92997,
2755.126,221.84616,
2752.215,241.95898,
2749.304,232.2554,
2746.394,230.69353,
2743.483,231.50002,
2740.573,223.45131,
2737.662,235.22337,
2734.751,229.85932,
2731.841,221.43223,
2728.930,244.28401,
2726.020,234.11748,
2723.109,239,
2720.199,229.46859,
2717.288,251.36861,
2714.377,249.12918,
2711.467,250.40989,
2708.556,254.25516,
2705.646,251.54927,
2702.735,270.97937,
2699.825,251.97819,
2696.914,254.61909,
2694.003,264.97236,
2691.093,252.19616,
2688.182,245,
2685.272,265.61025,
2682.361,247.06441,
2679.450,261.70782,
2676.540,270.75611,
2673.629,259.66367,
2670.719,259.71534,
2667.808,259,
2664.898,264.02627,
2661.987,253.80013,
2659.076,281.69395,
2656.166,250.90469,
2653.255,263.70578,
2650.345,261.13612,
2647.434,263.5433,
2644.524,273.82251,
2641.613,284.57197,
2638.702,274.31562,
2635.792,271.0638,
2632.881,278.32114,
2629.971,277.91267,
2627.060,269.00062,
2624.149,265.8375,
2621.239,277.76927,
2618.328,277.46626,
2615.418,289.65909,
2612.507,283.07118,
2609.597,296.98004,
2606.686,282.41566,
2603.775,277.11905,
2600.865,271.70648,
2597.954,278.71871,
2595.044,297.95572,
2592.133,301.27382,
2589.223,309.48212,
2586.312,302.5879,
2583.401,314.61312,
2580.491,300.01445,
2577.580,305.00495,
2574.670,303.84894,
2571.759,295.20205,
2568.848,304.40888,
2565.938,295.71431,
2563.027,294.82953,
2560.117,304.35515,
2557.206,310.71218,
2554.296,304.85812,
2551.385,312.06603,
2548.474,314.59256,
2545.564,316.90503,
2542.653,316.93624,
2539.743,315.67868,
2536.832,308.55141,
2533.922,318.66885,
2531.011,308.44912,
2528.100,325.33795,
2525.190,321.53402,
2522.279,323,
2519.369,320.28318,
2516.458,319.55949,
2513.548,324,
2510.637,331.93852,
2507.726,329.12639,
2504.816,328.37542,
2501.905,336.6811,
2498.995,352.28337,
2496.084,338.2404,
2493.173,349.68477,
2490.263,341.66324,
2487.352,349.7496,
2484.442,345.42398,
2481.531,342.68091,
2478.621,354.65883,
2475.710,330.18403,
2472.799,355.97307,
2469.889,365.87812,
2466.978,358.45372,
2464.068,373.15351,
2461.157,356.07992,
2458.247,363.88229,
2455.336,379.42273,
2452.425,355.33958,
2449.515,367.91475,
2446.604,362.51837,
2443.694,365.4646,
2440.783,362.28716,
2437.872,375.3801,
2434.962,357.42397,
2432.051,351.53701,
2429.141,367.79389,
2426.230,354.43421,
2423.320,390,
2420.409,386.59622,
2417.498,381.59832,
2414.588,378.73005,
2411.677,374.74899,
2408.767,367.49409,
2405.856,365.53095,
2402.946,386.90527,
2400.035,355.64316,
2397.124,402.19253,
2394.214,378.0536,
2391.303,377.21545,
2388.393,370.29533,
2385.482,342.14561,
2382.571,372.51921,
2379.661,369.83712,
2376.750,376.84237,
2373.840,406.59049,
2370.929,408.07581,
2368.019,400.50553,
2365.108,411.79058,
2362.197,407.62463,
2359.287,401.60501,
2356.376,418.9683,
2353.466,414.42468,
2350.555,414.32023,
2347.645,422.8159,
2344.734,425.15208,
2341.823,420.0995,
2338.913,440.80296,
2336.002,429.7081,
2333.092,433.18396,
2330.181,427.98211,
2327.270,429.83498,
2324.360,442.8326,
2321.449,420.20069,
2318.539,426.95718,
2315.628,441.73861,
2312.718,436.63435,
2309.807,414.22964,
2306.896,436.29109,
2303.986,446.77917,
2301.075,440,
2298.165,443.19237,
2295.254,455.74148,
2292.344,433.15767,
2289.433,438.03091,
2286.522,452.16066,
2283.612,453.85969,
2280.701,441.61437,
2277.791,463.40075,
2274.880,468.29209,
2271.969,451.77366,
2269.059,458.02725,
2266.148,476.59098,
2263.238,478.40155,
2260.327,476.79308,
2257.417,474,
2254.506,481.28208,
2251.595,487.43275,
2248.685,497.25764,
2245.774,501.09892,
2242.864,481.41647,
2239.953,480.73779,
2237.043,494.1418,
2234.132,475.10129,
2231.221,495.18614,
2228.311,483.86343,
2225.400,495.78807,
2222.490,516.87283,
2219.579,496.15427,
2216.669,508,
2213.758,502.1294,
2210.847,515.92693,
2207.937,530.5521,
2205.026,535.55598,
2202.116,520.32909,
2199.205,529.38612,
2196.294,541.82604,
2193.384,534.26301,
2190.473,530.85211,
2187.563,563.00483,
2184.652,563.69878,
2181.742,563.18196,
2178.831,578.75103,
2175.920,603.1603,
2173.010,599.57426,
2170.099,637.59525,
2167.189,653.15786,
2164.278,678.52161,
2161.368,709.57015,
2158.457,741.93078,
2155.546,776.90774,
2152.636,818.20739,
2149.725,855.29528,
2146.815,886.13241,
2143.904,917.20816,
2140.993,935.37039,
2138.083,947.14277,
2135.172,971.05038,
2132.262,991.28697,
2129.351,977.5481,
2126.441,969.767,
2123.530,948.38268,
2120.619,893.31196,
2117.709,869.48712,
2114.798,805.67682,
2111.888,779.7255,
2108.977,743.56952,
2106.067,701.6984,
2103.156,663.96544,
2100.245,667.98055,
2097.335,634.83246,
2094.424,622.11154,
2091.514,623.41928,
2088.603,601.35487,
2085.692,593.40893,
2082.782,579.57036,
2079.871,589.60793,
2076.961,572.42071,
2074.050,599.70909,
2071.140,587.72464,
2068.229,570.78382,
2065.318,595.77623,
2062.408,574.89409,
2059.497,575.38689,
2056.587,561.77922,
2053.676,587.3982,
2050.766,550.61809,
2047.855,536.76893,
2044.944,565.39422,
2042.034,573.89008,
2039.123,563.24242,
2036.213,578.59774,
2033.302,582.13022,
2030.391,573.39039,
2027.481,586.54855,
2024.570,590.78583,
2021.660,580.59129,
2018.749,569.35416,
2015.839,556.49738,
2012.928,575.55201,
2010.017,566.92183,
2007.107,575.93085,
2004.196,588.1905,
2001.286,597.81272,
1998.375,569.07774,
1995.465,575.66518,
1992.554,566.10013,
1989.643,581.37785,
1986.733,562.48158,
1983.822,576.50148,
1980.912,597.01875,
1978.001,557.07607,
1975.090,562.41374,
1972.180,551.69017,
1969.269,556.75578,
1966.359,584.45971,
1963.448,579.65918,
1960.538,579.68057,
1957.627,573.86687,
1954.716,562.316,
1951.806,557.29807,
1948.895,556.36852,
1945.985,524.0719,
1943.074,567.7086,
1940.164,548.28845,
1937.253,551.30426,
1934.342,542.37594,
1931.432,529.73186,
1928.521,546.58549,
1925.611,514.63678,
1922.700,533.8232,
1919.790,528.35855,
1916.879,524.1395,
1913.968,570.94221,
1911.058,549.09308,
1908.147,515.57233,
1905.237,557.85289,
1902.326,534.01036,
1899.415,534.22193,
1896.505,522.44598,
1893.594,547.54573,
1890.684,542.86931,
1887.773,549.97386,
1884.863,574.58314,
1881.952,562.37771,
1879.041,545.4351,
1876.131,540.55686,
1873.220,531.28315,
1870.310,526.287,
1867.399,555.52019,
1864.489,570.59803,
1861.578,537.40099,
1858.667,546.15871,
1855.757,527.56563,
1852.846,565.24616,
1849.936,558.76777,
1847.025,559.93672,
1844.114,562.29641,
1841.204,541.86364,
1838.293,557.48586,
1835.383,567.6395,
1832.472,573.74435,
1829.562,578.91641,
1826.651,577.26489,
1823.740,562.16856,
1820.830,584.77977,
1817.919,590.55687,
1815.009,575.44402,
1812.098,590.05511,
1809.188,599.50386,
1806.277,555.99593,
1803.366,576.5989,
1800.456,611.6153,
1797.545,605.64536,
1794.635,606.06591,
1791.724,571.94167,
1788.813,609.60977,
1785.903,632.49618,
1782.992,599.68403,
1780.082,578.20505,
1777.171,568.99357,
1774.261,548.65007,
1771.350,589.03451,
1768.439,633.33935,
1765.529,622.09074,
1762.618,622.44938,
1759.708,609.69551,
1756.797,636.87879,
1753.887,643.22887,
1750.976,619.23102,
1748.065,644.42089,
1745.155,630.98086,
1742.244,650.41751,
1739.334,652.56706,
1736.423,632.9888,
1733.512,654.92284,
1730.602,684.44844,
1727.691,649.54633,
1724.781,650.3718,
1721.870,658.02383,
1718.960,672.97795,
1716.049,676.83897,
1713.138,688.96994,
1710.228,650.96634,
1707.317,706.03543,
1704.407,667.28335,
1701.496,709.40049,
1698.586,690.90039,
1695.675,704.90705,
1692.764,755.22953,
1689.854,742.6929,
1686.943,728.47216,
1684.033,736.77647,
1681.122,741.91504,
1678.211,798.45751,
1675.301,757.1295,
1672.390,813.93121,
1669.480,791.32088,
1666.569,831.0127,
1663.659,832.5553,
1660.748,866.32779,
1657.837,882.80317,
1654.927,873.74228,
1652.016,863.60748,
1649.106,889.24853,
1646.195,939.55146,
1643.285,961.93164,
1640.374,959.06272,
1637.463,963.44116,
1634.553,1041.6601,
1631.642,1019.6189,
1628.732,1076.2489,
1625.821,1118.0209,
1622.911,1149.8197,
1620.000,1238.8661,
1617.089,1330.1691,
1614.179,1431.1235,
1611.268,1460.959,
1608.358,1571.6153,
1605.447,1622.2575,
1602.536,1675.3219,
1599.626,1668.8807,
1596.715,1702.4888,
1593.805,1635.3478,
1590.894,1629.642,
1587.984,1614.4103,
1585.073,1636.6737,
1582.162,1603.4301,
1579.252,1536.264,
1576.341,1514.9894,
1573.431,1498.9029,
1570.520,1514.1094,
1567.610,1472.313,
1564.699,1471.9507,
1561.788,1445.6059,
1558.878,1437.4621,
1555.967,1430.7507,
1553.057,1395.3796,
1550.146,1350.3455,
1547.235,1357.2034,
1544.325,1331.5851,
1541.414,1289.819,
1538.504,1271.2101,
1535.593,1242.9842,
1532.683,1215.7309,
1529.772,1192.6315,
1526.861,1167.7581,
1523.951,1162.5908,
1521.040,1170.9723,
1518.130,1157.4713,
1515.219,1140.3994,
1512.309,1146.6396,
1509.398,1098.9259,
1506.487,1099.7084,
1503.577,1111.448,
1500.666,1057.7908,
1497.756,1071.3135,
1494.845,1063.7204,
1491.934,1080.9181,
1489.024,1055.8933,
1486.113,1008.6392,
1483.203,1036.974,
1480.292,1034.2119,
1477.382,1007.9443,
1474.471,1007.3717,
1471.560,1009,
1468.650,996.70107,
1465.739,979.47118,
1462.829,989.71089,
1459.918,980.00534,
1457.008,963.5077,
1454.097,943.20289,
1451.186,924.40619,
1448.276,928.31031,
1445.365,921.67852,
1442.455,940.13237,
1439.544,978.66117,
1436.633,940.19463,
1433.723,959.00302,
1430.812,951.70447,
1427.902,947.84215,
1424.991,941.20781,
1422.081,894.20867,
1419.170,906.41715,
1416.259,889.55849,
1413.349,871.40566,
1410.438,887.99339,
1407.528,926.61212,
1404.617,880.76441,
1401.707,837,
1398.796,849.74472,
1395.885,878.88201,
1392.975,918.77162,
1390.064,944.75934,
1387.154,915.88723,
1384.243,886.51734,
1381.332,898.18523,
1378.422,970.45424,
1375.511,940.47725,
1372.601,977.78438,
1369.690,985.28611,
1366.780,986,
1363.869,1065.9125,
1360.958,1096.6602,
1358.048,1095.8134,
1355.137,1149.1455,
1352.227,1208.9805,
1349.316,1205.6692,
1346.406,1194.0497,
1343.495,1229.4809,
1340.584,1244.0359,
1337.674,1240.4672,
1334.763,1287.482,
1331.853,1326.4257,
1328.942,1338.6736,
1326.032,1358.7593,
1323.121,1411.9037,
1320.210,1421.009,
1317.300,1447.6921,
1314.389,1491.6116,
1311.479,1551.0094,
1308.568,1606.4654,
1305.657,1641.6004,
1302.747,1718.5796,
1299.836,1784.7371,
1296.926,1790.7691,
1294.015,1807.3169,
1291.105,1857.3103,
1288.194,1887.1635,
1285.283,1932.3802,
1282.373,1987.867,
1279.462,2015.9411,
1276.552,2049.7324,
1273.641,2098.8047,
1270.731,2132.1149,
1267.820,2150.6762,
1264.909,2141.0223,
1261.999,2162.9334,
1259.088,2161.1092,
1256.178,2097.6222,
1253.267,2076.2593,
1250.356,2016.7879,
1247.446,1967.1176,
1244.535,1928.2054,
1241.625,1873.1075,
1238.714,1804.2047,
1235.804,1747.4806,
1232.893,1709.5116,
1229.982,1655.9268,
1227.072,1624.2408,
1224.161,1599.3064,
1221.251,1577.1318,
1218.340,1540.5528,
1215.430,1503.0797,
1212.519,1472.4172,
1209.608,1472.6557,
1206.698,1491.255,
1203.787,1459.804,
1200.877,1476.6716,
1197.966,1503.6464,
1195.055,1603.9768,
1192.145,1618.746,
1189.234,1628.3807,
1186.324,1672.1855,
1183.413,1688.9848,
1180.503,1680.1177,
1177.592,1694.4241,
1174.681,1665.9897,
1171.771,1596.9588,
1168.860,1595.1726,
1165.950,1573.2302,
1163.039,1593.1425,
1160.129,1587.4841,
1157.218,1572.6348,
1154.307,1568.629,
1151.397,1571.6495,
1148.486,1585.147,
1145.576,1601.3039,
1142.665,1562.2357,
1139.754,1590.7315,
1136.844,1584.6942,
1133.933,1539.1176,
1131.023,1554.4328,
1128.112,1604.0713,
1125.202,1605.2754,
1122.291,1603.8774,
1119.380,1609.8961,
1116.470,1599.3057,
1113.559,1632.7962,
1110.649,1614.8416,
1107.738,1638.0431,
1104.828,1648.9467,
1101.917,1611.7867,
1099.006,1592.2682,
1096.096,1569.785,
1093.185,1566.273,
1090.275,1582.1854,
1087.364,1583.9416,
1084.453,1575.688,
1081.543,1603.743,
1078.632,1641.0455,
1075.722,1626.4955,
1072.811,1623.2267,
1069.901,1668.6363,
1066.990,1672,
1064.079,1695.818,
1061.169,1700.9247,
1058.258,1697.6939,
1055.348,1700.8819,
1052.437,1706.4438,
1049.527,1721.7846,
1046.616,1664.4419,
1043.705,1690.3721,
1040.795,1700.6385,
1037.884,1712.1262,
1034.974,1724.4897,
1032.063,1726.2846,
1029.153,1720.3648,
1026.242,1690.0913,
1023.331,1738.1635,
1020.421,1760.5478,
1017.510,1781.1274,
1014.600,1803.1503,
1011.689,1824.1268,
1008.778,1837.1618,
1005.868,1809.3629,
1002.957,1849.7996,
1000.047,1933.896,
997.136,1996.4776,
994.226,2015.0924,
991.315,2015.0891,
988.404,2016.8402,
985.494,1954.4795,
982.583,1975.8934,
979.673,1980.4633,
976.762,1952.232,
973.852,1945.2603,
970.941,1947.4773,
968.030,1913.6012,
965.120,1917.2184,
962.209,1969.2234,
959.299,1982.9577,
956.388,1977.1605,
953.477,1974.2882,
950.567,1986.8427,
947.656,2006.4376,
944.746,1986.8978,
941.835,2005.4355,
938.925,1986.3102,
936.014,1988.669,
933.103,1996.2912,
930.193,1981.0036,
927.282,1966.9377,
924.372,1928.8854,
921.461,1896.7532,
918.551,1869.572,
915.640,1847.2263,
912.729,1829.9747,
909.819,1820.6681,
906.908,1833.3044,
903.998,1828.4325,
901.087,1827.6365,
898.176,1829.4316,
895.266,1850.6787,
892.355,1897.0836,
889.445,1918.9045,
886.534,1853.88,
883.624,1894.1537,
880.713,1932.2485,
877.802,1913.7769,
874.892,1825.5622,
871.981,1686.5129,
869.071,1708.2337,
866.160,1727.8691,
863.250,1811.0094,
860.339,1896.4668,
857.428,1922.9391,
854.518,1908.8927,
851.607,1870.6175,
848.697,1822.0432,
845.786,1804.0379,
842.875,1831.2161,
839.965,1882.8739,
837.054,1896.1861,
834.144,1912.7611,
831.233,1939.3316,
828.323,1946.0543,
825.412,1944.8636,
822.501,1945.1062,
819.591,1901.307,
816.680,1922.4359,
813.770,1884.7713,
810.859,1877.0496,
807.949,1892.9366,
805.038,1876.4027,
802.127,1871.4639,
799.217,1847.1475,
796.306,1825.3783,
793.396,1805.2671,
790.485,1788.3154,
787.574,1783.0587,
784.664,1810.9425,
781.753,1777.0829,
778.843,1779.0735,
775.932,1794.8273,
773.022,1789.4954,
770.111,1844.2732,
767.200,1823.638,
764.290,1803.2867,
761.379,1816.8443,
758.469,1846.5591,
755.558,1825.3436,
752.648,1803.3493,
749.737,1824.4588,
746.826,1840.3311,
743.916,1832.9479,
741.005,1808.3756,
738.095,1820.5537,
735.184,1746.9187,
732.274,1703.8526,
729.363,1691.3275,
726.452,1707.3951,
723.542,1803.7129,
720.631,1765.4213,
717.721,1746.2715,
714.810,1754.9431,
711.899,1774.6832,
708.989,1769.0347,
706.078,1780.2182,
703.168,1762.3545,
700.257,1765.9155,
697.347,1783.6963,
694.436,1760.6072,
691.525,1746.1387,
688.615,1729.7929,
685.704,1739.2677,
682.794,1766.2127,
679.883,1780.7209,
676.973,1796.7483,
674.062,1789.7907,
671.151,1796.2732,
668.241,1799.1346,
665.330,1758.4916,
662.420,1768.8751,
659.509,1790.0479,
656.598,1812.6842,
653.688,1830.0704,
650.777,1835.1098,
647.867,1779.3669,
644.956,1750.9021,
642.046,1723.1723,
639.135,1703.8691,
636.224,1726.1273,
633.314,1751.5334,
630.403,1781.0572,
627.493,1806.6019,
624.582,1816.8794,
621.672,1793.9116,
618.761,1814.2783,
615.850,1820.449,
612.940,1820.3415,
610.029,1825.8663,
607.119,1855.0827,
604.208,1843.7997,
601.297,1830.5222,
598.387,1836.7583,
595.476,1868.8459,
592.566,1846.0209,
589.655,1847.831,
586.745,1837.9809,
583.834,1835.273,
580.923,1885.8815,
578.013,1866.2632,
575.102,1866.7359,
572.192,1864.9262,
569.281,1859.4834,
566.371,1890.0057,
563.460,1895.8219,
560.549,1877.9961,
557.639,1853.9716,
554.728,1845.365,
551.818,1882.8202,
548.907,1866.0141,
545.996,1867.4955,
543.086,1893.8257,
540.175,1888.3751,
537.265,1890.1728,
534.354,1903.5423,
531.444,1912.3774,
528.533,1903.2207,
525.622,1906.3245,
522.712,1893.6514,
519.801,1899.5114,
516.891,1933.0163,
513.980,1982.5713,
511.070,1971.5044,
508.159,1984.1027,
505.248,1999.492,
502.338,1984.8977,
499.427,2049.7316,
496.517,2074.3535,
493.606,2086.3933,
490.695,2098.4651,
487.785,2094.6161,
484.874,2075.9057,
481.964,2076.382,
479.053,2099.2736,
476.143,2133.8319,
473.232,2103.6268,
470.321,2089.5403,
467.411,2091.2924,
464.500,2101.2327,
461.590,2110.4216,
458.679,2136.1124,
455.769,2155,
452.858,2155.7158,
449.947,2162.5912,
447.037,2182.8096,
444.126,2174.6667,
441.216,2149.3925,
438.305,2203.4896,
435.395,2224.7684,
432.484,2237.4178,
429.573,2244.1125,
426.663,2240.3118,
423.752,2075.4091,
420.842,1953.3079,
417.931,1892.1381,
415.020,1889.1047,
412.110,2078.4878,
409.199,2228.6845,
406.289,2299.7171,
403.378,2259.1229,
400.468,2295.4107,
397.557,2276.6652,
394.646,2284.0923,
391.736,2380.9376,
388.825,2347.7514,
385.915,2368.335,
383.004,2395.2855,
380.094,2395.6929,
377.183,2389.6731,
374.272,2398.8556,
371.362,2411.5319,
368.451,2420.9574,
365.541,2436.7187,
362.630,2455.2023,
359.719,2446.2823,
356.809,2398.9483,
353.898,2431.1466,
350.988,2453.0197,
348.077,2450.9316,
345.167,2420.665,
342.256,2453.536,
339.345,2444.9313,
336.435,2437.3278,
333.524,2459.4228,
330.614,2472.8356,
327.703,2488.8083,
324.793,2513.1474,
321.882,2550.9225,
318.971,2518.9544,
316.061,2511.9065,
313.150,2531.0119,
310.240,2579.2494,
307.329,2602.4391,
304.418,2608.2643,
301.508,2597.9107,
298.597,2571.2557,
295.687,2577.1269,
292.776,2609.3335,
289.866,2660.6768,
286.955,2716.0812,
284.044,2709.4525,
281.134,2727.2904,
278.223,2776.0957,
275.313,2804.0962,
272.402,2791.4111,
269.492,2784.3371,
266.581,2800.7326,
263.670,2838.962,
260.760,2866.1939,
257.849,2899.2205,
254.939,2951.3262,
252.028,2957.0669,
249.117,2972.7048,
246.207,2997.7129,
243.296,3031.3866,
240.386,2968.3948,
237.475,2975.2606,
234.565,3041.3895,
231.654,3031.1642,
228.743,2989.2996,
225.833,2945.9748,
222.922,2915.257,
220.012,2942.2136,
217.101,2941.1857,
214.191,2940.3981,
211.280,2971.679,
208.369,2986.1106,
205.459,2980.821,
202.548,2950.337,
199.638,2871.2412,
196.727,2947.7708,
193.816,3019.3112,
190.906,3026.9746,
187.995,3026.2506,
185.085,3028.8371,
182.174,3050.2172,
179.264,3117.4344,
176.353,3114.1068,
173.442,3122.8649,
170.532,3152.4443,
167.621,3182.0043,
164.711,3072.7984,
161.800,2932.8387,
158.890,2832.7966,
155.979,2681.4717,
153.068,2482.0206,
150.158,2242.4162,
147.247,1980.3636,
144.337,1640.9498,
141.426,1289.3667,
138.516,953.86163,
135.605,682.39777,
132.694,465.62239,
129.784,300.93076,
126.873,197.95206,
123.963,136.02695,
121.052,93.385142,
118.141,64.11516,
115.231,56.183726,
112.320,49.187277,
109.410,42.500092,
106.499,34.666385,
103.589,23.475674,
100.678,17.086487,
97.767,19.930237,
94.857,20.692989,
91.946,16.968891,
89.036,11,
86.125,11,
83.215,7.2835575,
80.304,6.8731922,
77.393,15.371231,
74.483,16.655135,
71.572,16.637648,
68.662,15.584395,
65.751,11.345689,
62.840,9.036596,
59.930,8,
57.019,8,
54.109,8.5971608,
51.198,9,
48.288,9,
45.377,9,
42.466,10.648877,
39.556,12.769763,
36.645,11.365382,
33.735,13.076994,
30.824,12.128469,
27.914,3.0131912,
25.003,10.716925,
22.092,15.354191,
19.182,14.8009,
16.271,39.283055,
13.361,159.00053,
10.450,370.57564,
7.539,722.52658,
4.629,1016.3994,
1.718,1053.9761,
-1.192,558.3063,
-4.103,298.11509,
-7.013,119.3162,
-9.924,1,
