,PL925A~1,
Raman shift [1/cm],Intensity,
3014.167,-2.75,
3011.256,0.39992484,
3008.346,234.4024,
3005.435,251.90725,
3002.525,267.45749,
2999.614,282.77467,
2996.704,276.4799,
2993.793,299.63076,
2990.882,296.94465,
2987.972,306.31558,
2985.061,313.48645,
2982.151,336.19288,
2979.240,333.68155,
2976.329,344.75273,
2973.419,345.83434,
2970.508,369.58327,
2967.598,376.58454,
2964.687,380.38451,
2961.777,382.68595,
2958.866,393.24852,
2955.955,387.66151,
2953.045,412.61689,
2950.134,420.92057,
2947.224,436.96172,
2944.313,457.20513,
2941.403,469.63138,
2938.492,465.51557,
2935.581,469.63157,
2932.671,484.76931,
2929.760,473.76537,
2926.850,457.77256,
2923.939,497.49301,
2921.028,487.25,
2918.118,497.69081,
2915.207,511.90199,
2912.297,521.23307,
2909.386,514.62227,
2906.476,498.41293,
2903.565,503.8137,
2900.654,527.64938,
2897.744,504.89798,
2894.833,491.68272,
2891.923,517.9263,
2889.012,503.12283,
2886.102,498.77298,
2883.191,510.23206,
2880.280,463.22607,
2877.370,424.1338,
2874.459,437.83495,
2871.549,471.27664,
2868.638,519.88915,
2865.727,535.74618,
2862.817,521.79278,
2859.906,538.25,
2856.996,521.82472,
2854.085,552.7837,
2851.175,549.67772,
2848.264,533.691,
2845.353,511.87544,
2842.443,526.27437,
2839.532,522.32452,
2836.622,512.1263,
2833.711,520.76023,
2830.801,533.85441,
2827.890,522.29549,
2824.979,541.25,
2822.069,540.20451,
2819.158,537.39016,
2816.248,551.95079,
2813.337,564.77562,
2810.427,548.94835,
2807.516,558.55922,
2804.605,562.36778,
2801.695,552.34212,
2798.784,547.91531,
2795.874,544.25,
2792.963,530.10681,
2790.052,563.24121,
2787.142,556.80269,
2784.231,554.02486,
2781.321,568.86707,
2778.410,556.1345,
2775.500,566.48414,
2772.589,572.17354,
2769.678,578.78584,
2766.768,566.88688,
2763.857,580.93208,
2760.947,565.26261,
2758.036,575.72139,
2755.126,592.96154,
2752.215,602.3773,
2749.304,594.65469,
2746.394,594.61493,
2743.483,601.04996,
2740.573,585.18353,
2737.662,588.13314,
2734.751,583.69176,
2731.841,575.22252,
2728.930,613.25,
2726.020,623.26042,
2723.109,617.06467,
2720.199,625.46562,
2717.288,621.35584,
2714.377,623.34574,
2711.467,622.59396,
2708.556,644.06895,
2705.646,641.9542,
2702.735,631.78869,
2699.825,658.97905,
2696.914,649.86909,
2694.003,655.8191,
2691.093,659.85652,
2688.182,659.28778,
2685.272,648.13478,
2682.361,647.86136,
2679.450,669.37345,
2676.540,666.14838,
2673.629,661.58184,
2670.719,657.75369,
2667.808,653.34727,
2664.898,667.107,
2661.987,674.11664,
2659.076,671.50431,
2656.166,691.58771,
2653.255,684.06293,
2650.345,686.11388,
2647.434,692.10739,
2644.524,699.70563,
2641.613,707.53598,
2638.702,685.67609,
2635.792,698.25,
2632.881,695.36314,
2629.971,709.82728,
2627.060,711.91438,
2624.149,717.38752,
2621.239,701.49852,
2618.328,721.12284,
2615.418,719.57727,
2612.507,721.62945,
2609.597,733.96457,
2606.686,730.2239,
2603.775,730.88889,
2600.865,744.06917,
2597.954,761.43546,
2595.044,746.24114,
2592.133,754.97618,
2589.223,753.90052,
2586.312,772.24505,
2583.401,748.57485,
2580.491,764.15384,
2577.580,766.26485,
2574.670,772.48263,
2571.759,765.80051,
2568.848,778.59813,
2565.938,762.77356,
2563.027,795.51819,
2560.117,796.79206,
2557.206,778.3607,
2554.296,788.79462,
2551.385,781.79586,
2548.474,779.43551,
2545.564,807.55358,
2542.653,797.78691,
2539.743,803.65758,
2536.832,805.96402,
2533.922,821.15538,
2531.011,819.09967,
2528.100,826.05138,
2525.190,813.76312,
2522.279,839.01551,
2519.369,827.30702,
2516.458,821.25708,
2513.548,830.86816,
2510.637,820.09448,
2507.726,842.3169,
2504.816,823.06172,
2501.905,852.33659,
2498.995,839.95141,
2496.084,846.59502,
2493.173,868.38146,
2490.263,852.48614,
2487.352,856.58547,
2484.442,883.83245,
2481.531,875.77659,
2478.621,883.92775,
2475.710,877.19633,
2472.799,873.94951,
2469.889,882.82617,
2466.978,888.90971,
2464.068,867.35044,
2461.157,872.71491,
2458.247,889.80885,
2455.336,884.01711,
2452.425,897.97172,
2449.515,903.23129,
2446.604,919.41583,
2443.694,936.83142,
2440.783,913.76914,
2437.872,904.34395,
2434.962,930.88595,
2432.051,932.05261,
2429.141,935.26771,
2426.230,933.25,
2423.320,946.67877,
2420.409,951.10873,
2417.498,946.52244,
2414.588,936.60738,
2411.677,945.25403,
2408.767,976.29724,
2405.856,976.52387,
2402.946,979.67895,
2400.035,991.74531,
2397.124,968.37299,
2394.214,979.1964,
2391.303,988.07317,
2388.393,992.25,
2385.482,988.42625,
2382.571,1001.8076,
2379.661,1001.2031,
2376.750,1029.5678,
2373.840,1037.3687,
2370.929,1036.3041,
2368.019,1035.1773,
2365.108,1037.716,
2362.197,1026.8609,
2359.287,1051.5949,
2356.376,1035.2905,
2353.466,1059.1456,
2350.555,1043.7303,
2347.645,1059.4341,
2344.734,1074.4344,
2341.823,1063.4987,
2338.913,1067.8679,
2336.002,1084.8003,
2333.092,1081.7557,
2330.181,1093.5492,
2327.270,1077.3501,
2324.360,1089.2335,
2321.449,1088.2058,
2318.539,1104.568,
2315.628,1117.8707,
2312.718,1124.6002,
2309.807,1112.7965,
2306.896,1121.7617,
2303.986,1122.3344,
2301.075,1136.3776,
2298.165,1134.6824,
2295.254,1128.3146,
2292.344,1140.7728,
2289.433,1151.2268,
2286.522,1146.2768,
2283.612,1147.9401,
2280.701,1150.8464,
2277.791,1160.0114,
2274.880,1178.678,
2271.969,1181.7973,
2269.059,1196.5388,
2266.148,1203.3318,
2263.238,1218.443,
2260.327,1219.5949,
2257.417,1219.2683,
2254.506,1213.7686,
2251.595,1230.3918,
2248.685,1234.9327,
2245.774,1242.5576,
2242.864,1220.3248,
2239.953,1250.7052,
2237.043,1244.0675,
2234.132,1254.3772,
2231.221,1279.6454,
2228.311,1298.777,
2225.400,1286.5315,
2222.490,1302.3772,
2219.579,1324.4633,
2216.669,1328.188,
2213.758,1360.8187,
2210.847,1368.0258,
2207.937,1417.1327,
2205.026,1428.0264,
2202.116,1477.2627,
2199.205,1520.6241,
2196.294,1541.622,
2193.384,1574.8015,
2190.473,1655.0305,
2187.563,1673.3418,
2184.652,1694.8104,
2181.742,1723.7291,
2178.831,1766.1644,
2175.920,1794.3192,
2173.010,1846.4031,
2170.099,1887.247,
2167.189,1946.006,
2164.278,1916.0651,
2161.368,1955.1051,
2158.457,2018.0077,
2155.546,2090.5357,
2152.636,2148.2446,
2149.725,2170.7332,
2146.815,2231.2479,
2143.904,2257.1682,
2140.993,2300.3188,
2138.083,2303.8153,
2135.172,2310.292,
2132.262,2319.0194,
2129.351,2286.4704,
2126.441,2218.4731,
2123.530,2122.1827,
2120.619,2099.7369,
2117.709,1988.6031,
2114.798,1930.3457,
2111.888,1837.4015,
2108.977,1761.0182,
2106.067,1689.2306,
2103.156,1665.4516,
2100.245,1618.2136,
2097.335,1557.36,
2094.424,1529.3089,
2091.514,1511.8979,
2088.603,1534.0149,
2085.692,1520.2873,
2082.782,1510.8523,
2079.871,1522.6432,
2076.961,1519.5729,
2074.050,1539.0682,
2071.140,1495.4455,
2068.229,1495.0599,
2065.318,1500.657,
2062.408,1494.7273,
2059.497,1482.4226,
2056.587,1505.1681,
2053.676,1504.3675,
2050.766,1482.7896,
2047.855,1455.962,
2044.944,1481.7131,
2042.034,1485.7991,
2039.123,1471.3106,
2036.213,1475.9233,
2033.302,1473.1631,
2030.391,1490.2834,
2027.481,1524.7986,
2024.570,1518.079,
2021.660,1504.9004,
2018.749,1501.5159,
2015.839,1511.7474,
2012.928,1536.5487,
2010.017,1522.174,
2007.107,1480.8556,
2004.196,1506.1905,
2001.286,1529.0839,
1998.375,1514.1575,
1995.465,1489.7313,
1992.554,1496.644,
1989.643,1474.1141,
1986.733,1490.9623,
1983.822,1514.479,
1980.912,1468.6952,
1978.001,1469.2407,
1975.090,1503.8515,
1972.180,1507.1117,
1969.269,1503.3247,
1966.359,1529.6829,
1963.448,1519.4904,
1960.538,1498.7004,
1957.627,1534.5906,
1954.716,1515.9394,
1951.806,1486.4358,
1948.895,1527.2298,
1945.985,1520.4542,
1943.074,1520.9696,
1940.164,1507.442,
1937.253,1484.25,
1934.342,1491.3099,
1931.432,1499.4046,
1928.521,1502.8476,
1925.611,1489.8346,
1922.700,1462.0898,
1919.790,1490.7005,
1916.879,1486.9475,
1913.968,1530.1959,
1911.058,1518.6464,
1908.147,1520.2646,
1905.237,1498.6177,
1902.326,1512.0307,
1899.415,1511.4037,
1896.505,1524.8523,
1893.594,1502.0731,
1890.684,1502.5767,
1887.773,1513.4051,
1884.863,1507.8719,
1881.952,1518.8974,
1879.041,1522.224,
1876.131,1513.9206,
1873.220,1500.0464,
1870.310,1540.0212,
1867.399,1495.0337,
1864.489,1511.8731,
1861.578,1526.5028,
1858.667,1516.1692,
1855.757,1507.6163,
1852.846,1548.7679,
1849.936,1562.5753,
1847.025,1554.7269,
1844.114,1547.9771,
1841.204,1570.3269,
1838.293,1558.7492,
1835.383,1566.901,
1832.472,1594.0065,
1829.562,1580.1427,
1826.651,1574.5067,
1823.740,1568.3304,
1820.830,1595.8881,
1817.919,1624.795,
1815.009,1623.2564,
1812.098,1593.5256,
1809.188,1624.0174,
1806.277,1639.9402,
1803.366,1618.0337,
1800.456,1608.8222,
1797.545,1665.4559,
1794.635,1617.605,
1791.724,1622.4926,
1788.813,1673.0549,
1785.903,1674.4148,
1782.992,1637.0295,
1780.082,1646.802,
1777.171,1630.2554,
1774.261,1648.425,
1771.350,1664.246,
1768.439,1710.2737,
1765.529,1716.4287,
1762.618,1707.845,
1759.708,1715.6521,
1756.797,1733.8409,
1753.887,1739.1465,
1750.976,1751.2467,
1748.065,1766.0211,
1745.155,1764.6113,
1742.244,1761.6015,
1739.334,1731.4924,
1736.423,1754.9901,
1733.512,1805.1769,
1730.602,1823.4861,
1727.691,1832.9266,
1724.781,1831.3171,
1721.870,1820.5928,
1718.960,1819.8945,
1716.049,1877.3003,
1713.138,1912.1899,
1710.228,1903.1955,
1707.317,1906.5574,
1704.407,1942.2875,
1701.496,1892.4687,
1698.586,1867.8463,
1695.675,1955.1423,
1692.764,1944.209,
1689.854,1970.9941,
1686.943,2017.6649,
1684.033,2021.2003,
1681.122,2074.3324,
1678.211,2115.8598,
1675.301,2116.25,
1672.390,2138.5281,
1669.480,2231.6912,
1666.569,2286.4785,
1663.659,2305.4259,
1660.748,2376.8863,
1657.837,2410.8465,
1654.927,2484.0306,
1652.016,2557.8612,
1649.106,2544.5757,
1646.195,2637.0342,
1643.285,2631.668,
1640.374,2780.0479,
1637.463,2865.439,
1634.553,2932.8805,
1631.642,3109.4552,
1628.732,3220.3403,
1625.821,3403.3586,
1622.911,3568.3146,
1620.000,3741.0578,
1617.089,3905.9465,
1614.179,4112.356,
1611.268,4366.6581,
1608.358,4545.9155,
1605.447,4664.5652,
1602.536,4731.8227,
1599.626,4744.5294,
1596.715,4760.6792,
1593.805,4760.4613,
1590.894,4769.9374,
1587.984,4712.3557,
1585.073,4670.919,
1582.162,4629.3499,
1579.252,4553.5127,
1576.341,4490.9873,
1573.431,4440.8745,
1570.520,4336.2316,
1567.610,4316.1913,
1564.699,4252.5473,
1561.788,4159.645,
1558.878,4056.8288,
1555.967,4013.6614,
1553.057,3951.1989,
1550.146,3902.2719,
1547.235,3811.9656,
1544.325,3746.636,
1541.414,3686.8644,
1538.504,3626.8359,
1535.593,3643.4125,
1532.683,3650.9833,
1529.772,3618.6625,
1526.861,3604.7895,
1523.951,3601.9225,
1521.040,3609.8897,
1518.130,3582.0689,
1515.219,3563.811,
1512.309,3537.178,
1509.398,3561.25,
1506.487,3553.6441,
1503.577,3524.3934,
1500.666,3560.0701,
1497.756,3601.902,
1494.845,3550.6107,
1491.934,3582.9256,
1489.024,3483.7888,
1486.113,3488.5949,
1483.203,3486.5855,
1480.292,3417.5206,
1477.382,3379.3861,
1474.471,3346.3917,
1471.560,3317.9313,
1468.650,3308.2002,
1465.739,3362.3322,
1462.829,3386.685,
1459.918,3462.9137,
1457.008,3507.4344,
1454.097,3484.0149,
1451.186,3425.7722,
1448.276,3310.5082,
1445.365,3214.6734,
1442.455,3145.1437,
1439.544,3109.873,
1436.633,3037.5201,
1433.723,2967.7364,
1430.812,2994.9648,
1427.902,2940.5059,
1424.991,2909.2297,
1422.081,2896.3228,
1419.170,2875.3766,
1416.259,2787.1934,
1413.349,2845.7951,
1410.438,2860.7533,
1407.528,2825.9941,
1404.617,2832.148,
1401.707,2821.753,
1398.796,2833.18,
1395.885,2877.6241,
1392.975,2854.7904,
1390.064,2766.876,
1387.154,2674.5294,
1384.243,2609.3503,
1381.332,2547.6164,
1378.422,2707.9356,
1375.511,2798.8033,
1372.601,2914.5247,
1369.690,3051.9761,
1366.780,3112.0597,
1363.869,3192.7183,
1360.958,3240.3769,
1358.048,3302.8681,
1355.137,3383.4588,
1352.227,3437.5181,
1349.316,3485.9116,
1346.406,3541.0817,
1343.495,3578.3982,
1340.584,3662.1431,
1337.674,3649.0388,
1334.763,3696.509,
1331.853,3677.0372,
1328.942,3757.1912,
1326.032,3780.2999,
1323.121,3815.8524,
1320.210,3822.5886,
1317.300,3928.8527,
1314.389,4074.6542,
1311.479,4154.7936,
1308.568,4197.3934,
1305.657,4288.327,
1302.747,4409.2829,
1299.836,4448.6458,
1296.926,4646.8137,
1294.015,4701.9732,
1291.105,4792.3042,
1288.194,4927.2564,
1285.283,4978.2981,
1282.373,5049.531,
1279.462,5084.603,
1276.552,5118.0927,
1273.641,5149.5191,
1270.731,5148.1873,
1267.820,5175.303,
1264.909,5167.987,
1261.999,5216.9267,
1259.088,5016.26,
1256.178,5017.9533,
1253.267,4925.1178,
1250.356,4802.1117,
1247.446,4728.5004,
1244.535,4652.2546,
1241.625,4535.502,
1238.714,4415.1797,
1235.804,4330.9248,
1232.893,4263.7801,
1229.982,4126.5447,
1227.072,4105.7226,
1224.161,4000.868,
1221.251,3932.1124,
1218.340,3862.1294,
1215.430,3792.5104,
1212.519,3739.7813,
1209.608,3704.5556,
1206.698,3669.4624,
1203.787,3643.4259,
1200.877,3725.2649,
1197.966,3806.1892,
1195.055,3896.4281,
1192.145,3965.3467,
1189.234,4122.7404,
1186.324,4220.0703,
1183.413,4249.2906,
1180.503,4281.4618,
1177.592,4295.6435,
1174.681,4216.5206,
1171.771,4161.0246,
1168.860,4064.571,
1165.950,4044.7682,
1163.039,4003.8378,
1160.129,3989.0196,
1157.218,4031.5933,
1154.307,4082.5574,
1151.397,4121.4033,
1148.486,4202.8984,
1145.576,4213.9461,
1142.665,4253.0143,
1139.754,4167.5645,
1136.844,4154.9533,
1133.933,4117.1946,
1131.023,4078.8081,
1128.112,4055.3947,
1125.202,4017.0327,
1122.291,3977.3969,
1119.380,4033.8343,
1116.470,3991.4729,
1113.559,3961.506,
1110.649,3947.7015,
1107.738,3934.6053,
1104.828,3886.3044,
1101.917,3826.6996,
1099.006,3808.7863,
1096.096,3763.3362,
1093.185,3748.4101,
1090.275,3773.1466,
1087.364,3777.1916,
1084.453,3821.2471,
1081.543,3855.3736,
1078.632,3868.3527,
1075.722,3904.7038,
1072.811,3929.5531,
1069.901,3947.8916,
1066.990,3954.9083,
1064.079,3935.1541,
1061.169,3938.5052,
1058.258,3939.0863,
1055.348,3925.544,
1052.437,3924.2821,
1049.527,3911.1955,
1046.616,3832.132,
1043.705,3826.3331,
1040.795,3824.0575,
1037.884,3819.2156,
1034.974,3831.1469,
1032.063,3844.5658,
1029.153,3810.262,
1026.242,3835.3457,
1023.331,3873.7476,
1020.421,3971.8732,
1017.510,4031.4199,
1014.600,4075.1634,
1011.689,4130.0691,
1008.778,4177.0882,
1005.868,4205.4894,
1002.957,4232.1604,
1000.047,4368.0181,
997.136,4441.3304,
994.226,4432.8196,
991.315,4370.1956,
988.404,4293.7376,
985.494,4263.4087,
982.583,4181.1793,
979.673,4153.1538,
976.762,4141.379,
973.852,4142.5541,
970.941,4150.7319,
968.030,4149.7413,
965.120,4124.3323,
962.209,4143.9408,
959.299,4188.3285,
956.388,4219.2491,
953.477,4211.3427,
950.567,4192.877,
947.656,4217.8071,
944.746,4222.0548,
941.835,4264.3603,
938.925,4272.2758,
936.014,4257.0869,
933.103,4208.2937,
930.193,4147.8456,
927.282,4159.042,
924.372,4099.8495,
921.461,4024.5012,
918.551,3988.6313,
915.640,3960.2776,
912.729,3912.8549,
909.819,3868.4817,
906.908,3953.5666,
903.998,3941.5474,
901.087,3951.8896,
898.176,3967.8851,
895.266,4002.2767,
892.355,4066.26,
889.445,4109.0627,
886.534,4127.6172,
883.624,4113.0835,
880.713,4169.5756,
877.802,4212.7961,
874.892,4169.4477,
871.981,4138.2044,
869.071,4093.9275,
866.160,4113.8484,
863.250,4136.7341,
860.339,4166.6545,
857.428,4194.2585,
854.518,4156.6111,
851.607,4169.0921,
848.697,4111.4099,
845.786,4086.3259,
842.875,4129.1472,
839.965,4203.0946,
837.054,4194.0315,
834.144,4263.6467,
831.233,4197.2558,
828.323,4204.2343,
825.412,4246.4547,
822.501,4225.7604,
819.591,4178.6557,
816.680,4197.2821,
813.770,4186.5874,
810.859,4181.7624,
807.949,4174.5719,
805.038,4140.0553,
802.127,4130.1778,
799.217,4074.8365,
796.306,4030.1417,
793.396,4014.1432,
790.485,4010.9845,
787.574,3977.0284,
784.664,3997.5312,
781.753,3993.1982,
778.843,4021.1053,
775.932,4067.83,
773.022,4096.4748,
770.111,4085.0287,
767.200,4100.2376,
764.290,4139.3448,
761.379,4141.0118,
758.469,4100.0183,
755.558,4077.3324,
752.648,3979.58,
749.737,3949.8054,
746.826,3879.9115,
743.916,3761.2948,
741.005,3616.7298,
738.095,3364.2361,
735.184,3005.3225,
732.274,2898.4413,
729.363,3111.2289,
726.452,3532.688,
723.542,3778.7436,
720.631,3881.7011,
717.721,3933.3095,
714.810,3945.9205,
711.899,3931.6064,
708.989,3907.3987,
706.078,3927.2826,
703.168,3952.8955,
700.257,3943.146,
697.347,3903.7289,
694.436,3878.6352,
691.525,3819.1536,
688.615,3856.5629,
685.704,3909.5615,
682.794,3921.0587,
679.883,3860.4486,
676.973,3909.3323,
674.062,3892.4506,
671.151,3905.3031,
668.241,3938.1528,
665.330,3932.561,
662.420,4023.6164,
659.509,4039.0753,
656.598,4025.9985,
653.688,4018.8414,
650.777,4042.6029,
647.867,3994.0268,
644.956,3979.5351,
642.046,3979.323,
639.135,3994.1977,
636.224,4039.2341,
633.314,4036.0583,
630.403,4049.4391,
627.493,4070.3882,
624.582,4069.8866,
621.672,3987.5192,
618.761,4021.487,
615.850,4052.5346,
612.940,4079.1791,
610.029,4100.9076,
607.119,4104.8558,
604.208,4113.7702,
601.297,4111.2678,
598.387,4108.1163,
595.476,4111.2389,
592.566,4068.7372,
589.655,4081.3346,
586.745,4083.1367,
583.834,4067.5171,
580.923,4053.9846,
578.013,4010.0395,
575.102,4082.5675,
572.192,4152.0384,
569.281,4176.201,
566.371,4242.724,
563.460,4235.8461,
560.549,4247.3048,
557.639,4275.9925,
554.728,4305.6934,
551.818,4312.7163,
548.907,4387.3796,
545.996,4384.4849,
543.086,4310.4441,
540.175,4329.9102,
537.265,4392.8137,
534.354,4394.1756,
531.444,4374.2006,
528.533,4378.1464,
525.622,4362.6274,
522.712,4355.6095,
519.801,4366.2339,
516.891,4405.2481,
513.980,4494.2921,
511.070,4451.537,
508.159,4451.7405,
505.248,4463.7333,
502.338,4432.5258,
499.427,4544.4415,
496.517,4545.9672,
493.606,4534.0083,
490.695,4557.1014,
487.785,4584.8139,
484.874,4613.1603,
481.964,4597.1805,
479.053,4544.6669,
476.143,4496.2853,
473.232,4526.3426,
470.321,4527.5722,
467.411,4511.1978,
464.500,4500.433,
461.590,4547.1431,
458.679,4540.9897,
455.769,4542.2635,
452.858,4582.5109,
449.947,4613.8321,
447.037,4602.6539,
444.126,4594.2076,
441.216,4609.0393,
438.305,4665.4223,
435.395,4647.6802,
432.484,4623.8312,
429.573,4619.3676,
426.663,4662.6956,
423.752,4648.1171,
420.842,4639.3366,
417.931,4655.9184,
415.020,4718.1038,
412.110,4827.7971,
409.199,4897.5678,
406.289,4921.8706,
403.378,4899.1117,
400.468,4858.288,
397.557,4803.0897,
394.646,4758.6711,
391.736,4742.8214,
388.825,4635.7206,
385.915,4559.0135,
383.004,4529.8151,
380.094,4562.4306,
377.183,4683.5793,
374.272,4826.3489,
371.362,4947.9771,
368.451,5016.9704,
365.541,4979.4436,
362.630,5006.9406,
359.719,5061.6314,
356.809,5112.9003,
353.898,5041.0157,
350.988,5041.8645,
348.077,5034.5653,
345.167,4974.8933,
342.256,4987.5935,
339.345,4996.0329,
336.435,5011.0761,
333.524,5040.0721,
330.614,5066.1525,
327.703,5104.5409,
324.793,5132.2188,
321.882,5129.396,
318.971,5189.6149,
316.061,5263.9646,
313.150,5332.4904,
310.240,5371.8226,
307.329,5440.4259,
304.418,5443.9964,
301.508,5402.8592,
298.597,5352.5108,
295.687,5319.8059,
292.776,5359.5836,
289.866,5498.8616,
286.955,5805.4326,
284.044,6109.2072,
281.134,6395.4051,
278.223,6646.6984,
275.313,6793.3326,
272.402,7012.4626,
269.492,7178.9847,
266.581,7259.4387,
263.670,7457.9373,
260.760,7627.5624,
257.849,7754.1163,
254.939,7822.3674,
252.028,7863.7853,
249.117,7848.6426,
246.207,7803.1583,
243.296,7768.0205,
240.386,7710.7047,
237.475,7593.5028,
234.565,7433.9949,
231.654,7324.4373,
228.743,7277.0845,
225.833,7215.04,
222.922,7112.7891,
220.012,7081.4613,
217.101,6979.9769,
214.191,6858.3671,
211.280,6768.8892,
208.369,6668.729,
205.459,6624.0485,
202.548,6627.8823,
199.638,6643.121,
196.727,6616.863,
193.816,6600.9694,
190.906,6614.4532,
187.995,6620.2454,
185.085,6633.5985,
182.174,6646.4459,
179.264,6647.1686,
176.353,6599.8324,
173.442,6627.2711,
170.532,6713.4293,
167.621,6637.7268,
164.711,6553.1307,
161.800,6391.2916,
158.890,6086.8468,
155.979,5681.2795,
153.068,5234.0623,
150.158,4732.371,
147.247,4104.1628,
144.337,3378.7287,
141.426,2654.7846,
138.516,1978.0393,
135.605,1425.8423,
132.694,968.15164,
129.784,613.4808,
126.873,419.68061,
123.963,285.78436,
121.052,190.45371,
118.141,130.48594,
115.231,111.77517,
112.320,90.270014,
109.410,70.295513,
106.499,65.310427,
103.589,59.767964,
100.678,52.175674,
97.767,41.511611,
94.857,45.407934,
91.946,47.653111,
89.036,46.443633,
86.125,35.096349,
83.215,35.966442,
80.304,35.419077,
77.393,24.088358,
74.483,25.87054,
71.572,26.887648,
68.662,25.97293,
65.751,23.147126,
62.840,23.213404,
59.930,23.126283,
57.019,18.895791,
54.109,21.832965,
51.198,22.741954,
48.288,19.25,
45.377,19.25,
42.466,21.723316,
39.556,25.019763,
36.645,23.615382,
33.735,22.730752,
30.824,24.679757,
27.914,32.392684,
25.003,36.363187,
22.092,38.25,
19.182,39.394143,
16.271,74.36865,
13.361,273.69151,
10.450,687.26105,
7.539,1611.1323,
4.629,2396.4892,
1.718,2759.93,
-1.192,2279.5975,
-4.103,1381.4891,
-7.013,586.78327,
-9.924,4.25,
