,PL35D3~1,
Raman shift [1/cm],Intensity,
3014.167,-1.125,
3011.256,1.2750859,
3008.346,140.72025,
3005.435,161.76193,
3002.525,183.97008,
2999.614,183.06332,
2996.704,186.19356,
2993.793,180.37039,
2990.882,192.91312,
2987.972,193.89518,
2985.061,203.1952,
2982.151,213.39769,
2979.240,221.97577,
2976.329,214.86954,
2973.419,244.21364,
2970.508,237.49166,
2967.598,249.59187,
2964.687,263.39742,
2961.777,259.25103,
2958.866,260.20784,
2955.955,266.94579,
2953.045,270.47906,
2950.134,290.17236,
2947.224,285.15969,
2944.313,307.90848,
2941.403,313.44617,
2938.492,326.59858,
2935.581,325.94495,
2932.671,321.59604,
2929.760,331.15193,
2926.850,318.76335,
2923.939,339.39368,
2921.028,342.33381,
2918.118,343.91783,
2915.207,364.52054,
2912.297,343.95539,
2909.386,362.28376,
2906.476,354.5885,
2903.565,368.08463,
2900.654,346.85279,
2897.744,349.76185,
2894.833,338.81318,
2891.923,343.1731,
2889.012,365.875,
2886.102,365.27095,
2883.191,365.87406,
2880.280,359.63576,
2877.370,345.30524,
2874.459,360.69889,
2871.549,360.4408,
2868.638,369.46675,
2865.727,379.58653,
2862.817,382.14639,
2859.906,380.50748,
2856.996,375.84783,
2854.085,375.71322,
2851.175,384.4684,
2848.264,394.13999,
2845.353,368.41418,
2842.443,382.89241,
2839.532,370.97946,
2836.622,370.60547,
2833.711,368.52019,
2830.801,367.26324,
2827.890,385.25617,
2824.979,391.47917,
2822.069,373.00009,
2819.158,384.63511,
2816.248,391.85184,
2813.337,380.57621,
2810.427,392.91908,
2807.516,396.08359,
2804.605,375.875,
2801.695,365.12498,
2798.784,382.80515,
2795.874,388.44492,
2792.963,385.37489,
2790.052,381.87521,
2787.142,388.34854,
2784.231,384.22902,
2781.321,375.88076,
2778.410,389.63008,
2775.500,379.45052,
2772.589,391.45222,
2769.678,385.66345,
2766.768,394.97794,
2763.857,392.13897,
2760.947,388.30881,
2758.036,400.74775,
2755.126,404.5438,
2752.215,393.55675,
2749.304,405.44872,
2746.394,395.08669,
2743.483,403.02497,
2740.573,395.56742,
2737.662,394.67233,
2734.751,405.08378,
2731.841,382.36034,
2728.930,417.23959,
2726.020,410.3397,
2723.109,432.96767,
2720.199,407.0312,
2717.288,414.3312,
2714.377,419.09992,
2711.467,431.84204,
2708.556,434.66237,
2705.646,423.95949,
2702.735,419.53479,
2699.825,422.65686,
2696.914,436.11319,
2694.003,433.875,
2691.093,431.1963,
2688.182,426.34759,
2685.272,424.27329,
2682.361,430.05731,
2679.450,441.78443,
2676.540,441.89532,
2673.629,443.87051,
2670.719,440.73636,
2667.808,444.53455,
2664.898,437.61527,
2661.987,456.70872,
2659.076,458.78234,
2656.166,449.52003,
2653.255,444.98724,
2650.345,447.3632,
2647.434,476.81727,
2644.524,471.47699,
2641.613,486.21755,
2638.702,473.98547,
2635.792,474.31269,
2632.881,465.36917,
2629.971,476.45228,
2627.060,476.20937,
2624.149,468.79375,
2621.239,474.38389,
2618.328,471.49352,
2615.418,467.52046,
2612.507,476.25445,
2609.597,486.7732,
2606.686,482.01758,
2603.775,489.43452,
2600.865,496.28458,
2597.954,494.58752,
2595.044,496.14338,
2592.133,509.65206,
2589.223,516.00764,
2586.312,512.24182,
2583.401,518.875,
2580.491,501.45197,
2577.580,493.89811,
2574.670,509.25869,
2571.759,517.27911,
2568.848,528.28388,
2565.938,505.49393,
2563.027,512.09324,
2560.117,519.75355,
2557.206,528.35471,
2554.296,511.21825,
2551.385,520.32107,
2548.474,537.61589,
2545.564,530.22321,
2542.653,532.89513,
2539.743,535.09681,
2536.832,535.75351,
2533.922,547.11154,
2531.011,555.00058,
2528.100,536.3419,
2525.190,535.08443,
2522.279,567.70255,
2519.369,543.57313,
2516.458,549.54639,
2513.548,570.24751,
2510.637,539.92021,
2507.726,550.56644,
2504.816,546.18842,
2501.905,566.48354,
2498.995,555.48741,
2496.084,574.43594,
2493.173,568.71739,
2490.263,567.09984,
2487.352,584.7498,
2484.442,577.31827,
2481.531,571.1409,
2478.621,586.62385,
2475.710,583.95168,
2472.799,587.46252,
2469.889,571.75312,
2466.978,566.49365,
2464.068,586.81688,
2461.157,592.99245,
2458.247,596.33082,
2455.336,596.12941,
2452.425,607.89859,
2449.515,606.10162,
2446.604,610.99715,
2443.694,613.17766,
2440.783,600.44257,
2437.872,618.27611,
2434.962,621.2575,
2432.051,605.2393,
2429.141,626.53362,
2426.230,616.04844,
2423.320,636.20391,
2420.409,632.46454,
2417.498,633.72049,
2414.588,638.40725,
2411.677,639.875,
2408.767,640.88681,
2405.856,636.37028,
2402.946,640.88125,
2400.035,640.58157,
2397.124,634.69316,
2394.214,667.4702,
2391.303,662.69275,
2388.393,646.40987,
2385.482,647.69875,
2382.571,661.20406,
2379.661,657.29371,
2376.750,655.9784,
2373.840,665.79686,
2370.929,681.71255,
2368.019,664.72966,
2365.108,678.10798,
2362.197,668.49963,
2359.287,687.22821,
2356.376,676.90318,
2353.466,697.28426,
2350.555,688.15976,
2347.645,684.38757,
2344.734,692.02708,
2341.823,694.84183,
2338.913,700.58545,
2336.002,707.95391,
2333.092,735.15051,
2330.181,727.48632,
2327.270,727.43496,
2324.360,741.901,
2321.449,711.81378,
2318.539,719.44993,
2315.628,734.73152,
2312.718,717.79349,
2309.807,707.4026,
2306.896,738.85152,
2303.986,732.48541,
2301.075,729.70481,
2298.165,750.61585,
2295.254,732.41358,
2292.344,740.29827,
2289.433,737.24955,
2286.522,762.24988,
2283.612,757.93365,
2280.701,756.79875,
2277.791,752.47612,
2274.880,766.01902,
2271.969,759.78035,
2269.059,774.42543,
2266.148,760.69303,
2263.238,776.8634,
2260.327,778.94397,
2257.417,777.97722,
2254.506,780.37076,
2251.595,788.87866,
2248.685,799.86918,
2245.774,803.07283,
2242.864,804.74533,
2239.953,809.70246,
2237.043,821.18573,
2234.132,802.32435,
2231.221,816.79755,
2228.311,796.77967,
2225.400,831.32533,
2222.490,846.68933,
2219.579,849.63594,
2216.669,850.90362,
2213.758,860.52992,
2210.847,855.17225,
2207.937,856.67141,
2205.026,873.76392,
2202.116,881.00343,
2199.205,905.11241,
2196.294,907.437,
2193.384,924.92703,
2190.473,916.43134,
2187.563,907.13118,
2184.652,954.60358,
2181.742,944.08193,
2178.831,988.55593,
2175.920,1004.9442,
2173.010,1040.3518,
2170.099,1095.6697,
2167.189,1169.2984,
2164.278,1231.3966,
2161.368,1282.4427,
2158.457,1382.1745,
2155.546,1432.3741,
2152.636,1481.7153,
2149.725,1553.4656,
2146.815,1586.1409,
2143.904,1661.1947,
2140.993,1716.0918,
2138.083,1732.5802,
2135.172,1732.7658,
2132.262,1759.6444,
2129.351,1705.9505,
2126.441,1707.9624,
2123.530,1651.7638,
2120.619,1545.068,
2117.709,1463.7699,
2114.798,1381.1634,
2111.888,1324.8768,
2108.977,1237.5571,
2106.067,1181.0566,
2103.156,1127.8832,
2100.245,1082.8599,
2097.335,1056.7075,
2094.424,1036.3274,
2091.514,1011.8642,
2088.603,994.8243,
2085.692,978.14276,
2082.782,989.90698,
2079.871,944.01504,
2076.961,968.35646,
2074.050,967.19621,
2071.140,959.82855,
2068.229,984.88803,
2065.318,972.7025,
2062.408,971.98091,
2059.497,960.06547,
2056.587,939.85202,
2053.676,939.40793,
2050.766,950.10519,
2047.855,931.21675,
2044.944,945.0032,
2042.034,951.29108,
2039.123,923.13426,
2036.213,923.39281,
2033.302,937.22276,
2030.391,956.97626,
2027.481,942.81424,
2024.570,944.98902,
2021.660,935.58455,
2018.749,954.4571,
2015.839,942.26083,
2012.928,932.10487,
2010.017,932.55035,
2007.107,931.875,
2004.196,945.69648,
2001.286,952.83261,
1998.375,944.6998,
1995.465,933.43572,
1992.554,918.60452,
1989.643,914.94413,
1986.733,922.96535,
1983.822,909.55521,
1980.912,919.2705,
1978.001,909.41676,
1975.090,937.67195,
1972.180,932.59974,
1969.269,905.49562,
1966.359,894.4156,
1963.448,901.98861,
1960.538,910.36708,
1957.627,888.69232,
1954.716,899.47282,
1951.806,924.29174,
1948.895,879.97614,
1945.985,911.81127,
1943.074,897.35105,
1940.164,902.25987,
1937.253,889.73222,
1934.342,876.13167,
1931.432,882.78351,
1928.521,856.13407,
1925.611,851.59577,
1922.700,866.91229,
1919.790,859.67859,
1916.879,862.52625,
1913.968,829.91558,
1911.058,842.33746,
1908.147,850.73487,
1905.237,868.63239,
1902.326,891.875,
1899.415,886.95426,
1896.505,868.65201,
1893.594,847.24387,
1890.684,859.5938,
1887.773,847.37584,
1884.863,846.47409,
1881.952,878.70731,
1879.041,875.52765,
1876.131,867.80311,
1873.220,845.08288,
1870.310,842.80325,
1867.399,834.01894,
1864.489,867.6024,
1861.578,861.71559,
1858.667,869.28818,
1855.757,856.50865,
1852.846,827.41856,
1849.936,860.43255,
1847.025,883.51976,
1844.114,881.80437,
1841.204,871.99388,
1838.293,881.875,
1835.383,912.47897,
1832.472,933.7237,
1829.562,916.18255,
1826.651,920.18299,
1823.740,906.21979,
1820.830,916.62319,
1817.919,921.875,
1815.009,852.52005,
1812.098,909.99307,
1809.188,931.00675,
1806.277,952.41023,
1803.366,898.55709,
1800.456,939.86423,
1797.545,956.22964,
1794.635,954.13207,
1791.724,974.12755,
1788.813,932.87886,
1785.903,958.71018,
1782.992,993.68123,
1780.082,968.2851,
1777.171,973.875,
1774.261,981.90516,
1771.350,985.18975,
1768.439,978.23801,
1765.529,991.32963,
1762.618,994.29063,
1759.708,1000.962,
1756.797,995.73106,
1753.887,977.72048,
1750.976,999.94763,
1748.065,994.45411,
1745.155,1005.978,
1742.244,1033.7935,
1739.334,998.10795,
1736.423,973.22267,
1733.512,1002.1637,
1730.602,1020.6072,
1727.691,1052.0461,
1724.781,1053.7958,
1721.870,1072.7989,
1718.960,1042.519,
1716.049,1055.0104,
1713.138,1064.005,
1710.228,1053.5611,
1707.317,1079.2967,
1704.407,1114.3189,
1701.496,1109.6711,
1698.586,1148.6063,
1695.675,1100.411,
1692.764,1144.2111,
1689.854,1122.9577,
1686.943,1140.2342,
1684.033,1097.9678,
1681.122,1158.8045,
1678.211,1126.1986,
1675.301,1216.5944,
1672.390,1248.869,
1669.480,1246.9071,
1666.569,1251.3447,
1663.659,1288.61,
1660.748,1332.4894,
1657.837,1313.5311,
1654.927,1344.1167,
1652.016,1395.9236,
1649.106,1397.263,
1646.195,1373.4265,
1643.285,1396.627,
1640.374,1431.0074,
1637.463,1531.4335,
1634.553,1562.3922,
1631.642,1597.6785,
1628.732,1671.3787,
1625.821,1755.9398,
1622.911,1854.3171,
1620.000,1991.1364,
1617.089,2010.5168,
1614.179,2206.2066,
1611.268,2303.3431,
1608.358,2418.3967,
1605.447,2540.7902,
1602.536,2595.4012,
1599.626,2627.3929,
1596.715,2604.4622,
1593.805,2611.7127,
1590.894,2610.233,
1587.984,2570.0348,
1585.073,2563.875,
1582.162,2487.9004,
1579.252,2463.0554,
1576.341,2452.8644,
1573.431,2479.0693,
1570.520,2433.3686,
1567.610,2429.5419,
1564.699,2368.6223,
1561.788,2320.6358,
1558.878,2272.6403,
1555.967,2251.5717,
1553.057,2218.6167,
1550.146,2203.3332,
1547.235,2124.5906,
1544.325,2072.8337,
1541.414,2083.4358,
1538.504,2047.2294,
1535.593,1979.1209,
1532.683,1957.2253,
1529.772,1938.7067,
1526.861,1910.9216,
1523.951,1917.2842,
1521.040,1881.8396,
1518.130,1829.0707,
1515.219,1824.5549,
1512.309,1802.8614,
1509.398,1723.6602,
1506.487,1731.0242,
1503.577,1766.1116,
1500.666,1754.3081,
1497.756,1736.1539,
1494.845,1666.875,
1491.934,1666.938,
1489.024,1686.1879,
1486.113,1627.5332,
1483.203,1607.7761,
1480.292,1564.2979,
1477.382,1561.7245,
1474.471,1580.5247,
1471.560,1573.5387,
1468.650,1525.1455,
1465.739,1504.2345,
1462.829,1480.0023,
1459.918,1480.4497,
1457.008,1493.875,
1454.097,1498.4966,
1451.186,1496.8054,
1448.276,1488.7198,
1445.365,1488.6602,
1442.455,1479.9618,
1439.544,1484.073,
1436.633,1509.4083,
1433.723,1475.5102,
1430.812,1448.2548,
1427.902,1402.8299,
1424.991,1400.9344,
1422.081,1398.1226,
1419.170,1394.4188,
1416.259,1368.763,
1413.349,1365.1407,
1410.438,1328.0869,
1407.528,1333.7622,
1404.617,1322.3899,
1401.707,1353.5696,
1398.796,1387.8505,
1395.885,1382.1821,
1392.975,1361.3739,
1390.064,1317.8181,
1387.154,1330.7165,
1384.243,1340.218,
1381.332,1294.0963,
1378.422,1303.4106,
1375.511,1449.5484,
1372.601,1543.1105,
1369.690,1475.4394,
1366.780,1540.4944,
1363.869,1619.7196,
1360.958,1714.4988,
1358.048,1747.7218,
1355.137,1768.5308,
1352.227,1833.3393,
1349.316,1886.8191,
1346.406,1906.4792,
1343.495,1959.3141,
1340.584,2027.4096,
1337.674,2097.3742,
1334.763,2087.0627,
1331.853,2144.551,
1328.942,2144.2066,
1326.032,2200.9684,
1323.121,2287.2305,
1320.210,2321.532,
1317.300,2336.4992,
1314.389,2369.056,
1311.479,2416.0302,
1308.568,2450.5445,
1305.657,2463.6513,
1302.747,2496.7006,
1299.836,2592.1429,
1296.926,2691.6607,
1294.015,2794.6249,
1291.105,2856.1102,
1288.194,2925.3782,
1285.283,2984.5512,
1282.373,3082.8747,
1279.462,3172.1487,
1276.552,3222.2058,
1273.641,3256.5777,
1270.731,3287.6974,
1267.820,3296.6673,
1264.909,3296.2377,
1261.999,3298.409,
1259.088,3285.6393,
1256.178,3255.7555,
1253.267,3180.293,
1250.356,3125.0123,
1247.446,3043.7483,
1244.535,2930.9779,
1241.625,2805.5492,
1238.714,2715.5818,
1235.804,2683.9965,
1232.893,2608.8812,
1229.982,2578.9738,
1227.072,2522.8445,
1224.161,2484.4143,
1221.251,2416.8252,
1218.340,2380.9753,
1215.430,2335.9891,
1212.519,2302.2529,
1209.608,2295.3944,
1206.698,2300.322,
1203.787,2331.4579,
1200.877,2352.881,
1197.966,2385.2507,
1195.055,2469.6401,
1192.145,2498.9019,
1189.234,2583.0277,
1186.324,2639.5127,
1183.413,2659.2659,
1180.503,2649.3024,
1177.592,2603.7638,
1174.681,2583.0736,
1171.771,2556.2774,
1168.860,2530.3778,
1165.950,2485.9479,
1163.039,2451.4309,
1160.129,2447.3634,
1157.218,2443.7025,
1154.307,2431.1647,
1151.397,2409.7556,
1148.486,2365.3764,
1145.576,2357.3376,
1142.665,2367.9925,
1139.754,2346.907,
1136.844,2325.768,
1133.933,2329.4321,
1131.023,2287.777,
1128.112,2262.1565,
1125.202,2302.0731,
1122.291,2268.0165,
1119.380,2310.5372,
1116.470,2276.1186,
1113.559,2336.8279,
1110.649,2340.1587,
1107.738,2320.6228,
1104.828,2326.2707,
1101.917,2341.3658,
1099.006,2319.0401,
1096.096,2288.1113,
1093.185,2308.3054,
1090.275,2315.5399,
1087.364,2294.9191,
1084.453,2294.9994,
1081.543,2301.1221,
1078.632,2296.9946,
1075.722,2298.8929,
1072.811,2324.2545,
1069.901,2315.5219,
1066.990,2381.1582,
1064.079,2378.5011,
1061.169,2371.5319,
1058.258,2394.4728,
1055.348,2428.5783,
1052.437,2451.0262,
1049.527,2506.5323,
1046.616,2471.7792,
1043.705,2512.5794,
1040.795,2535.4526,
1037.884,2543.9094,
1034.974,2539.799,
1032.063,2526.6827,
1029.153,2530.2492,
1026.242,2591.6611,
1023.331,2588.8753,
1020.421,2587.875,
1017.510,2614.7682,
1014.600,2626.5705,
1011.689,2625.2778,
1008.778,2667.8031,
1005.868,2749.8171,
1002.957,2854.7803,
1000.047,2924.019,
997.136,3027.2752,
994.226,3097.0287,
991.315,3098.0879,
988.404,3063.2004,
985.494,3033.453,
982.583,3014.6088,
979.673,3019.9231,
976.762,3004.6748,
973.852,2969.3325,
970.941,2950.0628,
968.030,2969.6206,
965.120,2956.9967,
962.209,2985.9832,
959.299,3010.706,
956.388,3007.1158,
953.477,2999.5191,
950.567,3001.6136,
947.656,3006.8912,
944.746,3052.7672,
941.835,3050.8259,
938.925,3046.5847,
936.014,3021.607,
933.103,2999.2281,
930.193,2990.8859,
927.282,2951.2545,
924.372,2884.4516,
921.461,2853.783,
918.551,2838.3229,
915.640,2822.6764,
912.729,2804.8497,
909.819,2789.8716,
906.908,2759.5443,
903.998,2768.2147,
901.087,2812.2479,
898.176,2838.261,
895.266,2828.8138,
892.355,2821.7222,
889.445,2922.4342,
886.534,2939.5724,
883.624,2961.0415,
880.713,2972.9371,
877.802,2993.2446,
874.892,3019.2565,
871.981,2989.6185,
869.071,2978.7582,
866.160,2990.6742,
863.250,3002.6412,
860.339,2994.9879,
857.428,2967.8575,
854.518,2950.2491,
851.607,2928.6153,
848.697,2893.2354,
845.786,2876.2802,
842.875,2884.3615,
839.965,2898.6661,
837.054,2875.2285,
834.144,2906.7211,
831.233,2883.5438,
828.323,2878.2719,
825.412,2882.4016,
822.501,2857.0236,
819.591,2780.1685,
816.680,2788.2917,
813.770,2742.6343,
810.859,2722.4486,
807.949,2718.2676,
805.038,2681.4679,
802.127,2694.638,
799.217,2668.2955,
796.306,2685.5509,
793.396,2691.081,
790.485,2667.6644,
787.574,2665.5984,
784.664,2631.9738,
781.753,2624.533,
778.843,2634.1667,
775.932,2649.8132,
773.022,2665.0593,
770.111,2692.0394,
767.200,2720.5209,
764.290,2687.2678,
761.379,2648.9976,
758.469,2641.2696,
755.558,2656.708,
752.648,2617.607,
749.737,2579.8467,
746.826,2580.1927,
743.916,2571.2317,
741.005,2482.5428,
738.095,2329.098,
735.184,2249.3799,
732.274,2198.5801,
729.363,2246.1559,
726.452,2409.6787,
723.542,2535.9441,
720.631,2600.2154,
717.721,2597.8254,
714.810,2608.3805,
711.899,2654.0136,
708.989,2671.766,
706.078,2647.0346,
703.168,2623.2656,
700.257,2604.8613,
697.347,2594.875,
694.436,2594.5477,
691.525,2582.4906,
688.615,2585.5352,
685.704,2574.1974,
682.794,2555.8112,
679.883,2558.5506,
676.973,2551.3383,
674.062,2539.0276,
671.151,2544.7099,
668.241,2569.6432,
665.330,2600.6481,
662.420,2595.8557,
659.509,2578.3668,
656.598,2548.5358,
653.688,2538.208,
650.777,2592.605,
647.867,2584.6417,
644.956,2585.3516,
642.046,2576.0954,
639.135,2568.8401,
636.224,2598.7755,
633.314,2578.9271,
630.403,2596.341,
627.493,2619.9406,
624.582,2634.4641,
621.672,2641.5921,
618.761,2660.8735,
615.850,2686.7106,
612.940,2697.0689,
610.029,2690.8729,
607.119,2720.8788,
604.208,2741.6253,
601.297,2709.9906,
598.387,2669.7285,
595.476,2669.1034,
592.566,2692.7154,
589.655,2672.9031,
586.745,2661.1769,
583.834,2659.5812,
580.923,2647.8181,
578.013,2638.4013,
575.102,2636.4486,
572.192,2619.3681,
569.281,2605.0282,
566.371,2700.5083,
563.460,2690.8274,
560.549,2687.2605,
557.639,2694.2921,
554.728,2701.9097,
551.818,2718.2963,
548.907,2734.6727,
545.996,2737.0432,
543.086,2736.2631,
540.175,2775.1954,
537.265,2736.5911,
534.354,2771.5458,
531.444,2806.2702,
528.533,2770.8414,
525.622,2840.6767,
522.712,2839.4927,
519.801,2874.7006,
516.891,2953.5701,
513.980,2976.799,
511.070,2990.1446,
508.159,3028.7822,
505.248,3077.3917,
502.338,3113.0272,
499.427,3152.3906,
496.517,3160.6124,
493.606,3183.1024,
490.695,3236.4382,
487.785,3276.4673,
484.874,3236.3469,
481.964,3220.8417,
479.053,3239.6553,
476.143,3259.6223,
473.232,3255.8392,
470.321,3223.2207,
467.411,3185.5565,
464.500,3170.5344,
461.590,3196.5695,
458.679,3204.4253,
455.769,3217.7926,
452.858,3242.5345,
449.947,3210.4494,
447.037,3258.4835,
444.126,3300.1598,
441.216,3306.6418,
438.305,3282.26,
435.395,3299.1997,
432.484,3319.4603,
429.573,3338.3776,
426.663,3361.9419,
423.752,3384.1002,
420.842,3359.5369,
417.931,3334.7423,
415.020,3387.0691,
412.110,3451.7937,
409.199,3491.0119,
406.289,3525.0936,
403.378,3577.5804,
400.468,3490.6411,
397.557,3470.5872,
394.646,3480.5685,
391.736,3486.9575,
388.825,3458.2967,
385.915,3423.2653,
383.004,3407.0136,
380.094,3428.0229,
377.183,3489.726,
374.272,3573.0942,
371.362,3616.5133,
368.451,3590.3855,
365.541,3648.1768,
362.630,3684.0859,
359.719,3694.9556,
356.809,3682.5061,
353.898,3709.4629,
350.988,3732.6071,
348.077,3728.7409,
345.167,3687.9724,
342.256,3709.6374,
339.345,3717.4693,
336.435,3708.3265,
333.524,3681.7675,
330.614,3710.0835,
327.703,3735.304,
324.793,3741.0789,
321.882,3713.003,
318.971,3765.7874,
316.061,3796.5712,
313.150,3813.5702,
310.240,3825.4441,
307.329,3876.6142,
304.418,3850.3678,
301.508,3782.8627,
298.597,3737.6972,
295.687,3781.2818,
292.776,3785.9582,
289.866,3795.9054,
286.955,3962.1186,
284.044,4088.9724,
281.134,4175.906,
278.223,4234.3776,
275.313,4319.8528,
272.402,4386.09,
269.492,4452.2434,
266.581,4524.6571,
263.670,4591.5585,
260.760,4630.7256,
257.849,4662.9895,
254.939,4703.353,
252.028,4700.2558,
249.117,4726.2846,
246.207,4748.0786,
243.296,4706.3525,
240.386,4672.4904,
237.475,4653.0331,
234.565,4642.6187,
231.654,4615.5945,
228.743,4551.1875,
225.833,4492.0204,
222.922,4454.1084,
220.012,4416.2235,
217.101,4389.6442,
214.191,4381.8689,
211.280,4405.1477,
208.369,4341.6121,
205.459,4314.2668,
202.548,4330.2762,
199.638,4384.6998,
196.727,4433.329,
193.816,4439.2014,
190.906,4390.932,
187.995,4449.578,
185.085,4454.7436,
182.174,4437.6791,
179.264,4436.9564,
176.353,4466.3508,
173.442,4468.0101,
170.532,4437.7587,
167.621,4402.4308,
164.711,4322.4489,
161.800,4178.51,
158.890,3943.1591,
155.979,3792.8785,
153.068,3501.6444,
150.158,3095.0295,
147.247,2678.6172,
144.337,2218.9483,
141.426,1749.4925,
138.516,1284.2301,
135.605,910.74495,
132.694,613.08257,
129.784,392.01836,
126.873,274.73707,
123.963,190.55357,
121.052,130.14396,
118.141,93.021057,
115.231,70.136749,
112.320,59.604092,
109.410,55.556961,
106.499,43.450322,
103.589,43.116018,
100.678,42.158783,
97.767,35.049407,
94.857,27.94511,
91.946,24.471889,
89.036,24.326592,
86.125,27.163413,
83.215,27.875,
80.304,26.198971,
77.393,21.241782,
74.483,20.875,
71.572,20.512648,
68.662,19.251593,
65.751,12.893533,
62.840,11.356702,
59.930,12.811431,
57.019,16.336841,
54.109,12.694874,
51.198,9.875,
48.288,9.8466878,
45.377,6.3297975,
42.466,11.05829,
39.556,19.644763,
36.645,18.240382,
33.735,14.240261,
30.824,9.9914521,
27.914,7.1867511,
25.003,11.233462,
22.092,11.614668,
19.182,6.9894143,
16.271,10.486865,
13.361,44.327264,
10.450,74.332039,
7.539,-10.16412,
4.629,-175.66334,
1.718,-403.13542,
-1.192,-706.3933,
-4.103,-574.36987,
-7.013,-323.66666,
-9.924,-2.125,
