,PLD19A~1,
Wavenumbers [1/cm],Intensity,
3014.167,-6.125,
3011.256,2.5749356,
3008.346,167.7009,
3005.435,175.14709,
3002.525,190.46001,
2999.614,200.02304,
2996.704,196.32654,
2993.793,213.75115,
2990.882,207.79106,
2987.972,226.84978,
2985.061,221.43165,
2982.151,227.92038,
2979.240,235.47194,
2976.329,244.36135,
2973.419,250.27474,
2970.508,270.74161,
2967.598,266.78303,
2964.687,278.18886,
2961.777,283.55889,
2958.866,291.88242,
2955.955,284.91039,
2953.045,279.01149,
2950.134,314.60972,
2947.224,304.09916,
2944.313,334.18981,
2941.403,337.25638,
2938.492,326.31132,
2935.581,343.25657,
2932.671,344.91794,
2929.760,340.0942,
2926.850,346.56861,
2923.939,347.47312,
2921.028,359.26917,
2918.118,363.31581,
2915.207,375.17253,
2912.297,368.91731,
2909.386,361.47354,
2906.476,372.96768,
2903.565,385.22907,
2900.654,396.03982,
2897.744,369.16416,
2894.833,377.85464,
2891.923,370.84941,
2889.012,385.53974,
2886.102,392.47905,
2883.191,416.85234,
2880.280,409.49224,
2877.370,450.86334,
2874.459,457.40952,
2871.549,421.54575,
2868.638,400.01108,
2865.727,408.02888,
2862.817,382.48865,
2859.906,406.24252,
2856.996,413.88859,
2854.085,402.07246,
2851.175,407.66114,
2848.264,411.15933,
2845.353,408.83187,
2842.443,395.6945,
2839.532,390.51672,
2836.622,377.35807,
2833.711,383.07439,
2830.801,401.27059,
2827.890,398.68794,
2824.979,406.65296,
2822.069,411.06833,
2819.158,420.27391,
2816.248,399.65684,
2813.337,414.4628,
2810.427,424.48519,
2807.516,440.39281,
2804.605,425.30529,
2801.695,428.04605,
2798.784,416.61423,
2795.874,406.86443,
2792.963,425.87521,
2790.052,407.87993,
2787.142,420.36188,
2784.231,409.97284,
2781.321,408.12644,
2778.410,413.94987,
2775.500,419.17259,
2772.589,418.02943,
2769.678,430.58829,
2766.768,429.19344,
2763.857,426.92895,
2760.947,431.33402,
2758.036,438.42922,
2755.126,434.86859,
2752.215,437.51573,
2749.304,448.42713,
2746.394,429.10882,
2743.483,439.37502,
2740.573,445.52106,
2737.662,456.75814,
2734.751,445.61783,
2731.841,454.14607,
2728.930,446.12071,
2726.020,452.2066,
2723.109,446.44208,
2720.199,466.44376,
2717.288,458.34945,
2714.377,467.67894,
2711.467,475.20248,
2708.556,497.0451,
2705.646,478.05804,
2702.735,468.71263,
2699.825,478.74411,
2696.914,475.16044,
2694.003,493.48964,
2691.093,485.07116,
2688.182,488.56685,
2685.272,476.31739,
2682.361,480.90994,
2679.450,496.45937,
2676.540,484.67176,
2673.629,476.20235,
2670.719,490.43693,
2667.808,499.72909,
2664.898,507.60263,
2661.987,496.50852,
2659.076,507.36638,
2656.166,490.53729,
2653.255,504.80017,
2650.345,506.875,
2647.434,523.84613,
2644.524,514.80546,
2641.613,530.90391,
2638.702,514.23796,
2635.792,497.43731,
2632.881,513.88665,
2629.971,517.0226,
2627.060,505.37157,
2624.149,524.60626,
2621.239,531.40761,
2618.328,535.95977,
2615.418,538.53864,
2612.507,540.49555,
2609.597,550.86502,
2606.686,541.09588,
2603.775,543.15675,
2600.865,551.93303,
2597.954,549.11457,
2595.044,558.16995,
2592.133,555.25705,
2589.223,565.7066,
2586.312,568.04585,
2583.401,567.07937,
2580.491,587.37974,
2577.580,552.91791,
2574.670,582.19585,
2571.759,583.71833,
2568.848,588.57671,
2565.938,571.63699,
2563.027,571.94992,
2560.117,590.33294,
2557.206,592.49124,
2554.296,585.76287,
2551.385,595.313,
2548.474,606.43076,
2545.564,593.4448,
2542.653,612.80117,
2539.743,590.19539,
2536.832,597.85632,
2533.922,600.15885,
2531.011,617.875,
2528.100,613.07708,
2525.190,619.94303,
2522.279,609.90676,
2519.369,626.34697,
2516.458,620.32259,
2513.548,608.50249,
2510.637,607.93648,
2507.726,610.12407,
2504.816,607.81186,
2501.905,622.54146,
2498.995,632.11388,
2496.084,634.34189,
2493.173,625.34851,
2490.263,634.4366,
2487.352,643.4994,
2484.442,643.41887,
2481.531,665.40159,
2478.621,676.62385,
2475.710,622.06669,
2472.799,657.23363,
2469.889,673.3625,
2466.978,672.75114,
2464.068,683.66338,
2461.157,664.21759,
2458.247,659.53689,
2455.336,677.17246,
2452.425,665.50234,
2449.515,687.85629,
2446.604,692.40728,
2443.694,684.96792,
2440.783,673.15878,
2437.872,679.04188,
2434.962,711.18836,
2432.051,707.07239,
2429.141,703.85729,
2426.230,704.00538,
2423.320,718.40363,
2420.409,703.01627,
2417.498,704.01267,
2414.588,704.16024,
2411.677,726.87097,
2408.767,702.91043,
2405.856,708.59168,
2402.946,719.25033,
2400.035,705.19658,
2397.124,749.11029,
2394.214,743.95262,
2391.303,721.44952,
2388.393,740.0727,
2385.482,719.97655,
2382.571,727.17845,
2379.661,733.29371,
2376.750,734.87247,
2373.840,763.26866,
2370.929,769.86417,
2368.019,741.10407,
2365.108,751.31479,
2362.197,770.08321,
2359.287,751.31176,
2356.376,772.82921,
2353.466,783.77064,
2350.555,758.08497,
2347.645,777.00477,
2344.734,792.45104,
2341.823,803.69258,
2338.913,782.16455,
2336.002,784.06634,
2333.092,797.94388,
2330.181,799.61158,
2327.270,796.98501,
2324.360,815.12738,
2321.449,802.90561,
2318.539,807.51416,
2315.628,828.52129,
2312.718,823.39262,
2309.807,804.71946,
2306.896,831.89065,
2303.986,823.08266,
2301.075,814.98134,
2298.165,827.46164,
2295.254,810.28432,
2292.344,833.29406,
2289.433,839.86727,
2286.522,840.44194,
2283.612,848.39542,
2280.701,835.29656,
2277.791,869.5162,
2274.880,885.51699,
2271.969,875.49639,
2269.059,864.81234,
2266.148,888.65463,
2263.238,875.08351,
2260.327,870.01295,
2257.417,875.67055,
2254.506,889.08868,
2251.595,893.72953,
2248.685,911.34225,
2245.774,915.07283,
2242.864,886.19918,
2239.953,894.51631,
2237.043,901.80965,
2234.132,908.74246,
2231.221,932.24457,
2228.311,907.30029,
2225.400,936.5654,
2222.490,925.13231,
2219.579,930.0807,
2216.669,938.41077,
2213.758,949.13907,
2210.847,957.26291,
2207.937,968.38639,
2205.026,986.54147,
2202.116,990.30175,
2199.205,990.41218,
2196.294,1001.933,
2193.384,993.79648,
2190.473,1000.0288,
2187.563,1001.0393,
2184.652,1035.0256,
2181.742,1036.466,
2178.831,1059.8595,
2175.920,1093.7038,
2173.010,1116.0014,
2170.099,1203.4658,
2167.189,1205.3629,
2164.278,1275.8097,
2161.368,1309.1587,
2158.457,1367.2437,
2155.546,1439.6453,
2152.636,1505.7473,
2149.725,1582.7877,
2146.815,1655.8061,
2143.904,1682.2913,
2140.993,1727.9278,
2138.083,1767.2062,
2135.172,1785.0093,
2132.262,1790.1549,
2129.351,1805.1405,
2126.441,1770.5351,
2123.530,1765.123,
2120.619,1688.1415,
2117.709,1605.5811,
2114.798,1536.0709,
2111.888,1442.6273,
2108.977,1363.9942,
2106.067,1300.614,
2103.156,1270.9178,
2100.245,1223.8461,
2097.335,1177.9954,
2094.424,1169.301,
2091.514,1128.5066,
2088.603,1116.9948,
2085.692,1105.3695,
2082.782,1108.1319,
2079.871,1100.91,
2076.961,1127.8085,
2074.050,1105.778,
2071.140,1101.7832,
2068.229,1084.888,
2065.318,1076.9128,
2062.408,1067.223,
2059.497,1063.7143,
2056.587,1076.1657,
2053.676,1079.9581,
2050.766,1060.5686,
2047.855,1066.9637,
2044.944,1041.3285,
2042.034,1074.742,
2039.123,1065.8346,
2036.213,1062.3172,
2033.302,1065.5923,
2030.391,1062.7226,
2027.481,1075.4968,
2024.570,1077.5037,
2021.660,1110.7463,
2018.749,1097.3431,
2015.839,1087.7759,
2012.928,1106.4388,
2010.017,1087.4722,
2007.107,1087.8507,
2004.196,1081.8988,
2001.286,1091.9386,
1998.375,1087.437,
1995.465,1071.0759,
1992.554,1095.0454,
1989.643,1058.3267,
1986.733,1061.818,
1983.822,1109.0788,
1980.912,1075.3202,
1978.001,1071.4761,
1975.090,1096.875,
1972.180,1108.9428,
1969.269,1087.9094,
1966.359,1067.7129,
1963.448,1084.7548,
1960.538,1099.6131,
1957.627,1108.1165,
1954.716,1064.1964,
1951.806,1108.5769,
1948.895,1096.3711,
1945.985,1053.1005,
1943.074,1067.6903,
1940.164,1089.3172,
1937.253,1064.7971,
1934.342,1054.4905,
1931.432,1060.9476,
1928.521,1070.1617,
1925.611,1046.8818,
1922.700,1038.8322,
1919.790,1070.8804,
1916.879,1059.1305,
1913.968,1067.8627,
1911.058,1070.1573,
1908.147,1051.8532,
1905.237,1085.1176,
1902.326,1077.4335,
1899.415,1101.5201,
1896.505,1075.1884,
1893.594,1092.6951,
1890.684,1082.1626,
1887.773,1083.961,
1884.863,1080.9456,
1881.952,1078.665,
1879.041,1075.3361,
1876.131,1074.6894,
1873.220,1027.804,
1870.310,1070.0722,
1867.399,1088.6351,
1864.489,1112.6803,
1861.578,1102.0842,
1858.667,1049.3959,
1855.757,1070.0743,
1852.846,1083.4391,
1849.936,1109.3875,
1847.025,1105.8068,
1844.114,1139.8279,
1841.204,1128.7771,
1838.293,1128.3775,
1835.383,1152.5605,
1832.472,1138.8854,
1829.562,1116.1526,
1826.651,1126.4479,
1823.740,1140.3386,
1820.830,1140.7884,
1817.919,1160.2344,
1815.009,1143.4692,
1812.098,1161.4183,
1809.188,1210.7741,
1806.277,1129.7783,
1803.366,1183.8085,
1800.456,1180.3696,
1797.545,1188.6906,
1794.635,1186.101,
1791.724,1179.3896,
1788.813,1182.4886,
1785.903,1219.7161,
1782.992,1204.7528,
1780.082,1220.1179,
1777.171,1238.5388,
1774.261,1216.5598,
1771.350,1218.6413,
1768.439,1231.4466,
1765.529,1217.0593,
1762.618,1229.01,
1759.708,1221.8098,
1756.797,1245.7689,
1753.887,1256.4639,
1750.976,1229.1852,
1748.065,1270.9456,
1745.155,1274.2172,
1742.244,1275.4148,
1739.334,1284.875,
1736.423,1276.3965,
1733.512,1301.9808,
1730.602,1325.5913,
1727.691,1332.178,
1724.781,1339.9542,
1721.870,1366.8228,
1718.960,1326.0078,
1716.049,1351.1119,
1713.138,1370.6999,
1710.228,1344.1552,
1707.317,1377.9116,
1704.407,1357.7199,
1701.496,1368.5482,
1698.586,1414.2263,
1695.675,1407.5822,
1692.764,1442.8504,
1689.854,1434.3514,
1686.943,1430.0099,
1684.033,1430.8502,
1681.122,1465.2803,
1678.211,1511.4372,
1675.301,1525.8318,
1672.390,1553.7942,
1669.480,1527.4606,
1666.569,1599.3164,
1663.659,1556.5936,
1660.748,1601.0898,
1657.837,1662.5907,
1654.927,1651.023,
1652.016,1699.1666,
1649.106,1712.0501,
1646.195,1759.9779,
1643.285,1804.0547,
1640.374,1771.1746,
1637.463,1879.9198,
1634.553,1937.3922,
1631.642,1972.8848,
1628.732,2065.1357,
1625.821,2109.0196,
1622.911,2328.6296,
1620.000,2347.6482,
1617.089,2466.467,
1614.179,2649.6296,
1611.268,2724.1982,
1608.358,2972.7946,
1605.447,3088.5901,
1602.536,3227.203,
1599.626,3171.5598,
1596.715,3182.2118,
1593.805,3161.5167,
1590.894,3106.9155,
1587.984,3099.0089,
1585.073,3115.0405,
1582.162,2995.1468,
1579.252,2969.2384,
1576.341,2921.6123,
1573.431,2877.7649,
1570.520,2841.3574,
1567.610,2850.7576,
1564.699,2820.6235,
1561.788,2819.5509,
1558.878,2790.7368,
1555.967,2745.8058,
1553.057,2658.1516,
1550.146,2626.7077,
1547.235,2605.72,
1544.325,2559.1639,
1541.414,2540.0352,
1538.504,2496.1466,
1535.593,2416.8433,
1532.683,2389.4411,
1529.772,2382.4691,
1526.861,2340.7819,
1523.951,2289.6664,
1521.040,2260.661,
1518.130,2280.0999,
1515.219,2238.436,
1512.309,2200.1588,
1509.398,2175.7707,
1506.487,2138.1973,
1503.577,2180.9073,
1500.666,2158.3227,
1497.756,2159.8154,
1494.845,2136.4759,
1491.934,2174.8026,
1489.024,2152.6652,
1486.113,2116.6408,
1483.203,2109.4342,
1480.292,2080.8741,
1477.382,2004.7492,
1474.471,2006.2921,
1471.560,2064.123,
1468.650,2044.9284,
1465.739,2026.2345,
1462.829,2027.0686,
1459.918,1995.8305,
1457.008,1952.6132,
1454.097,1928.4805,
1451.186,1945.2425,
1448.276,1974.2336,
1445.365,1953.5519,
1442.455,1936.8815,
1439.544,1937.696,
1436.633,1918.2931,
1433.723,1949.9815,
1430.812,1990.5108,
1427.902,1960.3789,
1424.991,1939.5281,
1422.081,1932.4527,
1419.170,1901.6329,
1416.259,1872.5731,
1413.349,1835.1549,
1410.438,1864.7624,
1407.528,1915.3496,
1404.617,1886.3176,
1401.707,1867.1834,
1398.796,1884.5953,
1395.885,1894.4223,
1392.975,1912.2088,
1390.064,1925.8116,
1387.154,1901.3979,
1384.243,1877.9097,
1381.332,1886.195,
1378.422,1918.6716,
1375.511,2031.0853,
1372.601,2030.1103,
1369.690,2101.0245,
1366.780,2094.6582,
1363.869,2132.0107,
1360.958,2211.916,
1358.048,2281.067,
1355.137,2344.7756,
1352.227,2383.5352,
1349.316,2417.0372,
1346.406,2465.1102,
1343.495,2478.8437,
1340.584,2499.6254,
1337.674,2482.0239,
1334.763,2576.4628,
1331.853,2618.1882,
1328.942,2672.3534,
1326.032,2687.8468,
1323.121,2715.0678,
1320.210,2775.8168,
1317.300,2809.548,
1314.389,2844.1672,
1311.479,2905.5155,
1308.568,2990.9004,
1305.657,3112.233,
1302.747,3249.8809,
1299.836,3322.9094,
1296.926,3313.3615,
1294.015,3409.8905,
1291.105,3488.7211,
1288.194,3512.4536,
1285.283,3602.5114,
1282.373,3652.0624,
1279.462,3735.5402,
1276.552,3813.5995,
1273.641,3884.1219,
1270.731,3958.172,
1267.820,3948.378,
1264.909,3999.7541,
1261.999,3996.8112,
1259.088,3940.2596,
1256.178,3888.9134,
1253.267,3832.5417,
1250.356,3703.4191,
1247.446,3610.7377,
1244.535,3529.8618,
1241.625,3434.9084,
1238.714,3340.3797,
1235.804,3243.0887,
1232.893,3162.1462,
1229.982,3063.4219,
1227.072,2990.9969,
1224.161,2922.8372,
1221.251,2883.3282,
1218.340,2823.9935,
1215.430,2768.2472,
1212.519,2748.9498,
1209.608,2732.2581,
1206.698,2696.9602,
1203.787,2710.7444,
1200.877,2723.3267,
1197.966,2762.8897,
1195.055,2837.4011,
1192.145,2909.2311,
1189.234,2989.8615,
1186.324,3053.4234,
1183.413,3065.6263,
1180.503,3056.9691,
1177.592,3060.3293,
1174.681,3009.1182,
1171.771,2942.3077,
1168.860,2961.0626,
1165.950,2870.1517,
1163.039,2861.1447,
1160.129,2859.7967,
1157.218,2849.5869,
1154.307,2827.5499,
1151.397,2811.6056,
1148.486,2842.0277,
1145.576,2824.3331,
1142.665,2788.8166,
1139.754,2816.7929,
1136.844,2797.2635,
1133.933,2786.4615,
1131.023,2781.6819,
1128.112,2791.2299,
1125.202,2815.4934,
1122.291,2801.6162,
1119.380,2779.4293,
1116.470,2835.9111,
1113.559,2903.1884,
1110.649,2900.5748,
1107.738,2881.8377,
1104.828,2866.553,
1101.917,2837.7145,
1099.006,2797.2255,
1096.096,2797.4774,
1093.185,2774.6493,
1090.275,2755.8803,
1087.364,2799.9036,
1084.453,2815.1254,
1081.543,2830.9096,
1078.632,2858.5018,
1075.722,2867.5855,
1072.811,2899.9442,
1069.901,2886.8453,
1066.990,2933.5666,
1064.079,2961.8878,
1061.169,2967.6658,
1058.258,2973.0743,
1055.348,2975.82,
1052.437,2967.0744,
1049.527,3006.9281,
1046.616,2956.536,
1043.705,3012.5362,
1040.795,2979.1561,
1037.884,2949.875,
1034.974,2957.3235,
1032.063,2962.006,
1029.153,2946.3265,
1026.242,3025.0375,
1023.331,3042.0408,
1020.421,3065.788,
1017.510,3124.7395,
1014.600,3181.6381,
1011.689,3213.5719,
1008.778,3241.5251,
1005.868,3292.2457,
1002.957,3333.5427,
1000.047,3452.715,
997.136,3533.6385,
994.226,3538.1215,
991.315,3510.1795,
988.404,3496.2833,
985.494,3421.0668,
982.583,3429.6324,
979.673,3455.0193,
976.762,3450.3717,
973.852,3429.8247,
970.941,3411.4293,
968.030,3407.9387,
965.120,3448.0039,
962.209,3478.6954,
959.299,3487.4162,
956.388,3484.9553,
953.477,3495.4389,
950.567,3513.8293,
947.656,3512.769,
944.746,3527.2114,
941.835,3516.5376,
938.925,3512.5589,
936.014,3502.2643,
933.103,3461.0965,
930.193,3405.8714,
927.282,3416.0877,
924.372,3383.109,
921.461,3317.7538,
918.551,3244.7529,
915.640,3205.3253,
912.729,3195.9712,
909.819,3179.7638,
906.908,3178.9214,
903.998,3152.628,
901.087,3133.7814,
898.176,3137.8505,
895.266,3169.2363,
892.355,3219.6703,
889.445,3266.6693,
886.534,3276.8935,
883.624,3309.8253,
880.713,3326.4061,
877.802,3327.875,
874.892,3322.1758,
871.981,3296.6974,
869.071,3289.1787,
866.160,3278.2156,
863.250,3286.9801,
860.339,3304.6026,
857.428,3312.5793,
854.518,3301.5751,
851.607,3256.6434,
848.697,3283.9537,
845.786,3277.5595,
842.875,3292.1794,
839.965,3361.647,
837.054,3378.2145,
834.144,3319.373,
831.233,3375.2035,
828.323,3389.5867,
825.412,3353.4549,
822.501,3320.3644,
819.591,3328.6284,
816.680,3324.0673,
813.770,3293.4294,
810.859,3234.8121,
807.949,3185.1506,
805.038,3180.5984,
802.127,3136.9727,
799.217,3116.4764,
796.306,3080.7937,
793.396,3066.44,
790.485,3073.5576,
787.574,3050.1552,
784.664,3057.5362,
781.753,3066.9268,
778.843,3078.2262,
775.932,3088.6527,
773.022,3095.0018,
770.111,3095.8194,
767.200,3133.1793,
764.290,3106.7351,
761.379,3093.4481,
758.469,3111.2711,
755.558,3092.8782,
752.648,3059.4794,
749.737,3067.8892,
746.826,3073.5439,
743.916,3058.3099,
741.005,3024.316,
738.095,3010.5141,
735.184,2900.901,
732.274,2836.8391,
729.363,2854.5241,
726.452,2937.8383,
723.542,2998.5428,
720.631,2971.2934,
717.721,2963.5935,
714.810,2982.0056,
711.899,3007.6176,
708.989,2997.9345,
706.078,3008.2919,
703.168,2984.1573,
700.257,2962.7493,
697.347,2951.4408,
694.436,2931.3949,
691.525,2913.7112,
688.615,2930.6291,
685.704,2946.3285,
682.794,2956.492,
679.883,2976.1726,
676.973,3005.0219,
674.062,3003.218,
671.151,3007.6416,
668.241,3021.2575,
665.330,3028.9884,
662.420,3031.3846,
659.509,3031.2401,
656.598,3051.647,
653.688,3064.6124,
650.777,3017.7931,
647.867,3044.8682,
644.956,2987.1025,
642.046,2949.5334,
639.135,2967.3861,
636.224,3025.7914,
633.314,3009.1187,
630.403,3020.2465,
627.493,3045.0858,
624.582,3065.2264,
621.672,3053.3465,
618.761,3027.797,
615.850,3026.4869,
612.940,3062.9547,
610.029,3112.2217,
607.119,3048.2616,
604.208,3068.8555,
601.297,3089.8454,
598.387,3099.3017,
595.476,3101.3661,
592.566,3138.3583,
589.655,3095.6354,
586.745,3062.3655,
583.834,3063.0975,
580.923,3095.8608,
578.013,3093.5066,
575.102,3112.377,
572.192,3136.879,
569.281,3161.0614,
566.371,3195.4968,
563.460,3174.1836,
560.549,3156.0785,
557.639,3141.4295,
554.728,3126.1908,
551.818,3162.8656,
548.907,3183.6727,
545.996,3182.1553,
543.086,3163.6875,
540.175,3148.8932,
537.265,3153.6692,
534.354,3154.3699,
531.444,3170.1518,
528.533,3214.1024,
525.622,3203.2392,
522.712,3237.2802,
519.801,3254.383,
516.891,3248.7267,
513.980,3272.7298,
511.070,3299.5272,
508.159,3339.9617,
505.248,3376.8808,
502.338,3390.9309,
499.427,3461.1676,
496.517,3512.683,
493.606,3551.6712,
490.695,3579.4099,
487.785,3583.2589,
484.874,3590.3372,
481.964,3585.9847,
479.053,3574.875,
476.143,3574.875,
473.232,3530.272,
470.321,3514.8213,
467.411,3505.225,
464.500,3471.8641,
461.590,3510.9168,
458.679,3559.295,
455.769,3606.2583,
452.858,3642.3522,
449.947,3646.9358,
447.037,3684.2806,
444.126,3708.9841,
441.216,3719.2092,
438.305,3767.2109,
435.395,3800.1005,
432.484,3818.4593,
429.573,3815.9999,
426.663,3777.9929,
423.752,3754.6498,
420.842,3751.3552,
417.931,3768.002,
415.020,3803.6449,
412.110,3929.9808,
409.199,3985.1659,
406.289,4002.9923,
403.378,4028.1491,
400.468,4109.0405,
397.557,4098.8845,
394.646,4069.7232,
391.736,4080.9434,
388.825,4020.6049,
385.915,3978.9263,
383.004,3985.8582,
380.094,4057.0267,
377.183,4079.601,
374.272,4110.3001,
371.362,4146.18,
368.451,4185.1546,
365.541,4222.6814,
362.630,4195.1844,
359.719,4184.5927,
356.809,4232.1986,
353.898,4204.493,
350.988,4205.5548,
348.077,4207.9381,
345.167,4197.9563,
342.256,4239.045,
339.345,4196.1374,
336.435,4165.9185,
333.524,4213.2038,
330.614,4223.636,
327.703,4240.7369,
324.793,4267.5379,
321.882,4306.9038,
318.971,4318.7989,
316.061,4338.9894,
313.150,4352.1798,
310.240,4340.3059,
307.329,4415.6265,
304.418,4481.4394,
301.508,4492.5641,
298.597,4374.8379,
295.687,4395.3508,
292.776,4450.2919,
289.866,4521.5099,
286.955,4590.9501,
284.044,4646.415,
281.134,4698.4249,
278.223,4751.6831,
275.313,4818.7369,
272.402,4839.8458,
269.492,4848.9941,
266.581,4865.9678,
263.670,4979.1856,
260.760,5068.2924,
257.849,5110.3798,
254.939,5083.2261,
252.028,5111.105,
249.117,5129.6411,
246.207,5140.5797,
243.296,5147.168,
240.386,5099.5536,
237.475,5047.7503,
234.565,5001.0436,
231.654,4970.3675,
228.743,4959.2721,
225.833,4938.191,
222.922,4899.5737,
220.012,4936.0014,
217.101,4930.2092,
214.191,4903.5697,
211.280,4875.9261,
208.369,4918.2807,
205.459,4946.263,
202.548,4945.3457,
199.638,4884.3912,
196.727,4951.3928,
193.816,5016.4975,
190.906,5032.3067,
187.995,5044.6151,
185.085,5099.9434,
182.174,5154.9162,
179.264,5147.6885,
176.353,5249.3996,
173.442,5332.254,
170.532,5377.5471,
167.621,5383.3149,
164.711,5318.6535,
161.800,5176.0523,
158.890,4933.5041,
155.979,4666.4775,
153.068,4306.3073,
150.158,3863.2268,
147.247,3365.6859,
144.337,2798.7261,
141.426,2205.7199,
138.516,1602.8144,
135.605,1176.0652,
132.694,805.80093,
129.784,505.54122,
126.873,339.6311,
123.963,245.55357,
121.052,176.92857,
118.141,119.10251,
115.231,92.583897,
112.320,75.944097,
109.410,66.102382,
106.499,56.844364,
103.589,53.194237,
100.678,48.61554,
97.767,40.084289,
94.857,38.489022,
91.946,36.262557,
89.036,33.084715,
86.125,28.120278,
83.215,23.158558,
80.304,19.875,
77.393,19.875,
74.483,23.150675,
71.572,21.976183,
68.662,17.082802,
65.751,19.202156,
62.840,19.875,
59.930,18.563997,
57.019,13.628423,
54.109,14.666483,
51.198,14.970172,
48.288,12.886325,
45.377,14.293081,
42.466,15.699439,
39.556,17.105237,
36.645,18.509618,
33.735,16.798006,
30.824,13.328791,
27.914,8.4205645,
25.003,9.7429124,
22.092,15.395664,
19.182,25.790315,
16.271,53.76992,
13.361,165.60346,
10.450,377.43113,
7.539,804.80014,
4.629,1218.4414,
1.718,1423.8318,
-1.192,1169.374,
-4.103,722.44441,
-7.013,316.2408,
-9.924,-1.125,
