,PLF58E~1,
Raman shift [1/cm],Intensity,
3014.167,-2.75,
3011.256,0.14997853,
3008.346,256.57531,
3005.435,288.94258,
3002.525,284.70246,
2999.614,319.4786,
2996.704,340.33866,
2993.793,335.70853,
2990.882,350.30353,
2987.972,358.3509,
2985.061,380.0234,
2982.151,369.0399,
2979.240,383.99809,
2976.329,412.28276,
2973.419,425.98838,
2970.508,431.71665,
2967.598,466.95964,
2964.687,443.16033,
2961.777,459.74587,
2958.866,474.90974,
2955.955,473.62612,
2953.045,499.98378,
2950.134,522.04887,
2947.224,539.30694,
2944.313,536.30627,
2941.403,576.31067,
2938.492,568.42075,
2935.581,579.13712,
2932.671,581.33156,
2929.760,581.76537,
2926.850,609.36879,
2923.939,616.53038,
2921.028,611.39702,
2918.118,618.8898,
2915.207,633.73122,
2912.297,625.33463,
2909.386,636.57849,
2906.476,639.49715,
2903.565,629.74851,
2900.654,645.68581,
2897.744,640.21228,
2894.833,638.07473,
2891.923,638.4391,
2889.012,647.16907,
2886.102,632.00136,
2883.191,621.25566,
2880.280,607.84807,
2877.370,581.74417,
2874.459,582.60221,
2871.549,631.7769,
2868.638,656.79434,
2865.727,676.33075,
2862.817,674.2353,
2859.906,681.60329,
2856.996,667.1866,
2854.085,675.96848,
2851.175,680.39455,
2848.264,672.55367,
2845.353,682.16373,
2842.443,668.26741,
2839.532,673.42898,
2836.622,638.16016,
2833.711,647.98313,
2830.801,651.35074,
2827.890,640.41784,
2824.979,646.25,
2822.069,672.13628,
2819.158,654.26886,
2816.248,662.91605,
2813.337,670.6622,
2810.427,646.77894,
2807.516,673.81078,
2804.605,664.90626,
2801.695,667.32893,
2798.784,680.69762,
2795.874,648.26585,
2792.963,650.60756,
2790.052,657.25064,
2787.142,671.3945,
2784.231,658.31365,
2781.321,641.69579,
2778.410,664.9099,
2775.500,661.12311,
2772.589,669.6338,
2769.678,670.71069,
2766.768,690.30826,
2763.857,693.93401,
2760.947,695.26891,
2758.036,692.32003,
2755.126,700.10257,
2752.215,701.08168,
2749.304,725.26975,
2746.394,697.84875,
2743.483,712.89999,
2740.573,702.71676,
2737.662,705.71745,
2734.751,722.36649,
2731.841,696.49175,
2728.930,722.65687,
2726.020,723.04109,
2723.109,724.38417,
2720.199,744.84084,
2717.288,724.03833,
2714.377,738.34574,
2711.467,740.88956,
2708.556,743.23905,
2705.646,765.23594,
2702.735,765.89431,
2699.825,738.38089,
2696.914,742.7741,
2694.003,769.06627,
2691.093,752.01775,
2688.182,766.81519,
2685.272,736.56863,
2682.361,748.5262,
2679.450,781.06885,
2676.540,772.43292,
2673.629,773.94959,
2670.719,759.89233,
2667.808,759.29864,
2664.898,784.93872,
2661.987,777.68365,
2659.076,798.97844,
2656.166,782.55731,
2653.255,788.43707,
2650.345,787.95417,
2647.434,793.30773,
2644.524,811.38907,
2641.613,814.85025,
2638.702,806.45515,
2635.792,817.75149,
2632.881,814.3332,
2629.971,822.86747,
2627.060,803.41282,
2624.149,829.65626,
2621.239,836.27372,
2618.328,815.69897,
2615.418,815.85911,
2612.507,834.42394,
2609.597,829.34182,
2606.686,817.25,
2603.775,826.37302,
2600.865,840.07254,
2597.954,859.48337,
2595.044,853.50067,
2592.133,869.19264,
2589.223,852.98472,
2586.312,881.54148,
2583.401,872.35219,
2580.491,890.85091,
2577.580,862.30281,
2574.670,887.60831,
2571.759,870.80051,
2568.848,878.65888,
2565.938,879.01185,
2563.027,893.93404,
2560.117,884.37145,
2557.206,896.56365,
2554.296,915.64588,
2551.385,907.8861,
2548.474,916.02769,
2545.564,923.93344,
2542.653,920.15605,
2539.743,929.42345,
2536.832,929.82008,
2533.922,947.40769,
2531.011,957.79995,
2528.100,964.04792,
2525.190,961.92541,
2522.279,951.82792,
2519.369,950.49484,
2516.458,952.79533,
2513.548,931.54105,
2510.637,923.78707,
2507.726,946.31319,
2504.816,948.18799,
2501.905,955.30793,
2498.995,975.36944,
2496.084,975.41027,
2493.173,953.56523,
2490.263,957.59805,
2487.352,993.79253,
2484.442,1001.9781,
2481.531,1000.7286,
2478.621,997.73337,
2475.710,983.47236,
2472.799,1012.9899,
2469.889,1018.1586,
2466.978,1010.4254,
2464.068,980.39277,
2461.157,1007.4849,
2458.247,1020.1323,
2455.336,1036.9917,
2452.425,1008.2405,
2449.515,1045.4101,
2446.604,1031.8975,
2443.694,1038.8084,
2440.783,1054.7759,
2437.872,1001.1826,
2434.962,1040.9551,
2432.051,1030.2195,
2429.141,1060.7911,
2426.230,1077.3373,
2423.320,1094.3499,
2420.409,1088.5259,
2417.498,1078.2247,
2414.588,1090.7899,
2411.677,1097.999,
2408.767,1092.7677,
2405.856,1101.9405,
2402.946,1099.7201,
2400.035,1106.1397,
2397.124,1106.9452,
2394.214,1127.2768,
2391.303,1120.9627,
2388.393,1110.5314,
2385.482,1129.2806,
2382.571,1135.7308,
2379.661,1158.1335,
2376.750,1164.1491,
2373.840,1153.3875,
2370.929,1146.3366,
2368.019,1170.6355,
2365.108,1167.9018,
2362.197,1162.4445,
2359.287,1173.6283,
2356.376,1178.2465,
2353.466,1176.9914,
2350.555,1197.7802,
2347.645,1190.8566,
2344.734,1192.8583,
2341.823,1231.653,
2338.913,1179.1575,
2336.002,1215.4197,
2333.092,1229.3537,
2330.181,1217.7589,
2327.270,1230.5349,
2324.360,1206.9551,
2321.449,1238.5425,
2318.539,1237.6751,
2315.628,1257.963,
2312.718,1247.935,
2309.807,1250.7529,
2306.896,1279.8165,
2303.986,1279.1459,
2301.075,1258.8244,
2298.165,1239.3168,
2295.254,1294.8712,
2292.344,1269.4035,
2289.433,1290.2809,
2286.522,1309.0312,
2283.612,1310.9694,
2280.701,1317.6356,
2277.791,1305.9313,
2274.880,1326.5299,
2271.969,1334.5134,
2269.059,1329.5116,
2266.148,1357.866,
2263.238,1346.4585,
2260.327,1374.9397,
2257.417,1375.4728,
2254.506,1358.5777,
2251.595,1369.5409,
2248.685,1374.0884,
2245.774,1388.9641,
2242.864,1395.9083,
2239.953,1426.2846,
2237.043,1407.4325,
2234.132,1435.6681,
2231.221,1408.4565,
2228.311,1445.3105,
2225.400,1452.1374,
2222.490,1450.2924,
2219.579,1466.7719,
2216.669,1483.2405,
2213.758,1473.5088,
2210.847,1527.7033,
2207.937,1524.9829,
2205.026,1577.6937,
2202.116,1604.854,
2199.205,1623.3627,
2196.294,1625.432,
2193.384,1671.4591,
2190.473,1679.6702,
2187.563,1703.6754,
2184.652,1798.4794,
2181.742,1857.275,
2178.831,1934.9856,
2175.920,2020.6344,
2173.010,2122.0306,
2170.099,2202.1106,
2167.189,2344.2402,
2164.278,2488.8802,
2161.368,2588.3862,
2158.457,2783.4397,
2155.546,2883.1125,
2152.636,2976.8987,
2149.725,3071.8338,
2146.815,3126.7818,
2143.904,3126.0975,
2140.993,3232.8692,
2138.083,3204.8853,
2135.172,3189.376,
2132.262,3149.8407,
2129.351,3063.5082,
2126.441,2981.0556,
2123.530,2897.746,
2120.619,2743.9206,
2117.709,2582.8265,
2114.798,2448.757,
2111.888,2302.39,
2108.977,2214.2831,
2106.067,2107.0366,
2103.156,2024.7002,
2100.245,1942.223,
2097.335,1891.784,
2094.424,1829.1121,
2091.514,1791.809,
2088.603,1776.4712,
2085.692,1773.3839,
2082.782,1750.9931,
2079.871,1729.4635,
2076.961,1710.3478,
2074.050,1737.1348,
2071.140,1720.0772,
2068.229,1739.8073,
2065.318,1718.7432,
2062.408,1700.8635,
2059.497,1693.25,
2056.587,1686.8664,
2053.676,1687.5165,
2050.766,1671.6357,
2047.855,1660.7659,
2044.944,1648.1074,
2042.034,1664.0071,
2039.123,1646.4924,
2036.213,1668.4811,
2033.302,1663.5327,
2030.391,1647.0809,
2027.481,1669.0058,
2024.570,1668.2931,
2021.660,1685.0674,
2018.749,1697.5159,
2015.839,1702.0978,
2012.928,1687.1007,
2010.017,1691.0415,
2007.107,1706.8313,
2004.196,1690.8928,
2001.286,1689.5433,
1998.375,1695.4665,
1995.465,1690.317,
1992.554,1683.9912,
1989.643,1682.2846,
1986.733,1653.2868,
1983.822,1639.7766,
1980.912,1655.101,
1978.001,1649.6137,
1975.090,1676.0775,
1972.180,1683.5931,
1969.269,1699.2873,
1966.359,1669.0064,
1963.448,1677.6265,
1960.538,1677.3234,
1957.627,1660.9837,
1954.716,1711.6988,
1951.806,1669.5913,
1948.895,1693.5921,
1945.985,1678.165,
1943.074,1664.2131,
1940.164,1664.2691,
1937.253,1656.9717,
1934.342,1643.6174,
1931.432,1614.9724,
1928.521,1629.927,
1925.611,1638.2046,
1922.700,1626.7528,
1919.790,1613.9149,
1916.879,1626.2038,
1913.968,1652.2193,
1911.058,1663.1929,
1908.147,1645.9916,
1905.237,1628.8676,
1902.326,1629.2707,
1899.415,1641.1756,
1896.505,1614.1236,
1893.594,1641.4208,
1890.684,1652.4069,
1887.773,1639.3621,
1884.863,1655.1088,
1881.952,1663.1575,
1879.041,1663.0065,
1876.131,1677.0944,
1873.220,1674.1482,
1870.310,1667.6805,
1867.399,1665.282,
1864.489,1678.4975,
1861.578,1634.2226,
1858.667,1634.0793,
1855.757,1690.6521,
1852.846,1686.7423,
1849.936,1696.4582,
1847.025,1704.5542,
1844.114,1671.3206,
1841.204,1696.4668,
1838.293,1698.2616,
1835.383,1718.0285,
1832.472,1737.8778,
1829.562,1752.2201,
1826.651,1733.8989,
1823.740,1719.0661,
1820.830,1769.9512,
1817.919,1752.6749,
1815.009,1771.7933,
1812.098,1746.628,
1809.188,1779.8313,
1806.277,1764.6484,
1803.366,1786.2666,
1800.456,1782.7435,
1797.545,1709.8597,
1794.635,1759.8941,
1791.724,1796.6965,
1788.813,1822.6479,
1785.903,1824.4573,
1782.992,1837.5689,
1780.082,1809.2879,
1777.171,1823.2462,
1774.261,1819.4702,
1771.350,1846.3523,
1768.439,1847.9078,
1765.529,1840.3426,
1762.618,1858.4969,
1759.708,1872.3805,
1756.797,1889.5455,
1753.887,1899.25,
1750.976,1891.5844,
1748.065,1889.9366,
1745.155,1905.0241,
1742.244,1890.3995,
1739.334,1921.7018,
1736.423,1919.3472,
1733.512,1935.7176,
1730.602,1981.9028,
1727.691,1952.7963,
1724.781,1992.9506,
1721.870,1993.569,
1718.960,2003.4057,
1716.049,2004.5721,
1713.138,1999.975,
1710.228,1999.25,
1707.317,2012.5186,
1704.407,2069.0522,
1701.496,2076.1615,
1698.586,2109.5134,
1695.675,2117.8643,
1692.764,2115.4098,
1689.854,2161.1713,
1686.943,2161.3175,
1684.033,2200.2566,
1681.122,2162.9127,
1678.211,2251.3934,
1675.301,2313.0619,
1672.390,2315.3786,
1669.480,2358.8276,
1666.569,2430.961,
1663.659,2487.9159,
1660.748,2587.2088,
1657.837,2535.431,
1654.927,2590.9209,
1652.016,2702.0799,
1649.106,2697.1595,
1646.195,2774.257,
1643.285,2816.4121,
1640.374,2866.689,
1637.463,2888.493,
1634.553,2958.6292,
1631.642,3118.5204,
1628.732,3234.6648,
1625.821,3304.3874,
1622.911,3513.0666,
1620.000,3674.209,
1617.089,3826.2052,
1614.179,4044.0176,
1611.268,4249.5542,
1608.358,4432.6345,
1605.447,4563.8224,
1602.536,4633.6864,
1599.626,4670.4477,
1596.715,4774.9013,
1593.805,4694.9225,
1590.894,4680.7273,
1587.984,4655.9994,
1585.073,4640.3386,
1582.162,4560.6056,
1579.252,4510.0631,
1576.341,4444.5734,
1573.431,4472.5414,
1570.520,4481.9569,
1567.610,4438.0336,
1564.699,4391.3487,
1561.788,4337.7011,
1558.878,4237.6357,
1555.967,4165.5561,
1553.057,4123.3709,
1550.146,4074.221,
1547.235,3980.2302,
1544.325,3921.767,
1541.414,3900.1284,
1538.504,3900.0951,
1535.593,3884.9828,
1532.683,3825.0112,
1529.772,3746.8506,
1526.861,3671.7312,
1523.951,3631.5593,
1521.040,3596.4086,
1518.130,3547.4749,
1515.219,3509.7307,
1512.309,3472.6148,
1509.398,3446.0654,
1506.487,3480.7386,
1503.577,3437.5475,
1500.666,3407.7877,
1497.756,3386.2667,
1494.845,3361.6897,
1491.934,3348.1146,
1489.024,3306.7274,
1486.113,3326.576,
1483.203,3248.3149,
1480.292,3236.553,
1477.382,3205.5366,
1474.471,3149.1377,
1471.560,3126.2677,
1468.650,3111.6343,
1465.739,3079.3494,
1462.829,3079.7673,
1459.918,3083.6201,
1457.008,3097.0349,
1454.097,3097.688,
1451.186,3083.9038,
1448.276,3096.9397,
1445.365,3110.9656,
1442.455,3130.5298,
1439.544,3139.4743,
1436.633,3129.5886,
1433.723,3077.8791,
1430.812,3066.9201,
1427.902,3048.6715,
1424.991,2982.3281,
1422.081,2943.5509,
1419.170,2965.3078,
1416.259,2942.5179,
1413.349,2860.7259,
1410.438,2862.8416,
1407.528,2906.4371,
1404.617,2925.4243,
1401.707,2917.771,
1398.796,2940.4597,
1395.885,2975.9036,
1392.975,2987.1045,
1390.064,2978.528,
1387.154,2893.5473,
1384.243,2804.594,
1381.332,2786.1233,
1378.422,2826.6212,
1375.511,3008.3567,
1372.601,3107.0933,
1369.690,3232.6895,
1366.780,3339.3739,
1363.869,3392.0356,
1360.958,3417.1145,
1358.048,3411.7905,
1355.137,3495.7704,
1352.227,3624.0869,
1349.316,3722.3542,
1346.406,3779.8389,
1343.495,3773.9208,
1340.584,3841.8929,
1337.674,3847.7541,
1334.763,3913.3904,
1331.853,3995.914,
1328.942,4082.8596,
1326.032,4052.469,
1323.121,4158.8405,
1320.210,4223.8891,
1317.300,4247.4644,
1314.389,4321.0291,
1311.479,4381.0656,
1308.568,4396.2096,
1305.657,4445.9503,
1302.747,4507.6274,
1299.836,4579.1297,
1296.926,4636.7531,
1294.015,4819.6985,
1291.105,4843.9803,
1288.194,4964.464,
1285.283,5063.7023,
1282.373,5136.8123,
1279.462,5195.6415,
1276.552,5232.4705,
1273.641,5262.4711,
1270.731,5292.25,
1267.820,5290.7958,
1264.909,5283.3157,
1261.999,5267.6855,
1259.088,5224.8158,
1256.178,5196.5563,
1253.267,5120.1336,
1250.356,5012.916,
1247.446,4918.8578,
1244.535,4861.9242,
1241.625,4787.3464,
1238.714,4667.3298,
1235.804,4573.8229,
1232.893,4537.515,
1229.982,4465.5397,
1227.072,4355.9969,
1224.161,4333.1209,
1221.251,4249.0985,
1218.340,4172.0163,
1215.430,4078.6352,
1212.519,4014.7421,
1209.608,3990.8469,
1206.698,3962.3775,
1203.787,3957.8681,
1200.877,4029.5933,
1197.966,4083.5428,
1195.055,4172.4281,
1192.145,4261.633,
1189.234,4369.2954,
1186.324,4454.6175,
1183.413,4519.1637,
1180.503,4524.1872,
1177.592,4462.8259,
1174.681,4462.8767,
1171.771,4334.8076,
1168.860,4272.2914,
1165.950,4263.0248,
1163.039,4186.1241,
1160.129,4106.6514,
1157.218,4065.116,
1154.307,4024.8259,
1151.397,3977.1602,
1148.486,3983.005,
1145.576,3950.783,
1142.665,3893.9565,
1139.754,3950.2722,
1136.844,3891.4185,
1133.933,3864.3555,
1131.023,3850.7266,
1128.112,3830.8216,
1125.202,3826.3176,
1122.291,3826.8929,
1119.380,3872.9988,
1116.470,3847.4055,
1113.559,3910.7494,
1110.649,3906.6756,
1107.738,3922.6484,
1104.828,3903.5596,
1101.917,3870.9494,
1099.006,3940.652,
1096.096,3944.2936,
1093.185,3896.0034,
1090.275,3943.234,
1087.364,3894.1851,
1084.453,3885.9362,
1081.543,3897.7442,
1078.632,3905.159,
1075.722,3929.1813,
1072.811,3920.3121,
1069.901,3921.1853,
1066.990,3974.5999,
1064.079,3980.4449,
1061.169,4012.5973,
1058.258,4065.3887,
1055.348,4094.4285,
1052.437,4085.906,
1049.527,4091.8682,
1046.616,4159.6369,
1043.705,4168.0208,
1040.795,4186.1281,
1037.884,4173.4918,
1034.974,4147.5258,
1032.063,4154.1265,
1029.153,4194.4191,
1026.242,4187.4995,
1023.331,4225.5809,
1020.421,4242.3123,
1017.510,4271.4624,
1014.600,4318.7405,
1011.689,4381.6213,
1008.778,4450.6746,
1005.868,4483.6014,
1002.957,4634.1634,
1000.047,4792.6581,
997.136,4958.3658,
994.226,4994.1892,
991.315,4913.5891,
988.404,4843.3068,
985.494,4769.6581,
982.583,4698.5639,
979.673,4645.8145,
976.762,4583.2818,
973.852,4580.7487,
970.941,4613.6188,
968.030,4593.7875,
965.120,4557.1891,
962.209,4542.6959,
959.299,4585.5779,
956.388,4574.5719,
953.477,4570.5683,
950.567,4602.6942,
947.656,4620.2635,
944.746,4658.4935,
941.835,4606.8023,
938.925,4637.6813,
936.014,4670.3665,
933.103,4664.3608,
930.193,4632.6532,
927.282,4618.5379,
924.372,4550.0437,
921.461,4494.1204,
918.551,4462.7267,
915.640,4411.0305,
912.729,4336.7334,
909.819,4293.8119,
906.908,4351.0968,
903.998,4382.8831,
901.087,4401.0706,
898.176,4402.9552,
895.266,4403.011,
892.355,4428.7989,
889.445,4511.8864,
886.534,4537.2962,
883.624,4591.3667,
880.713,4641.2782,
877.802,4648.1856,
874.892,4606.3446,
871.981,4570.5201,
869.071,4539.6098,
866.160,4548.7392,
863.250,4562.0646,
860.339,4584.3588,
857.428,4605.215,
854.518,4570.2149,
851.607,4534.4359,
848.697,4546.1332,
845.786,4560.9966,
842.875,4560.259,
839.965,4554.2551,
837.054,4587.3106,
834.144,4681.7884,
831.233,4676.2517,
828.323,4591.5479,
825.412,4554.5977,
822.501,4614.1857,
819.591,4508.4066,
816.680,4517.2693,
813.770,4482.0333,
810.859,4435.7855,
807.949,4405.3207,
805.038,4393.281,
802.127,4335.662,
799.217,4319.8145,
796.306,4295.2498,
793.396,4300.2731,
790.485,4326.722,
787.574,4302.4991,
784.664,4309.06,
781.753,4291.4624,
778.843,4309.2045,
775.932,4339.7191,
773.022,4344.616,
770.111,4340.5281,
767.200,4381.3609,
764.290,4365.3561,
761.379,4338.342,
758.469,4325.0647,
755.558,4308.1073,
752.648,4269.8209,
749.737,4242.0135,
746.826,4213.5336,
743.916,4145.2233,
741.005,3996.6731,
738.095,3779.0901,
735.184,3543.7375,
732.274,3505.4772,
729.363,3663.5944,
726.452,3936.0335,
723.542,4161.8543,
720.631,4187.2472,
717.721,4228.485,
714.810,4244.0683,
711.899,4221.8044,
708.989,4211.3144,
706.078,4257.7256,
703.168,4246.7828,
700.257,4206.6705,
697.347,4167.6416,
694.436,4157.9445,
691.525,4146.6912,
688.615,4132.9296,
685.704,4147.8347,
682.794,4157.5268,
679.883,4097.7999,
676.973,4132.2588,
674.062,4122.0218,
671.151,4126.7149,
668.241,4160.9744,
665.330,4208.8676,
662.420,4158.5475,
659.509,4174.9171,
656.598,4199.7705,
653.688,4218.0011,
650.777,4237.682,
647.867,4250.4233,
644.956,4238.3904,
642.046,4211.0077,
639.135,4198.2458,
636.224,4247.2858,
633.314,4254.4313,
630.403,4287.5842,
627.493,4317.6996,
624.582,4339.1957,
621.672,4374.8354,
618.761,4367.1307,
615.850,4352.1283,
612.940,4348.7392,
610.029,4373.7446,
607.119,4448.7596,
604.208,4407.2591,
601.297,4394.7278,
598.387,4421.741,
595.476,4463.7877,
592.566,4395.3128,
589.655,4448.039,
586.745,4455.91,
583.834,4413.4429,
580.923,4388.9941,
578.013,4346.6185,
575.102,4362.2087,
572.192,4401.1861,
569.281,4435.5312,
566.371,4437.0964,
563.460,4499.3312,
560.549,4534.9956,
557.639,4544.4443,
554.728,4546.1424,
551.818,4607.7874,
548.907,4576.7628,
545.996,4576.6316,
543.086,4623.5987,
540.175,4634.4997,
537.265,4621.4887,
534.354,4667.9241,
531.444,4720.3646,
528.533,4725.8987,
525.622,4763.1442,
522.712,4736.6651,
519.801,4757.4025,
516.891,4846.3436,
513.980,4940.8077,
511.070,4994.3282,
508.159,5047.6348,
505.248,5089.7565,
502.338,5103.9729,
499.427,5128.6716,
496.517,5183.3308,
493.606,5237.4111,
490.695,5264.51,
487.785,5216.0132,
484.874,5298.7213,
481.964,5335.7917,
479.053,5294.7162,
476.143,5196.417,
473.232,5257.8739,
470.321,5253.1091,
467.411,5246.3358,
464.500,5321.0392,
461.590,5233.7448,
458.679,5251.0724,
455.769,5283.0446,
452.858,5277.6933,
449.947,5272.3457,
447.037,5273.0703,
444.126,5257.9833,
441.216,5223.9002,
438.305,5187.3274,
435.395,5179.6275,
432.484,5200.7546,
429.573,5230.6525,
426.663,5223.8112,
423.752,5196.0507,
420.842,5134.4712,
417.931,5085.808,
415.020,5122.9675,
412.110,5175.4629,
409.199,5240.2157,
406.289,5289.9719,
403.378,5295.2705,
400.468,5301.3184,
397.557,5272.9152,
394.646,5235.3616,
391.736,5210.0669,
388.825,5173.1096,
385.915,5129.254,
383.004,5128.5188,
380.094,5204.2022,
377.183,5301.2716,
374.272,5353.2179,
371.362,5399.8565,
368.451,5464.7149,
365.541,5521.7557,
362.630,5536.1575,
359.719,5543.8331,
356.809,5567.7841,
353.898,5626.1904,
350.988,5663.9495,
348.077,5671.7953,
345.167,5649.1259,
342.256,5705.9031,
339.345,5725.4386,
336.435,5752.1229,
333.524,5814.297,
330.614,5815.7873,
327.703,5836.2728,
324.793,5861.6948,
321.882,5880.3852,
318.971,5936.1434,
316.061,6015.8009,
313.150,6075.0929,
310.240,6061.7348,
307.329,6108.416,
304.418,6150.9596,
301.508,6165.6623,
298.597,6114.5735,
295.687,6081.1287,
292.776,6167.2505,
289.866,6357.2267,
286.955,6594.3575,
284.044,6831.9148,
281.134,7069.853,
278.223,7302.243,
275.313,7500.4571,
272.402,7681.6668,
269.492,7840.5509,
266.581,7973.9749,
263.670,8082.0464,
260.760,8265.7859,
257.849,8433.2224,
254.939,8513.2156,
252.028,8637.3036,
249.117,8692.9297,
246.207,8694.1583,
243.296,8659.0205,
240.386,8702.2654,
237.475,8623.5195,
234.565,8456.3297,
231.654,8450.4867,
228.743,8363.5202,
225.833,8277.9926,
222.922,8223.6828,
220.012,8147.1845,
217.101,8011.839,
214.191,7912.3307,
211.280,7962.5256,
208.369,7917.8074,
205.459,7845.1422,
202.548,7778.5202,
199.638,7820.6079,
196.727,7869.0089,
193.816,7906.0766,
190.906,7922.066,
187.995,7859.7999,
185.085,7897.357,
182.174,7941.5069,
179.264,7861.2799,
176.353,7972.7164,
173.442,8003.2691,
170.532,7928.5052,
167.621,7844.872,
164.711,7692.9603,
161.800,7479.4188,
158.890,7195.8461,
155.979,6738.5567,
153.068,6159.2993,
150.158,5478.9495,
147.247,4736.5869,
144.337,3872.528,
141.426,3027.7257,
138.516,2269.9717,
135.605,1631.1813,
132.694,1110.1798,
129.784,706.19185,
126.873,454.46615,
123.963,317.32041,
121.052,229.30357,
118.141,171.47751,
115.231,132.16863,
112.320,110.74273,
109.410,100.52289,
106.499,86.27979,
103.589,72.605165,
100.678,62.62027,
97.767,58.354644,
94.857,47.162175,
91.946,42.653111,
89.036,43.927387,
86.125,48.182619,
83.215,41.817115,
80.304,33.573971,
77.393,28.616782,
74.483,28.905135,
71.572,30.699408,
68.662,32.834395,
65.751,28.595689,
62.840,25.804894,
59.930,24.999145,
57.019,27.819473,
54.109,19.889748,
51.198,15.154828,
48.288,17.278312,
45.377,20.795203,
42.466,25.959974,
39.556,29.868577,
36.645,21.442294,
33.735,20.288497,
30.824,20.366452,
27.914,17.561751,
25.003,21.608462,
22.092,24.572905,
19.182,25.478829,
16.271,32.47373,
13.361,144.40762,
10.450,343.16723,
7.539,627.38159,
4.629,736.87642,
1.718,643.88412,
-1.192,231.87169,
-4.103,41.916696,
-7.013,-32.764971,
-9.924,-0.75,
