,PLC42E~1,
Wavenumbers [1/cm],Intensity,
3014.167,-2.875,
3011.256,1.3749463,
3008.346,63.461164,
3005.435,76.969521,
3002.525,75.465045,
2999.614,89.125,
2996.704,89.806443,
2993.793,79.354264,
2990.882,89.476175,
2987.972,91.140135,
2985.061,89.248146,
2982.151,97.215768,
2979.240,107.92347,
2976.329,111.61681,
2973.419,112.90985,
2970.508,106.20832,
2967.598,118.5993,
2964.687,117.19905,
2961.777,125.31302,
2958.866,124.45932,
2955.955,119.33076,
2953.045,130.77601,
2950.134,139.94425,
2947.224,118.69438,
2944.313,133.6307,
2941.403,148.98266,
2938.492,134.26321,
2935.581,130.71641,
2932.671,134.36968,
2929.760,139.41343,
2926.850,130.70695,
2923.939,147.16236,
2921.028,142.25427,
2918.118,148.04439,
2915.207,144.89084,
2912.297,150.10807,
2909.386,142.1177,
2906.476,153.63622,
2903.565,139.77093,
2900.654,146.08857,
2897.744,143.22558,
2894.833,136.69228,
2891.923,129.09941,
2889.012,136.62789,
2886.102,131.35337,
2883.191,116.14199,
2880.280,44.837899,
2877.370,-43.752757,
2874.459,-59.182987,
2871.549,13.993939,
2868.638,99.584749,
2865.727,117.01733,
2862.817,123.69718,
2859.906,136.22755,
2856.996,158.17029,
2854.085,159.5683,
2851.175,159.10387,
2848.264,153.21784,
2845.353,163.71523,
2842.443,147.92013,
2839.532,149.02054,
2836.622,158.27669,
2833.711,167.53945,
2830.801,171.52794,
2827.890,165.68618,
2824.979,164.26096,
2822.069,164.23872,
2819.158,168.42419,
2816.248,162.11342,
2813.337,173.21769,
2810.427,168.03684,
2807.516,178.54219,
2804.605,166.30769,
2801.695,158.59867,
2798.784,178.27692,
2795.874,173.55508,
2792.963,178.55372,
2790.052,167.12822,
2787.142,158.7435,
2784.231,163.57687,
2781.321,166.67921,
2778.410,146.36992,
2775.500,163.44224,
2772.589,149.47285,
2769.678,177.90997,
2766.768,176.25509,
2763.857,165.49494,
2760.947,176.11239,
2758.036,179.20783,
2755.126,179.59722,
2752.215,182.67945,
2749.304,182.23111,
2746.394,180.18346,
2743.483,181.92501,
2740.573,166.81742,
2737.662,173.56139,
2734.751,169.79973,
2731.841,188.07189,
2728.930,206.85815,
2726.020,185.45139,
2723.109,192.53717,
2720.199,176.86863,
2717.288,188.68704,
2714.377,184.99582,
2711.467,194.53489,
2708.556,194.73132,
2705.646,194.58978,
2702.735,205.59663,
2699.825,192.30869,
2696.914,191.74362,
2694.003,213.45509,
2691.093,199.4463,
2688.182,184.66944,
2685.272,212.09798,
2682.361,182.64247,
2679.450,197.49535,
2676.540,193.26727,
2673.629,194.48378,
2670.719,186.97898,
2667.808,206.24956,
2664.898,210.74854,
2661.987,207.35846,
2659.076,206.88793,
2656.166,195.83494,
2653.255,212.6012,
2650.345,203.60413,
2647.434,198.75404,
2644.524,217.66937,
2641.613,215.32487,
2638.702,206.23547,
2635.792,213.25261,
2632.881,198.32134,
2629.971,209.10491,
2627.060,215.62344,
2624.149,224.90938,
2621.239,218.87055,
2618.328,207.71842,
2615.418,224.44319,
2612.507,221.19618,
2609.597,237.82959,
2606.686,211.51456,
2603.775,208.32341,
2600.865,223.7667,
2597.954,219.4604,
2595.044,228.76805,
2592.133,229.23323,
2589.223,225.23342,
2586.312,234.02949,
2583.401,243.18703,
2580.491,236.39904,
2577.580,237.1283,
2574.670,238.01805,
2571.759,226.8673,
2568.848,228.35709,
2565.938,235.64884,
2563.027,232.58863,
2560.117,235.125,
2557.206,239.64529,
2554.296,231.92363,
2551.385,230.94305,
2548.474,237.125,
2545.564,231.31493,
2542.653,259.7458,
2539.743,246.35913,
2536.832,233.92126,
2533.922,227.14077,
2531.011,234.72444,
2528.100,256.92292,
2525.190,254.80041,
2522.279,246.01606,
2519.369,257.78576,
2516.458,246.46069,
2513.548,249.93408,
2510.637,253.7561,
2507.726,246.56366,
2504.816,252.12613,
2501.905,254.25549,
2498.995,244.10978,
2496.084,232.11109,
2493.173,262.67831,
2490.263,269.75436,
2487.352,260.45887,
2484.442,271.25775,
2481.531,275.96546,
2478.621,274.66055,
2475.710,258.18634,
2472.799,266.125,
2469.889,276.78984,
2466.978,270.08393,
2464.068,287.06688,
2461.157,253.01243,
2458.247,267.68385,
2455.336,280.35789,
2452.425,274.42688,
2449.515,284.10629,
2446.604,289.00981,
2443.694,279.89226,
2440.783,271.26689,
2437.872,283.125,
2434.962,284.43836,
2432.051,276.90874,
2429.141,279.36011,
2426.230,273.90729,
2423.320,289.18226,
2420.409,292.44535,
2417.498,291.76543,
2414.588,293.56982,
2411.677,313.01339,
2408.767,281.35433,
2405.856,279.87736,
2402.946,291.65494,
2400.035,282.53814,
2397.124,316.77741,
2394.214,300.28581,
2391.303,291.34045,
2388.393,292.63197,
2385.482,246.23997,
2382.571,270.94766,
2379.661,288.52011,
2376.750,307.65212,
2373.840,310.6156,
2370.929,316.08168,
2368.019,296.8596,
2365.108,310.8449,
2362.197,325.30584,
2359.287,313.75508,
2356.376,307.13028,
2353.466,326.15585,
2350.555,314.96489,
2347.645,321.96604,
2344.734,343.52134,
2341.823,337.29083,
2338.913,336.52648,
2336.002,336.17039,
2333.092,329.53912,
2330.181,325.68763,
2327.270,329.125,
2324.360,334.5283,
2321.449,330.33927,
2318.539,331.44613,
2315.628,339.84802,
2312.718,337.125,
2309.807,328.80813,
2306.896,339.63674,
2303.986,336.72883,
2301.075,336.99731,
2298.165,337.53836,
2295.254,340.03883,
2292.344,338.80545,
2289.433,352.78909,
2286.522,351.09822,
2283.612,352.19516,
2280.701,363.51063,
2277.791,338.68792,
2274.880,377.62297,
2271.969,370.35956,
2269.059,359.62093,
2266.148,378.06824,
2263.238,382.125,
2260.327,361.5045,
2257.417,379.41333,
2254.506,384.40708,
2251.595,388.84504,
2248.685,390.01729,
2245.774,382.21308,
2242.864,390.34696,
2239.953,381.40082,
2237.043,378.9943,
2234.132,372.486,
2231.221,386.52038,
2228.311,389.99484,
2225.400,404.06871,
2222.490,398.96858,
2219.579,386.49262,
2216.669,386.13931,
2213.758,401.38907,
2210.847,411.125,
2207.937,409.20644,
2205.026,416.90284,
2202.116,414.86279,
2199.205,418.66218,
2196.294,424.001,
2193.384,420.283,
2190.473,423.41491,
2187.563,425.15883,
2184.652,434.38418,
2181.742,444.17009,
2178.831,446.3585,
2175.920,459.29076,
2173.010,471.00085,
2170.099,514.98712,
2167.189,485.48378,
2164.278,533.8044,
2161.368,539.55195,
2158.457,582.86842,
2155.546,616.3058,
2152.636,648.84836,
2149.725,674.43371,
2146.815,682.95816,
2143.904,703.82389,
2140.993,708.10904,
2138.083,737.32558,
2135.172,734.24256,
2132.262,737.64965,
2129.351,744.34912,
2126.441,721.03755,
2123.530,710.82195,
2120.619,680.40956,
2117.709,649.74175,
2114.798,612.0325,
2111.888,580.00023,
2108.977,563.68128,
2106.067,548.02447,
2103.156,518.72995,
2100.245,511.12124,
2097.335,502.11453,
2094.424,478.44955,
2091.514,478.84548,
2088.603,478.20799,
2085.692,465.53393,
2082.782,457.34995,
2079.871,459.05382,
2076.961,480.70429,
2074.050,466.04621,
2071.140,480.10233,
2068.229,466.47264,
2065.318,486.8905,
2062.408,485.66282,
2059.497,462.0833,
2056.587,438.19493,
2053.676,461.07335,
2050.766,451.43367,
2047.855,448.23892,
2044.944,456.51441,
2042.034,472.32714,
2039.123,441.32702,
2036.213,451.39607,
2033.302,443.47276,
2030.391,451.63335,
2027.481,464.53954,
2024.570,457.16815,
2021.660,474.88329,
2018.749,474.31495,
2015.839,478.72146,
2012.928,475.20554,
2010.017,466.93064,
2007.107,463.24277,
2004.196,472.10119,
2001.286,503.14968,
1998.375,489.33168,
1995.465,485.1375,
1992.554,474.97805,
1989.643,473.125,
1986.733,463.40921,
1983.822,484.99649,
1980.912,477.89726,
1978.001,470.22703,
1975.090,467.07921,
1972.180,485.60771,
1969.269,481.59625,
1966.359,480.07097,
1963.448,481.125,
1960.538,498.1667,
1957.627,492.31694,
1954.716,451.3028,
1951.806,484.97597,
1948.895,477.53398,
1945.985,450.20997,
1943.074,465.00325,
1940.164,463.90389,
1937.253,459.37734,
1934.342,433.99666,
1931.432,445.68021,
1928.521,476.81412,
1925.611,452.13181,
1922.700,463.07665,
1919.790,455.34481,
1916.879,449.404,
1913.968,477.09057,
1911.058,461.97486,
1908.147,486.66367,
1905.237,472.95585,
1902.326,459.81684,
1899.415,458.31523,
1896.505,444.30584,
1893.594,466.48478,
1890.684,478.77203,
1887.773,494.67643,
1884.863,512.6922,
1881.952,480.46037,
1879.041,466.39447,
1876.131,467.93938,
1873.220,451.56299,
1870.310,476.04423,
1867.399,501.74115,
1864.489,492.11247,
1861.578,466.9382,
1858.667,465.125,
1855.757,469.70853,
1852.846,492.1455,
1849.936,490.52141,
1847.025,467.59214,
1844.114,491.97679,
1841.204,500.61451,
1838.293,489.13498,
1835.383,522.47296,
1832.472,525.47283,
1829.562,508.95781,
1826.651,528.21944,
1823.740,523.7495,
1820.830,512.18006,
1817.919,519.89752,
1815.009,512.70643,
1812.098,508.43209,
1809.188,527.82263,
1806.277,502.72256,
1803.366,521.42445,
1800.456,537.14654,
1797.545,505.61424,
1794.635,528.70598,
1791.724,522.09583,
1788.813,535.92346,
1785.903,530.42152,
1782.992,512.83434,
1780.082,483.1755,
1777.171,491.11428,
1774.261,441.2698,
1771.350,481.50877,
1768.439,564.44349,
1765.529,549.94164,
1762.618,549.78752,
1759.708,561.65762,
1756.797,571.19318,
1753.887,572.4836,
1750.976,545.71794,
1748.065,579.28014,
1745.155,564.77693,
1742.244,559.65123,
1739.334,571.49441,
1736.423,560.82034,
1733.512,556.85264,
1730.602,607.99015,
1727.691,609.77179,
1724.781,590.96662,
1721.870,591.14883,
1718.960,610.21411,
1716.049,602.37935,
1713.138,618.93491,
1710.228,605.58936,
1707.317,627.00843,
1704.407,583.40835,
1701.496,642.84489,
1698.586,607.5457,
1695.675,649.03901,
1692.764,659.69877,
1689.854,660.125,
1686.943,676.55166,
1684.033,603.98772,
1681.122,652.25839,
1678.211,678.87755,
1675.301,703.051,
1672.390,712.08313,
1669.480,698.06885,
1666.569,691.75979,
1663.659,741.28832,
1660.748,751.91555,
1657.837,791.27208,
1654.927,753.289,
1652.016,759.44463,
1649.106,734.35277,
1646.195,823.50862,
1643.285,838.73763,
1640.374,822.52221,
1637.463,841.9897,
1634.553,889.33189,
1631.642,902.95127,
1628.732,887.45682,
1625.821,943.17472,
1622.911,1018.6967,
1620.000,1027.0242,
1617.089,1096.7121,
1614.179,1150.6021,
1611.268,1219.5225,
1608.358,1285.9879,
1605.447,1333.4396,
1602.536,1398.5614,
1599.626,1358.9682,
1596.715,1370.5542,
1593.805,1367.6533,
1590.894,1314.2848,
1587.984,1338.3043,
1585.073,1334.6168,
1582.162,1279.6923,
1579.252,1260.942,
1576.341,1241.5016,
1573.431,1218.3288,
1570.520,1197.8375,
1567.610,1183.4386,
1564.699,1220.7267,
1561.788,1188.9424,
1558.878,1176.6354,
1555.967,1202.5876,
1553.057,1143.9533,
1550.146,1090.605,
1547.235,1103.3768,
1544.325,1084.7586,
1541.414,1072.6264,
1538.504,1070.7661,
1535.593,1029.884,
1532.683,1012.5286,
1529.772,1021.0876,
1526.861,1006.2854,
1523.951,986.43427,
1521.040,984.51297,
1518.130,1006.2048,
1515.219,990.04523,
1512.309,975.93129,
1509.398,965.50319,
1506.487,993.22752,
1503.577,971.74867,
1500.666,926.2589,
1497.756,951.88781,
1494.845,960.52467,
1491.934,946.13445,
1489.024,949.02193,
1486.113,956.54272,
1483.203,926.03913,
1480.292,927.21607,
1477.382,853.76617,
1474.471,890.60891,
1471.560,876.64702,
1468.650,899.97196,
1465.739,894.34834,
1462.829,880.93137,
1459.918,879.57251,
1457.008,875.57111,
1454.097,872.58716,
1451.186,849.42094,
1448.276,831.99068,
1445.365,859.125,
1442.455,871.42438,
1439.544,887.748,
1436.633,836.89262,
1433.723,871.60237,
1430.812,922.35182,
1427.902,900.64364,
1424.991,922.44218,
1422.081,907.52789,
1419.170,875.01883,
1416.259,838.53254,
1413.349,823.57259,
1410.438,833.02125,
1407.528,894.13053,
1404.617,874.63197,
1401.707,840.18488,
1398.796,861.89418,
1395.885,872.72332,
1392.975,860.08354,
1390.064,876.18842,
1387.154,878.63803,
1384.243,835.95348,
1381.332,864.65827,
1378.422,911.73347,
1375.511,962.31964,
1372.601,913.3602,
1369.690,939.12779,
1366.780,919.57191,
1363.869,977.05498,
1360.958,1011.0282,
1358.048,1007.2253,
1355.137,1040.5513,
1352.227,1065.6021,
1349.316,1072.5664,
1346.406,1096.1001,
1343.495,1088.5989,
1340.584,1109.1609,
1337.674,1103.9842,
1334.763,1136.9013,
1331.853,1157.3004,
1328.942,1173.2459,
1326.032,1204.4873,
1323.121,1247.4323,
1320.210,1266.1183,
1317.300,1252.0083,
1314.389,1244.2362,
1311.479,1281.7655,
1308.568,1317.9412,
1305.657,1323.3872,
1302.747,1380.4367,
1299.836,1423.4592,
1296.926,1439.9968,
1294.015,1437.2388,
1291.105,1473.2272,
1288.194,1498.8923,
1285.283,1523.4571,
1282.373,1551.3749,
1279.462,1593.8695,
1276.552,1617.7313,
1273.641,1633.5869,
1270.731,1657.1265,
1267.820,1652.8113,
1264.909,1678.8609,
1261.999,1656.623,
1259.088,1697.6684,
1256.178,1659.8715,
1253.267,1617.0668,
1250.356,1597.998,
1247.446,1558.3346,
1244.535,1520.2411,
1241.625,1489.3621,
1238.714,1447.2455,
1235.804,1398.5814,
1232.893,1352.2467,
1229.982,1364.5492,
1227.072,1288.503,
1224.161,1279.763,
1221.251,1248.6001,
1218.340,1226.4644,
1215.430,1253.7077,
1212.519,1263.9201,
1209.608,1226.4693,
1206.698,1184.8907,
1203.787,1157.8888,
1200.877,1189.5708,
1197.966,1196.764,
1195.055,1267.0914,
1192.145,1285.1357,
1189.234,1307.2376,
1186.324,1359.038,
1183.413,1378.5514,
1180.503,1347.6465,
1177.592,1328.4685,
1174.681,1339.9161,
1171.771,1297.3723,
1168.860,1308.0893,
1165.950,1263.9728,
1163.039,1258.7122,
1160.129,1297.1062,
1157.218,1274.0514,
1154.307,1223.2381,
1151.397,1234.5094,
1148.486,1264.5717,
1145.576,1283.7781,
1142.665,1275.7869,
1139.754,1264.5478,
1136.844,1234.1129,
1133.933,1221.5385,
1131.023,1241.4251,
1128.112,1263.4108,
1125.202,1258.5018,
1122.291,1249.7571,
1119.380,1268.0124,
1116.470,1256.5395,
1113.559,1289.9212,
1110.649,1300.125,
1107.738,1279.7639,
1104.828,1264.6216,
1101.917,1273.7465,
1099.006,1278.8881,
1096.096,1240.9313,
1093.185,1254.1013,
1090.275,1255.9343,
1087.364,1265.7307,
1084.453,1256.0634,
1081.543,1259.5863,
1078.632,1280.0054,
1075.722,1284.5011,
1072.811,1286.125,
1069.901,1286.125,
1066.990,1300.675,
1064.079,1321.8184,
1061.169,1330.6773,
1058.258,1338.7477,
1055.348,1356.7679,
1052.437,1367.9095,
1049.527,1330.3865,
1046.616,1311.2723,
1043.705,1357.6832,
1040.795,1340.8383,
1037.884,1336.7799,
1034.974,1352.3595,
1032.063,1349.9252,
1029.153,1329.1902,
1026.242,1321.4056,
1023.331,1376.1215,
1020.421,1406.6438,
1017.510,1408.962,
1014.600,1426.9632,
1011.689,1446.7222,
1008.778,1422.8166,
1005.868,1449.6231,
1002.957,1393.7,
1000.047,1503.7891,
997.136,1569.2687,
994.226,1564.4945,
991.315,1538.2983,
988.404,1525.8564,
985.494,1484.295,
982.583,1536.5449,
979.673,1513.3958,
976.762,1507.4089,
973.852,1524.3853,
970.941,1531.6408,
968.030,1510.177,
965.120,1516.1859,
962.209,1530.6791,
959.299,1533.125,
956.388,1536.4848,
953.477,1535.8368,
950.567,1535.5692,
947.656,1546.1196,
944.746,1530.8276,
941.835,1556.8488,
938.925,1555.2284,
936.014,1551.125,
933.103,1565.6019,
930.193,1579.9398,
927.282,1530.4376,
924.372,1517.7535,
921.461,1482.987,
918.551,1475.7725,
915.640,1465.5268,
912.729,1446.5883,
909.819,1446.9043,
906.908,1460.3831,
903.998,1411.8124,
901.087,1428.4043,
898.176,1428.4232,
895.266,1426.6297,
892.355,1464.638,
889.445,1478.0662,
886.534,1486.4737,
883.624,1496.8718,
880.713,1494.4904,
877.802,1458.5967,
874.892,1394.8519,
871.981,1357.1189,
869.071,1314.5128,
866.160,1352.6623,
863.250,1422.4001,
860.339,1473.5685,
857.428,1482.638,
854.518,1471.0177,
851.607,1432.7425,
848.697,1380.7291,
845.786,1352.8595,
842.875,1388.0708,
839.965,1472.4116,
837.054,1501.125,
834.144,1501.125,
831.233,1499.1251,
828.323,1493.1793,
825.412,1504.5451,
822.501,1539.7208,
819.591,1543.0264,
816.680,1508.6698,
813.770,1502.0045,
810.859,1487.7828,
807.949,1469.6762,
805.038,1470.1294,
802.127,1461.8981,
799.217,1404.4753,
796.306,1384.5574,
793.396,1385.293,
790.485,1389.652,
787.574,1399.9657,
784.664,1422.1087,
781.753,1411.3634,
778.843,1412.4564,
775.932,1423.9027,
773.022,1435.0701,
770.111,1466.9557,
767.200,1460.7506,
764.290,1439.6329,
761.379,1416.2783,
758.469,1411.7976,
755.558,1451.347,
752.648,1425.2797,
749.737,1415.5555,
746.826,1422.4494,
743.916,1423.9106,
741.005,1400.2167,
738.095,1401.0286,
735.184,1346.0654,
732.274,1275.2165,
729.363,1258.3597,
726.452,1321.7727,
723.542,1375.1927,
720.631,1379.6541,
717.721,1383.5621,
714.810,1402.8749,
711.899,1426.1745,
708.989,1409.2291,
706.078,1437.1706,
703.168,1404.6556,
700.257,1402.229,
697.347,1415.1271,
694.436,1344.478,
691.525,1394.3139,
688.615,1390.66,
685.704,1368.7425,
682.794,1367.5078,
679.883,1421.3413,
676.973,1426.1495,
674.062,1437.3343,
671.151,1452.3299,
668.241,1449.8301,
665.330,1404.3519,
662.420,1409.1443,
659.509,1394.8867,
656.598,1418.1485,
653.688,1461.2752,
650.777,1463.6939,
647.867,1421.4885,
644.956,1394.1696,
642.046,1374.833,
639.135,1363.3346,
636.224,1364.3717,
633.314,1413.5959,
630.403,1434.9932,
627.493,1463.7854,
624.582,1496.5936,
621.672,1480.7537,
618.761,1461.1265,
615.850,1433.0855,
612.940,1432.2017,
610.029,1463.2837,
607.119,1452.2289,
604.208,1443.3149,
601.297,1442.6176,
598.387,1453.724,
595.476,1476.5363,
592.566,1491.4906,
589.655,1453.3079,
586.745,1443.7101,
583.834,1457.9292,
580.923,1450.0824,
578.013,1443.0197,
575.102,1443.9929,
572.192,1453.2707,
569.281,1472.8738,
566.371,1510.4397,
563.460,1504.2484,
560.549,1492.3285,
557.639,1477.4109,
554.728,1461.7857,
551.818,1503.9227,
548.907,1513.125,
545.996,1504.1828,
543.086,1501.1973,
540.175,1552.588,
537.265,1487.3185,
534.354,1505.7755,
531.444,1539.536,
528.533,1512.6768,
525.622,1520.4363,
522.712,1516.0575,
519.801,1523.9633,
516.891,1550.3242,
513.980,1585.9418,
511.070,1551.7946,
508.159,1558.0931,
505.248,1579.6214,
502.338,1573.4353,
499.427,1618.2016,
496.517,1666.327,
493.606,1680.6653,
490.695,1655.9437,
487.785,1669.0302,
484.874,1670.4788,
481.964,1673.8625,
479.053,1673.7931,
476.143,1651.5222,
473.232,1680.34,
470.321,1663.417,
467.411,1637.9369,
464.500,1652.1444,
461.590,1652.9101,
458.679,1683.3912,
455.769,1709.7003,
452.858,1714.6362,
449.947,1729.1509,
447.037,1719.9898,
444.126,1728.022,
441.216,1751.2886,
438.305,1729.1926,
435.395,1733.337,
432.484,1739.6255,
429.573,1739.0425,
426.663,1721.5592,
423.752,1571.5747,
420.842,1478.8105,
417.931,1433.7052,
415.020,1393.5122,
412.110,1536.9844,
409.199,1662.0076,
406.289,1723.1042,
403.378,1680.1993,
400.468,1702.1231,
397.557,1703.4694,
394.646,1739.3349,
391.736,1849.628,
388.825,1802.8657,
385.915,1789.125,
383.004,1801.4034,
380.094,1831.8179,
377.183,1825.7981,
374.272,1856.149,
371.362,1872.5292,
368.451,1848.7663,
365.541,1875.7856,
362.630,1910.9833,
359.719,1924.0621,
356.809,1900.3062,
353.898,1903.3014,
350.988,1903.5825,
348.077,1903.7058,
345.167,1905.5034,
342.256,1912.9741,
339.345,1909.8107,
336.435,1905.4026,
333.524,1906.9941,
330.614,1934.5648,
327.703,1949.2859,
324.793,1938.1108,
321.882,1889.3125,
318.971,1966.6305,
316.061,1987.7535,
313.150,1987.6678,
310.240,2005.4786,
307.329,1997.5494,
304.418,1976.7988,
301.508,1969.3189,
298.597,2018.9268,
295.687,2017.0298,
292.776,2007.875,
289.866,2015.0054,
286.955,2090.3554,
284.044,2084.68,
281.134,2098.0828,
278.223,2145.3163,
275.313,2201.3173,
272.402,2145.1593,
269.492,2095.4913,
266.581,2099.4326,
263.670,2173.6858,
260.760,2195.6474,
257.849,2201.7708,
254.939,2217.9162,
252.028,2249.9742,
249.117,2250.2475,
246.207,2249.0049,
243.296,2298.7834,
240.386,2272.1284,
237.475,2255.8934,
234.565,2262.4166,
231.654,2296.0142,
228.743,2297.9467,
225.833,2290.4662,
222.922,2282.6006,
220.012,2292.8004,
217.101,2276.4964,
214.191,2258.5292,
211.280,2266.5313,
208.369,2291.3463,
205.459,2304.722,
202.548,2298.3506,
199.638,2247.5552,
196.727,2308.5758,
193.816,2356.3086,
190.906,2345.7345,
187.995,2363.1111,
185.085,2388.0392,
182.174,2405.0114,
179.264,2389.8334,
176.353,2393.892,
173.442,2406.9141,
170.532,2420.5967,
167.621,2390.3157,
164.711,2306.9688,
161.800,2211.8451,
158.890,2131.9554,
155.979,2011.724,
153.068,1866.1027,
150.158,1693.9694,
147.247,1481.4555,
144.337,1210.5116,
141.426,938.29919,
138.516,690.97172,
135.605,513.97117,
132.694,352.27618,
129.784,217.02424,
126.873,149.80204,
123.963,108.80963,
121.052,76.510142,
118.141,47.24016,
115.231,40.729867,
112.320,37.277728,
109.410,34.488737,
106.499,25.942874,
103.589,18.522455,
100.678,15.483109,
97.767,19.037796,
94.857,20.510978,
91.946,17.900113,
89.036,12.56051,
86.125,9.0144841,
83.215,6.0013186,
80.304,5.0827307,
77.393,7.9154105,
74.483,11.400675,
71.572,12.037944,
68.662,10.125,
65.751,10.125,
62.840,9.161596,
59.930,7.0012828,
57.019,2.7707909,
54.109,4.5136434,
51.198,7.9346557,
48.288,12.10235,
45.377,9.288838,
42.466,9.7738774,
39.556,11.664526,
36.645,8.8557648,
33.735,7.6057515,
30.824,5.7996782,
27.914,1.5926267,
25.003,4.8608249,
22.092,10.67695,
19.182,18.719954,
16.271,36.906698,
13.361,127.57368,
10.450,285.5135,
7.539,537.60535,
4.629,780.22447,
1.718,834.08486,
-1.192,468.78112,
-4.103,241.64716,
-7.013,88.338293,
-9.924,4.125,
