,PLCF4F~1,
Raman shift [1/cm],Intensity,
3014.167,-0.5,
3011.256,-0.35007516,
3008.346,141.95105,
3005.435,165.07597,
3002.525,177.14262,
2999.614,158.01561,
2996.704,168.41134,
2993.793,184.00461,
2990.882,183.88929,
2987.972,174.57567,
2985.061,193.49015,
2982.151,219.63615,
2979.240,220.13308,
2976.329,227.51092,
2973.419,222.83864,
2970.508,225.36661,
2967.598,228.5,
2964.687,228.5,
2961.777,233.02996,
2958.866,256.49703,
2955.955,261.25885,
2953.045,255.43514,
2950.134,270.92566,
2947.224,276.84163,
2944.313,283.55627,
2941.403,296.61952,
2938.492,282.76557,
2935.581,277.72576,
2932.671,289.86052,
2929.760,297.84616,
2926.850,295.86579,
2923.939,303.57944,
2921.028,304.7294,
2918.118,312.92192,
2915.207,324.3797,
2912.297,319.50846,
2909.386,325.46352,
2906.476,325.8174,
2903.565,327.56519,
2900.654,320.7821,
2897.744,327.24856,
2894.833,312.86073,
2891.923,325.3654,
2889.012,301.82948,
2886.102,307.85541,
2883.191,306.49717,
2880.280,295.89234,
2877.370,258.8257,
2874.459,246.95927,
2871.549,275.89478,
2868.638,304.27524,
2865.727,344.07694,
2862.817,324.38504,
2859.906,334.32336,
2856.996,341.5317,
2854.085,339.78152,
2851.175,337.16864,
2848.264,346.85783,
2845.353,320.88821,
2842.443,335.70487,
2839.532,326.84331,
2836.622,326.43815,
2833.711,331.54397,
2830.801,322.61544,
2827.890,333.75176,
2824.979,339.93202,
2822.069,332.72744,
2819.158,346.41913,
2816.248,349.94789,
2813.337,347.15976,
2810.427,348.80165,
2807.516,364.44234,
2804.605,357.77883,
2801.695,343.98686,
2798.784,353.27823,
2795.874,349.49472,
2792.963,354.5,
2790.052,368.497,
2787.142,359.55246,
2784.231,350.72514,
2781.321,344.00865,
2778.410,360.69037,
2775.500,363.22206,
2772.589,347.69342,
2769.678,364.96416,
2766.768,348.45532,
2763.857,368.92004,
2760.947,368.55043,
2758.036,351.08583,
2755.126,376.88034,
2752.215,384.8819,
2749.304,383.52159,
2746.394,382.22985,
2743.483,379.14999,
2740.573,368.07959,
2737.662,387.81953,
2734.751,381.84946,
2731.841,384.5,
2728.930,384.37715,
2726.020,385.50521,
2723.109,393.04633,
2720.199,388.55942,
2717.288,388.56935,
2714.377,396.24164,
2711.467,403.31978,
2708.556,412.5741,
2705.646,408.59855,
2702.735,401.51548,
2699.825,412.58726,
2696.914,416.59547,
2694.003,387.81219,
2691.093,404.83935,
2688.182,410.31852,
2685.272,406.18137,
2682.361,403.28821,
2679.450,407.33126,
2676.540,422.62194,
2673.629,424.18612,
2670.719,403.29574,
2667.808,412.6732,
2664.898,419.98055,
2661.987,426.43349,
2659.076,424.6444,
2656.166,442.79006,
2653.255,425.54251,
2650.345,422.26044,
2647.434,439.81409,
2644.524,437.51921,
2641.613,451.67159,
2638.702,440.72093,
2635.792,441.93769,
2632.881,441.07737,
2629.971,444.11747,
2627.060,429.99782,
2624.149,453.47187,
2621.239,456.74259,
2618.328,453.41523,
2615.418,456.47728,
2612.507,454.70953,
2609.597,472.02096,
2606.686,455.74698,
2603.775,453.30159,
2600.865,489.0803,
2597.954,482.4938,
2595.044,463.82152,
2592.133,472.61471,
2589.223,491.65686,
2586.312,485.62062,
2583.401,474.70437,
2580.491,488.47111,
2577.580,507.5,
2574.670,505.56284,
2571.759,485.63614,
2568.848,480.08567,
2565.938,482.73801,
2563.027,495.59772,
2560.117,487.33175,
2557.206,514.04612,
2554.296,481.64874,
2551.385,499.49193,
2548.474,498.24089,
2545.564,503.43669,
2542.653,492.04698,
2539.743,496.05545,
2536.832,505.84767,
2533.922,496.95731,
2531.011,520.8254,
2528.100,507.9669,
2525.190,498.80369,
2522.279,527.84343,
2519.369,518.72616,
2516.458,522.38456,
2513.548,515.88184,
2510.637,524.93038,
2507.726,530.25093,
2504.816,535.37599,
2501.905,517.15244,
2498.995,536.32084,
2496.084,532.88676,
2493.173,527.63146,
2490.263,519.71355,
2487.352,534.9992,
2484.442,526.63275,
2481.531,546.08499,
2478.621,561.87443,
2475.710,541.50767,
2472.799,544.22644,
2469.889,561.61914,
2466.978,555.01565,
2464.068,536.96557,
2461.157,565.07261,
2458.247,552.04418,
2455.336,558.84051,
2452.425,561.17453,
2449.515,577.04677,
2446.604,558.08987,
2443.694,567.70974,
2440.783,578.92905,
2437.872,580.35414,
2434.962,578.33871,
2432.051,579.59869,
2429.141,593.29389,
2426.230,582.73863,
2423.320,582.18575,
2420.409,586.92936,
2417.498,582.54212,
2414.588,585.57979,
2411.677,589.53586,
2408.767,595.3061,
2405.856,604.3405,
2402.946,588.91644,
2400.035,587.19719,
2397.124,615.28609,
2394.214,616.63401,
2391.303,610.25135,
2388.393,614.24651,
2385.482,632.66283,
2382.571,631.86749,
2379.661,619.24417,
2376.750,628.02458,
2373.840,629.57814,
2370.929,619.59747,
2368.019,642.95814,
2365.108,640.05759,
2362.197,647.88905,
2359.287,639.12172,
2356.376,643.48767,
2353.466,635.33394,
2350.555,630.45014,
2347.645,652.48541,
2344.734,653.25574,
2341.823,664.26783,
2338.913,657.80897,
2336.002,675.9162,
2333.092,690.75283,
2330.181,681.93737,
2327.270,690.78493,
2324.360,680.21465,
2321.449,670.99321,
2318.539,673.30732,
2315.628,704.25421,
2312.718,697.65197,
2309.807,675.11482,
2306.896,684.50783,
2303.986,691.41562,
2301.075,703.28721,
2298.165,693.13435,
2295.254,681.67234,
2292.344,704.76559,
2289.433,697.85136,
2286.522,705.06694,
2283.612,711.64031,
2280.701,735.13673,
2277.791,735.93895,
2274.880,719.50406,
2271.969,719.33128,
2269.059,742.64442,
2266.148,759.17279,
2263.238,758.10232,
2260.327,749.6036,
2257.417,763.07667,
2254.506,758.5,
2251.595,750.50732,
2248.685,743.02693,
2245.774,775.84008,
2242.864,762.7319,
2239.953,778.22418,
2237.043,771.27928,
2234.132,772.5,
2231.221,788.13315,
2228.311,792.76031,
2225.400,786.00662,
2222.490,808.32747,
2219.579,816.16574,
2216.669,810.40461,
2213.758,836.3706,
2210.847,860.45715,
2207.937,878.92995,
2205.026,891.61049,
2202.116,918.9883,
2199.205,947.67506,
2196.294,953.80598,
2193.384,985.07804,
2190.473,1028.1033,
2187.563,1048.6692,
2184.652,1084.1024,
2181.742,1107.5934,
2178.831,1140.5505,
2175.920,1151.8097,
2173.010,1171.3248,
2170.099,1170.5,
2167.189,1194.7081,
2164.278,1224.5271,
2161.368,1238.7847,
2158.457,1274.3269,
2155.546,1301.7875,
2152.636,1350.702,
2149.725,1393.6342,
2146.815,1424.599,
2143.904,1456.9015,
2140.993,1461.1984,
2138.083,1456.9347,
2135.172,1464.3405,
2132.262,1440.9401,
2129.351,1404.1723,
2126.441,1387.2475,
2123.530,1335.0174,
2120.619,1284.6563,
2117.709,1226.2709,
2114.798,1174.0843,
2111.888,1106.8761,
2108.977,1065.3344,
2106.067,1035.7822,
2103.156,992.54692,
2100.245,975.50188,
2097.335,970.31153,
2094.424,914.09024,
2091.514,920.49458,
2088.603,911.02535,
2085.692,893.35884,
2082.782,898.46375,
2079.871,904.67853,
2076.961,895.14578,
2074.050,909.94848,
2071.140,880.30453,
2068.229,887.49348,
2065.318,888.61049,
2062.408,893.25793,
2059.497,887.85711,
2056.587,877.04645,
2053.676,876.05015,
2050.766,872.73094,
2047.855,861.21521,
2044.944,850.96795,
2042.034,847.737,
2039.123,851.56061,
2036.213,868.5556,
2033.302,878.69571,
2030.391,850.38204,
2027.481,872.20698,
2024.570,871.85748,
2021.660,853.5052,
2018.749,863.90565,
2015.839,895.46456,
2012.928,875.70638,
2010.017,883.83875,
2007.107,856.66262,
2004.196,854.47619,
2001.286,862.56359,
1998.375,866.4124,
1995.465,845.04822,
1992.554,874.55852,
1989.643,851.50235,
1986.733,837.53334,
1983.822,863.34343,
1980.912,808.78772,
1978.001,845.10113,
1975.090,856.55342,
1972.180,828.74203,
1969.269,833.95406,
1966.359,852.5812,
1963.448,864.80515,
1960.538,813.12885,
1957.627,842.40715,
1954.716,856.24146,
1951.806,814.43745,
1948.895,845.63369,
1945.985,805.9085,
1943.074,806.37825,
1940.164,802.78845,
1937.253,800.20872,
1934.342,806.06417,
1931.432,814.07729,
1928.521,795.66753,
1925.611,807.12315,
1922.700,787.79973,
1919.790,777.91621,
1916.879,805.40752,
1913.968,821.48279,
1911.058,775.42493,
1908.147,786.10874,
1905.237,775.26474,
1902.326,787.90742,
1899.415,783.60612,
1896.505,790.9636,
1893.594,772.94518,
1890.684,795.11436,
1887.773,793.87943,
1884.863,793.68907,
1881.952,800.38245,
1879.041,810.82139,
1876.131,833.04509,
1873.220,786.94227,
1870.310,798.99324,
1867.399,820.18013,
1864.489,800.5,
1861.578,800.2198,
1858.667,797.64671,
1855.757,794.91289,
1852.846,785.77691,
1849.936,796.66317,
1847.025,802.43428,
1844.114,813.38228,
1841.204,802.8951,
1838.293,821.00915,
1835.383,819.3255,
1832.472,836.73304,
1829.562,824.78072,
1826.651,830.96199,
1823.740,825.66856,
1820.830,820.5,
1817.919,857.96132,
1815.009,853.65649,
1812.098,829.05907,
1809.188,845.25965,
1806.277,882.68112,
1803.366,814.06563,
1800.456,847.28017,
1797.545,842.57806,
1794.635,832.98399,
1791.724,837.42222,
1788.813,878.9018,
1785.903,865.03696,
1782.992,809.54772,
1780.082,838.12777,
1777.171,839.4925,
1774.261,829.38536,
1771.350,873.55976,
1768.439,890.94645,
1765.529,897.04725,
1762.618,908.5,
1759.708,902.88038,
1756.797,921.70455,
1753.887,914.29301,
1750.976,905.47251,
1748.065,916.34332,
1745.155,879.81639,
1742.244,916.10588,
1739.334,900.99413,
1736.423,920.77284,
1733.512,922.94711,
1730.602,962.38102,
1727.691,949.09656,
1724.781,942.85973,
1721.870,958.79057,
1718.960,950.16652,
1716.049,947.5,
1713.138,988.5398,
1710.228,981.57525,
1707.317,1006.0371,
1704.407,1018.484,
1701.496,988.50738,
1698.586,996.58781,
1695.675,1044.2854,
1692.764,1000.1639,
1689.854,1010.8937,
1686.943,1065.6114,
1684.033,1064.5745,
1681.122,1070.398,
1678.211,1112.1003,
1675.301,1118.4815,
1672.390,1147.6136,
1669.480,1186.1257,
1666.569,1263.2461,
1663.659,1243.4183,
1660.748,1239.252,
1657.837,1277.7624,
1654.927,1291.8195,
1652.016,1388.7187,
1649.106,1397.7203,
1646.195,1407.0515,
1643.285,1431.5736,
1640.374,1521.7334,
1637.463,1580.9592,
1634.553,1661.5492,
1631.642,1732.2166,
1628.732,1798.2348,
1625.821,1921.5779,
1622.911,2039.8294,
1620.000,2188.6102,
1617.089,2296.3507,
1614.179,2424.8339,
1611.268,2582.5515,
1608.358,2672.3796,
1605.447,2770.7865,
1602.536,2826.8219,
1599.626,2824.0605,
1596.715,2831.6684,
1593.805,2812.8247,
1590.894,2813.142,
1587.984,2790.1155,
1585.073,2783.0967,
1582.162,2697.3416,
1579.252,2643.6764,
1576.341,2604.2585,
1573.431,2552.6422,
1570.520,2528.27,
1567.610,2488.7347,
1564.699,2434.4483,
1561.788,2419.2042,
1558.878,2378.5342,
1555.967,2319.1995,
1553.057,2272.983,
1550.146,2223.471,
1547.235,2148.3706,
1544.325,2080.9613,
1541.414,2040.7582,
1538.504,2037.2899,
1535.593,2055.2906,
1532.683,2063.9594,
1529.772,2032.1568,
1526.861,1997.5466,
1523.951,1996.8275,
1521.040,1971.0466,
1518.130,1979.3257,
1515.219,2006.4208,
1512.309,1987.9325,
1509.398,2013.5076,
1506.487,2010.918,
1503.577,1957.4355,
1500.666,1999.6946,
1497.756,1965.152,
1494.845,1913.7407,
1491.934,1943.3079,
1489.024,1884.5958,
1486.113,1933.4969,
1483.203,1901.0851,
1480.292,1832.0131,
1477.382,1809.1845,
1474.471,1807.2674,
1471.560,1759.606,
1468.650,1716.9021,
1465.739,1735.603,
1462.829,1771.0013,
1459.918,1811.677,
1457.008,1843.6386,
1454.097,1849.7271,
1451.186,1823.6277,
1448.276,1751.2823,
1445.365,1655.1738,
1442.455,1603.7864,
1439.544,1612.1993,
1436.633,1564.7989,
1433.723,1478.2447,
1430.812,1487.2492,
1427.902,1446.2745,
1424.991,1436.7969,
1422.081,1407.1407,
1419.170,1358.7048,
1416.259,1360.4107,
1413.349,1397.2411,
1410.438,1364.4139,
1407.528,1389.9182,
1404.617,1380.4466,
1401.707,1369.2186,
1398.796,1401.2692,
1395.885,1411.2715,
1392.975,1370.1866,
1390.064,1303.8951,
1387.154,1227.312,
1384.243,1171.1195,
1381.332,1142.2706,
1378.422,1162.7797,
1375.511,1284.5612,
1372.601,1353.7746,
1369.690,1470.9389,
1366.780,1562.3672,
1363.869,1604.7473,
1360.958,1637.2678,
1358.048,1684.5054,
1355.137,1726.8989,
1352.227,1737.5523,
1349.316,1771.327,
1346.406,1831.3489,
1343.495,1847.1638,
1340.584,1930.0708,
1337.674,1964.5688,
1334.763,1926.217,
1331.853,1997.6138,
1328.942,2058.3152,
1326.032,2036.9533,
1323.121,2106.0784,
1320.210,2117.1838,
1317.300,2161.4404,
1314.389,2251.9733,
1311.479,2339.7619,
1308.568,2420.264,
1305.657,2481.9048,
1302.747,2496.0139,
1299.836,2551.7508,
1296.926,2655.5083,
1294.015,2698.7165,
1291.105,2798.2401,
1288.194,2886.5818,
1285.283,2927.6961,
1282.373,2992.1873,
1279.462,3040.4213,
1276.552,3084.6261,
1273.641,3104.1769,
1270.731,3087.203,
1267.820,3105.3065,
1264.909,3082.115,
1261.999,3055.1699,
1259.088,2991.3214,
1256.178,2960.0934,
1253.267,2925.5794,
1250.356,2852.1609,
1247.446,2812.1124,
1244.535,2734.6386,
1241.625,2639.8927,
1238.714,2587.8183,
1235.804,2532.738,
1232.893,2476.386,
1229.982,2424.6908,
1227.072,2371.2774,
1224.161,2316.2293,
1221.251,2254.3844,
1218.340,2199.5747,
1215.430,2143.7152,
1212.519,2094.1258,
1209.608,2088.9907,
1206.698,2118.3722,
1203.787,2103.9271,
1200.877,2127.0691,
1197.966,2200.8002,
1195.055,2265.9339,
1192.145,2287.7702,
1189.234,2375.843,
1186.324,2470.5956,
1183.413,2540.2056,
1180.503,2552.5549,
1177.592,2514.7931,
1174.681,2533.8425,
1171.771,2452.7582,
1168.860,2420.607,
1165.950,2378.7981,
1163.039,2324.1038,
1160.129,2325.1449,
1157.218,2384.6892,
1154.307,2445.7438,
1151.397,2480.8373,
1148.486,2518.0533,
1145.576,2497.6905,
1142.665,2479.0443,
1139.754,2494.5862,
1136.844,2445.9773,
1133.933,2432.8841,
1131.023,2408.8138,
1128.112,2365.2156,
1125.202,2348.7415,
1122.291,2350.252,
1119.380,2355.7598,
1116.470,2382.2357,
1113.559,2353.0235,
1110.649,2358.5614,
1107.738,2330.6002,
1104.828,2297.4195,
1101.917,2282.3693,
1099.006,2243.1601,
1096.096,2193.9087,
1093.185,2184.2507,
1090.275,2223.9635,
1087.364,2249.9669,
1084.453,2264.2496,
1081.543,2285.7142,
1078.632,2309.0072,
1075.722,2315.0642,
1072.811,2319.3616,
1069.901,2345.5594,
1066.990,2352.35,
1064.079,2352.139,
1061.169,2367.5167,
1058.258,2358.4788,
1055.348,2337.6127,
1052.437,2354.9083,
1049.527,2330.728,
1046.616,2310.7449,
1043.705,2303.1046,
1040.795,2277.8753,
1037.884,2295.35,
1034.974,2303.8995,
1032.063,2265.5924,
1029.153,2262.6159,
1026.242,2288.5646,
1023.331,2300.3326,
1020.421,2336.658,
1017.510,2386.2371,
1014.600,2436.3382,
1011.689,2478.0476,
1008.778,2507.7254,
1005.868,2526.9247,
1002.957,2574.2442,
1000.047,2621.54,
997.136,2688.1847,
994.226,2703.5311,
991.315,2649.4901,
988.404,2576.9071,
985.494,2532.4616,
982.583,2530.7485,
979.673,2493.9177,
976.762,2478.7387,
973.852,2481.4781,
970.941,2471.681,
968.030,2438.4538,
965.120,2449.5609,
962.209,2464.0541,
959.299,2496.2465,
956.388,2519.6993,
953.477,2526.8559,
950.567,2527.6371,
947.656,2538.0597,
944.746,2549.9535,
941.835,2535.9234,
938.925,2533.1581,
936.014,2556.768,
933.103,2570.6726,
930.193,2533.126,
927.282,2446.3085,
924.372,2424.3227,
921.461,2397.9352,
918.551,2365.1008,
915.640,2344.9503,
912.729,2339.3531,
909.819,2332.1655,
906.908,2322.0564,
903.998,2335.8166,
901.087,2338.227,
898.176,2364.7001,
895.266,2402.435,
892.355,2427.0389,
889.445,2467.3237,
886.534,2466.6651,
883.624,2490.0491,
880.713,2484.6583,
877.802,2478.5744,
874.892,2491.8008,
871.981,2465.6912,
869.071,2431.4392,
866.160,2439.9892,
863.250,2463.2745,
860.339,2492.103,
857.428,2503.2997,
854.518,2447.7166,
851.607,2455.2053,
848.697,2447.5584,
845.786,2423.7793,
842.875,2434.8621,
839.965,2483.9319,
837.054,2458.6396,
834.144,2471.0708,
831.233,2508.8308,
828.323,2522.5434,
825.412,2522.6855,
822.501,2524.202,
819.591,2483.7084,
816.680,2512.1475,
813.770,2495.6929,
810.859,2468.8653,
807.949,2452.1219,
805.038,2452.5819,
802.127,2486.3301,
799.217,2425.3964,
796.306,2392.7161,
793.396,2373.9884,
790.485,2357.7106,
787.574,2358.6246,
784.664,2361.905,
781.753,2367.1969,
778.843,2378.3215,
775.932,2386.2655,
773.022,2394.5314,
770.111,2465.6607,
767.200,2424.0599,
764.290,2433.7709,
761.379,2451.1061,
758.469,2433.5494,
755.558,2368.5518,
752.648,2336.7823,
749.737,2300.4717,
746.826,2247.2023,
743.916,2164.2916,
741.005,2033.3553,
738.095,1793.0398,
735.184,1455.5942,
732.274,1391.4005,
729.363,1580.0009,
726.452,1894.1306,
723.542,2152.3271,
720.631,2249.0702,
717.721,2287.6754,
714.810,2311.2045,
711.899,2324.6584,
708.989,2286.7329,
706.078,2271.2752,
703.168,2281.4661,
700.257,2267.8085,
697.347,2239.63,
694.436,2254.129,
691.525,2240.4643,
688.615,2276.4925,
685.704,2264.5328,
682.794,2230.6701,
679.883,2269.8152,
676.973,2254.5891,
674.062,2292.3373,
671.151,2299.2818,
668.241,2288.2682,
665.330,2321.9202,
662.420,2373.0391,
659.509,2357.4678,
656.598,2352.886,
653.688,2363.7395,
650.777,2354.743,
647.867,2361.91,
644.956,2346.7829,
642.046,2331.5248,
639.135,2331.8363,
636.224,2359.5875,
633.314,2377.0542,
630.403,2400.4187,
627.493,2401.5937,
624.582,2380.028,
621.672,2368.9401,
618.761,2340.3822,
615.850,2352.9885,
612.940,2366.4016,
610.029,2362.3142,
607.119,2385.2134,
604.208,2411.6405,
601.297,2399.5652,
598.387,2386.099,
595.476,2403.4889,
592.566,2360.9872,
589.655,2372.2888,
586.745,2374.2546,
583.834,2353.6187,
580.923,2318.3484,
578.013,2293.2369,
575.102,2314.6058,
572.192,2373.7294,
569.281,2446.1556,
566.371,2466.5038,
563.460,2455.0961,
560.549,2486.5332,
557.639,2518.7859,
554.728,2502.0767,
551.818,2527.0468,
548.907,2557.4859,
545.996,2558.726,
543.086,2544.3914,
540.175,2585.6596,
537.265,2577.6358,
534.354,2589.5541,
531.444,2607.1719,
528.533,2609.679,
525.622,2584.0727,
522.712,2563.3312,
519.801,2574.5034,
516.891,2613.5082,
513.980,2638.2856,
511.070,2636.9783,
508.159,2655.0802,
505.248,2673.4957,
502.338,2665.494,
499.427,2699.4547,
496.517,2686.4394,
493.606,2691.0355,
490.695,2732.4302,
487.785,2724.7322,
484.874,2745.4716,
481.964,2713.0652,
479.053,2657.1189,
476.143,2684.7655,
473.232,2723.1896,
470.321,2688.8424,
467.411,2645.0978,
464.500,2666.7824,
461.590,2638.4501,
458.679,2676.1745,
455.769,2714.1301,
452.858,2712.7958,
449.947,2686.8221,
447.037,2733.0746,
444.126,2757.6273,
441.216,2736.9439,
438.305,2704.9428,
435.395,2718.8578,
432.484,2756.4224,
429.573,2793.5475,
426.663,2785.1859,
423.752,2729.4039,
420.842,2726.9642,
417.931,2754.8702,
415.020,2763.2121,
412.110,2879.0949,
409.199,2943.0159,
406.289,2943.8538,
403.378,2877.4718,
400.468,2869.1559,
397.557,2874.7264,
394.646,2849.9092,
391.736,2759.4477,
388.825,2695.338,
385.915,2637.6499,
383.004,2624.6302,
380.094,2683.2584,
377.183,2796.1298,
374.272,2872.008,
371.362,2951.8831,
368.451,3052.5426,
365.541,3036.7813,
362.630,3029.2226,
359.719,3028.8677,
356.809,3033.322,
353.898,3013.8532,
350.988,2994.3953,
348.077,2988.889,
345.167,3006.3164,
342.256,3042.1757,
339.345,3025.9284,
336.435,3007.4967,
333.524,3021.4865,
330.614,3052.783,
327.703,3059.933,
324.793,3066.5227,
321.882,3092.5757,
318.971,3123.8003,
316.061,3177.96,
313.150,3226.9643,
310.240,3238.096,
307.329,3261.3684,
304.418,3284.6346,
301.508,3274.5215,
298.597,3173.0844,
295.687,3121.8339,
292.776,3129.8335,
289.866,3220.2551,
286.955,3461.0796,
284.044,3675.1298,
281.134,3866.5176,
278.223,4032.3916,
275.313,4154.7096,
272.402,4294.9379,
269.492,4422.1762,
266.581,4523.0194,
263.670,4586.2449,
260.760,4664.5741,
257.849,4754.9146,
254.939,4856.1904,
252.028,4882.1107,
249.117,4851.2992,
246.207,4819.0317,
243.296,4879.0587,
240.386,4777.1034,
237.475,4704.1325,
234.565,4666.6162,
231.654,4584.8132,
228.743,4541.0331,
225.833,4471.497,
222.922,4355.0539,
220.012,4302.5979,
217.101,4235.9377,
214.191,4167.8894,
211.280,4112.6022,
208.369,4082.2603,
205.459,4045.545,
202.548,4014.89,
199.638,4046.0929,
196.727,4039.247,
193.816,4027.0918,
190.906,4022.4142,
187.995,4048.4791,
185.085,4045.2058,
182.174,4032.2835,
179.264,4035.1746,
176.353,4054.0826,
173.442,4067.0379,
170.532,4070.1559,
167.621,4058.6203,
164.711,3996.1108,
161.800,3896.542,
158.890,3761.953,
155.979,3535.7075,
153.068,3269.4248,
150.158,2955.5095,
147.247,2544.1229,
144.337,2101.7449,
141.426,1653.6381,
138.516,1210.5993,
135.605,866.39558,
132.694,590.03151,
129.784,381.08588,
126.873,260.94407,
123.963,175.04043,
121.052,113.76896,
118.141,76.646057,
115.231,70.815437,
112.320,58.332738,
109.410,43.681868,
106.499,39.408937,
103.589,34.017964,
100.678,28.598648,
97.767,23.622085,
94.857,31.815869,
91.946,32.275113,
89.036,26.483919,
86.125,20.101071,
83.215,20.092761,
80.304,20.542269,
77.393,17.70959,
74.483,16.18973,
71.572,16.587056,
68.662,18.292198,
65.751,16.172844,
62.840,13.573192,
59.930,10.188997,
57.019,5.2534227,
54.109,12.263091,
51.198,16.595172,
48.288,14.488675,
45.377,13.081919,
42.466,11.263342,
39.556,9.1546443,
36.645,7.0480736,
33.735,10.653988,
30.824,14.720887,
27.914,15.422062,
25.003,25.4622,
22.092,32.791618,
19.182,36.026306,
16.271,52.114579,
13.361,164.28595,
10.450,416.70926,
7.539,1039.6066,
4.629,1521.6215,
1.718,1730.6277,
-1.192,1434.3413,
-4.103,876.94259,
-7.013,377.32792,
-9.924,1.5,
