,PL4F15~1,
Raman shift [1/cm],Intensity,
3014.167,-0.875,
3011.256,-0.97502147,
3008.346,319.28164,
3005.435,408.0508,
3002.525,411.61493,
2999.614,431.31332,
2996.704,448.75386,
2993.793,433.45968,
2990.882,462.99524,
2987.972,462.23094,
2985.061,480.90825,
2982.151,507.18721,
2979.240,508.03848,
2976.329,550.67141,
2973.419,542.3096,
2970.508,560.39157,
2967.598,586.74267,
2964.687,582.46807,
2961.777,616.92873,
2958.866,630.79513,
2955.955,651.92585,
2953.045,658.79392,
2950.134,692.10463,
2947.224,691.23888,
2944.313,712.20335,
2941.403,742.68476,
2938.492,738.36888,
2935.581,738.14091,
2932.671,762.80309,
2929.760,757.93655,
2926.850,762.125,
2923.939,789.51747,
2921.028,793.54831,
2918.118,792.98268,
2915.207,800.61267,
2912.297,816.13769,
2909.386,818.73084,
2906.476,823.54354,
2903.565,831.77093,
2900.654,819.73673,
2897.744,817.62211,
2894.833,790.08354,
2891.923,807.9359,
2889.012,791.74928,
2886.102,797.74932,
2883.191,804.12122,
2880.280,760.5939,
2877.370,710.38677,
2874.459,709.88606,
2871.549,756.59916,
2868.638,822.40126,
2865.727,832.68265,
2862.817,850.58222,
2859.906,871.30164,
2856.996,854.63632,
2854.085,840.6817,
2851.175,843.33886,
2848.264,856.53699,
2845.353,823.75044,
2842.443,844.13893,
2839.532,820.48328,
2836.622,831.33854,
2833.711,821.822,
2830.801,820.61397,
2827.890,807.64774,
2824.979,833.81689,
2822.069,856.98853,
2819.158,853.48619,
2816.248,851.43579,
2813.337,856.37256,
2810.427,863.25723,
2807.516,866.85875,
2804.605,835.82453,
2801.695,857.51974,
2798.784,862.90323,
2795.874,851.54451,
2792.963,865.26798,
2790.052,833.13251,
2787.142,858.53273,
2784.231,836.15761,
2781.321,823.0679,
2778.410,847.08437,
2775.500,847.33949,
2772.589,877.08601,
2769.678,869.58916,
2766.768,852.26866,
2763.857,871.54504,
2760.947,880.23217,
2758.036,902.20783,
2755.126,886.49894,
2752.215,897.14763,
2749.304,897.97571,
2746.394,894.97176,
2743.483,895.92501,
2740.573,911.86844,
2737.662,887.97708,
2734.751,893.82842,
2731.841,918.125,
2728.930,911.22672,
2726.020,920.91609,
2723.109,939.99083,
2720.199,934.49682,
2717.288,919.74177,
2714.377,940.18273,
2711.467,953.33819,
2708.556,946.47616,
2705.646,945.66022,
2702.735,970.93684,
2699.825,957.46139,
2696.914,961.88681,
2694.003,964.9868,
2691.093,946.19718,
2688.182,973.76204,
2685.272,963.48773,
2682.361,954.15448,
2679.450,950.41718,
2676.540,959.28759,
2673.629,971.10704,
2670.719,969.49006,
2667.808,967.93046,
2664.898,982.22909,
2661.987,988.12533,
2659.076,988.03234,
2656.166,994.23757,
2653.255,1004.5638,
2650.345,1008.3646,
2647.434,1011.1827,
2644.524,1039.6886,
2641.613,1048.0678,
2638.702,1029.4091,
2635.792,1038.7192,
2632.881,1013.7623,
2629.971,1022.5547,
2627.060,1069.1306,
2624.149,1024.5844,
2621.239,1049.1724,
2618.328,1041.3793,
2615.418,1045.4659,
2612.507,1054.536,
2609.597,1047.5941,
2606.686,1069.9041,
2603.775,1082.248,
2600.865,1084.4799,
2597.954,1066.1374,
2595.044,1103.1516,
2592.133,1103.8512,
2589.223,1102.7755,
2586.312,1104.4214,
2583.401,1125.6359,
2580.491,1133.9182,
2577.580,1122.1118,
2574.670,1109.4205,
2571.759,1121.3476,
2568.848,1132.0697,
2565.938,1153.649,
2563.027,1143.6636,
2560.117,1133.4427,
2557.206,1117.7412,
2554.296,1143.8115,
2551.385,1140.1169,
2548.474,1137.4585,
2545.564,1171.112,
2542.653,1175.219,
2539.743,1194.5942,
2536.832,1188.8185,
2533.922,1186.7558,
2531.011,1221.7254,
2528.100,1193.5988,
2525.190,1198.8893,
2522.279,1217.9994,
2519.369,1199.0493,
2516.458,1202.0096,
2513.548,1207.643,
2510.637,1221.125,
2507.726,1214.5674,
2504.816,1210.8138,
2501.905,1222.3713,
2498.995,1228.9458,
2496.084,1235.3237,
2493.173,1241.7561,
2490.263,1241.2934,
2487.352,1236.7927,
2484.442,1258.1057,
2481.531,1271.0186,
2478.621,1264.5183,
2475.710,1286.2554,
2472.799,1302.8784,
2469.889,1293.3992,
2466.978,1295.6713,
2464.068,1294.3789,
2461.157,1312.585,
2458.247,1303.5661,
2455.336,1289.5731,
2452.425,1287.691,
2449.515,1323.493,
2446.604,1327.8877,
2443.694,1341.5905,
2440.783,1319.1667,
2437.872,1365.6664,
2434.962,1325.549,
2432.051,1338.1932,
2429.141,1363.9543,
2426.230,1346.5592,
2423.320,1375.7109,
2420.409,1377.5799,
2417.498,1387.1418,
2414.588,1373.3152,
2411.677,1385.5912,
2408.767,1393.5719,
2405.856,1392.7892,
2402.946,1413.2859,
2400.035,1443.0969,
2397.124,1425.6063,
2394.214,1435.9318,
2391.303,1417.81,
2388.393,1444.3227,
2385.482,1461.5081,
2382.571,1446.4284,
2379.661,1451.7995,
2376.750,1457.3318,
2373.840,1466.7719,
2370.929,1470.0817,
2368.019,1496.0887,
2365.108,1487.8711,
2362.197,1481.6675,
2359.287,1494.1166,
2356.376,1527.0686,
2353.466,1490.5188,
2350.555,1505.9505,
2347.645,1528.9012,
2344.734,1526.1849,
2341.823,1520.2079,
2338.913,1518.5653,
2336.002,1551.3617,
2333.092,1561.424,
2330.181,1568.9689,
2327.270,1585.4649,
2324.360,1569.6038,
2321.449,1585.9107,
2318.539,1588.8895,
2315.628,1611.6022,
2312.718,1581.962,
2309.807,1614.3299,
2306.896,1610.0702,
2303.986,1604.7875,
2301.075,1607.2314,
2298.165,1591.3364,
2295.254,1599.9096,
2292.344,1657.9176,
2289.433,1644.7814,
2286.522,1636.4777,
2283.612,1656.6569,
2280.701,1688.0308,
2277.791,1688.0467,
2274.880,1706.0591,
2271.969,1693.446,
2269.059,1709.4138,
2266.148,1703.8045,
2263.238,1720.6153,
2260.327,1734.9871,
2257.417,1734.0739,
2254.506,1737.125,
2251.595,1760.5321,
2248.685,1761.1847,
2245.774,1763.2348,
2242.864,1742.9953,
2239.953,1759.5591,
2237.043,1810.4357,
2234.132,1789.3718,
2231.221,1776.466,
2228.311,1826.0553,
2225.400,1817.9975,
2222.490,1853.6952,
2219.579,1882.2278,
2216.669,1886.6417,
2213.758,1900.7368,
2210.847,1948.0091,
2207.937,1937.9394,
2205.026,1966.7909,
2202.116,1989.6982,
2199.205,2002.7869,
2196.294,2036.4809,
2193.384,2077.282,
2190.473,2102.5687,
2187.563,2169.0573,
2184.652,2174.5539,
2181.742,2293.8762,
2178.831,2369.4482,
2175.920,2478.6751,
2173.010,2611.358,
2170.099,2783.5764,
2167.189,2908.5386,
2164.278,3125.6949,
2161.368,3300.5476,
2158.457,3516.8993,
2155.546,3708.152,
2152.636,3842.045,
2149.725,3991.3061,
2146.815,4163.9528,
2143.904,4222.6417,
2140.993,4250.0881,
2138.083,4233.3863,
2135.172,4240.9483,
2132.262,4182.7227,
2129.351,4143.9386,
2126.441,4020.2703,
2123.530,3887.8129,
2120.619,3657.0161,
2117.709,3435.9696,
2114.798,3236.409,
2111.888,3032.8425,
2108.977,2868.1779,
2106.067,2683.6911,
2103.156,2584.0946,
2100.245,2509.0547,
2097.335,2393.0308,
2094.424,2344.4557,
2091.514,2286.9127,
2088.603,2287.2771,
2085.692,2259.8909,
2082.782,2228.9885,
2079.871,2221.4821,
2076.961,2225.8021,
2074.050,2222.0402,
2071.140,2176.4587,
2068.229,2145.8659,
2065.318,2136.0145,
2062.408,2154.5115,
2059.497,2124.8511,
2056.587,2115.7294,
2053.676,2078.8443,
2050.766,2082.9703,
2047.855,2081.6978,
2044.944,2070.8493,
2042.034,2094.888,
2039.123,2089.3641,
2036.213,2085.8739,
2033.302,2082.2556,
2030.391,2071.8369,
2027.481,2092.698,
2024.570,2090.8538,
2021.660,2094.7702,
2018.749,2133.6189,
2015.839,2140.3409,
2012.928,2105.1938,
2010.017,2116.9947,
2007.107,2136.7549,
2004.196,2131.6964,
2001.286,2120.7716,
1998.375,2087.5482,
1995.465,2069.5518,
1992.554,2063.8662,
1989.643,2088.2263,
1986.733,2107.9145,
1983.822,2059.3067,
1980.912,2102.2928,
1978.001,2085.3959,
1975.090,2089.1632,
1972.180,2064.4708,
1969.269,2070.5417,
1966.359,2084.4223,
1963.448,2079.2809,
1960.538,2065.7639,
1957.627,2085.416,
1954.716,2075.4984,
1951.806,2077.1379,
1948.895,2046.3941,
1945.985,2089.7933,
1943.074,2067.6489,
1940.164,2073.7692,
1937.253,2052.895,
1934.342,2035.7063,
1931.432,2048.5887,
1928.521,2016.0576,
1925.611,2010.8197,
1922.700,2024.0394,
1919.790,2005.4547,
1916.879,2030.0325,
1913.968,2035.1213,
1911.058,2052.6805,
1908.147,2013.3425,
1905.237,2004.559,
1902.326,2073.2376,
1899.415,2035.0884,
1896.505,2068.8116,
1893.594,2047.2165,
1890.684,2047.674,
1887.773,2056.0559,
1884.863,2057.2981,
1881.952,2050.2425,
1879.041,2070.8197,
1876.131,2052.0649,
1873.220,2055.7135,
1870.310,2030.2058,
1867.399,2032.061,
1864.489,2044.1639,
1861.578,2047.5534,
1858.667,2072.4454,
1855.757,2077.7336,
1852.846,2073.6532,
1849.936,2081.9628,
1847.025,2087.468,
1844.114,2124.4803,
1841.204,2108.1635,
1838.293,2110.1117,
1835.383,2118.125,
1832.472,2121.6833,
1829.562,2138.8175,
1826.651,2179.9463,
1823.740,2202.4047,
1820.830,2192.0068,
1817.919,2195.4544,
1815.009,2174.8629,
1812.098,2134.3219,
1809.188,2213.6054,
1806.277,2146.7628,
1803.366,2214.6925,
1800.456,2191.4332,
1797.545,2230.2953,
1794.635,2229.4781,
1791.724,2276.6493,
1788.813,2259.3188,
1785.903,2251.8497,
1782.992,2270.274,
1780.082,2214.92,
1777.171,2220.4628,
1774.261,2234.5699,
1771.350,2251.0998,
1768.439,2306.5325,
1765.529,2356.7649,
1762.618,2379.125,
1759.708,2367.8858,
1756.797,2349.0568,
1753.887,2350.5871,
1750.976,2380.7114,
1748.065,2379.9207,
1745.155,2378.0669,
1742.244,2402.327,
1739.334,2399.8003,
1736.423,2449.2352,
1733.512,2426.2834,
1730.602,2438.2977,
1727.691,2432.0041,
1724.781,2439.7102,
1721.870,2493.0205,
1718.960,2519.1029,
1716.049,2562.3958,
1713.138,2553.8801,
1710.228,2555.4765,
1707.317,2591.5079,
1704.407,2635.6545,
1701.496,2645.5943,
1698.586,2650.7449,
1695.675,2671.7106,
1692.764,2667.4447,
1689.854,2671.9085,
1686.943,2751.3595,
1684.033,2779.4793,
1681.122,2721.1445,
1678.211,2827.0971,
1675.301,2925.8228,
1672.390,2920.2327,
1669.480,2956.871,
1666.569,3050.1534,
1663.659,3130.6476,
1660.748,3162.877,
1657.837,3202.2404,
1654.927,3252.9684,
1652.016,3290.968,
1649.106,3405.6146,
1646.195,3426.7314,
1643.285,3493.1048,
1640.374,3537.571,
1637.463,3653.7643,
1634.553,3745.5042,
1631.642,3905.4388,
1628.732,4026.3279,
1625.821,4228.2552,
1622.911,4426.0036,
1620.000,4583.1344,
1617.089,4911.4981,
1614.179,5174.6799,
1611.268,5400.6856,
1608.358,5621.6834,
1605.447,5818.8122,
1602.536,5968.9762,
1599.626,5996.6037,
1596.715,6027.1682,
1593.805,5945.1635,
1590.894,5895.4948,
1587.984,5849.4187,
1585.073,5829.5119,
1582.162,5841.3181,
1579.252,5759.84,
1576.341,5740.3239,
1573.431,5693.1346,
1570.520,5681.6538,
1567.610,5673.9288,
1564.699,5581.9463,
1561.788,5499.5339,
1558.878,5438.1592,
1555.967,5348.4339,
1553.057,5255.3497,
1550.146,5169.0451,
1547.235,5110.3313,
1544.325,5018.4748,
1541.414,4933.042,
1538.504,4863.3966,
1535.593,4799.1877,
1532.683,4755.0741,
1529.772,4660.1261,
1526.861,4584.8158,
1523.951,4568.2439,
1521.040,4474.4045,
1518.130,4410.0384,
1515.219,4366.5661,
1512.309,4323.179,
1509.398,4303.836,
1506.487,4296.7708,
1503.577,4287.3006,
1500.666,4285.171,
1497.756,4217.3288,
1494.845,4251.3224,
1491.934,4135.9801,
1489.024,4091.7054,
1486.113,4053.9636,
1483.203,4035.138,
1480.292,4059.4289,
1477.382,3958.2445,
1474.471,3890.1518,
1471.560,3931.55,
1468.650,3885.8475,
1465.739,3819.898,
1462.829,3821.6104,
1459.918,3815.6828,
1457.008,3840.7563,
1454.097,3824.2796,
1451.186,3763.5312,
1448.276,3807.284,
1445.365,3853.3722,
1442.455,3824.4981,
1439.544,3833.6572,
1436.633,3820.0565,
1433.723,3784.4105,
1430.812,3703.0116,
1427.902,3712.9524,
1424.991,3663.6688,
1422.081,3649.2803,
1419.170,3604.922,
1416.259,3611.8961,
1413.349,3584.9154,
1410.438,3577.9241,
1407.528,3593.9311,
1404.617,3611.5191,
1401.707,3649.3915,
1398.796,3660.132,
1395.885,3687.0112,
1392.975,3737.6036,
1390.064,3691.112,
1387.154,3646.3963,
1384.243,3649.1925,
1381.332,3624.6262,
1378.422,3736.0233,
1375.511,3792.2302,
1372.601,3979.2822,
1369.690,4062.8456,
1366.780,4190.5542,
1363.869,4245.8252,
1360.958,4274.9315,
1358.048,4373.5285,
1355.137,4453.5753,
1352.227,4490.7983,
1349.316,4573.227,
1346.406,4720.0887,
1343.495,4834.1285,
1340.584,4847.0167,
1337.674,4926.5571,
1334.763,4981.5717,
1331.853,5019.5882,
1328.942,5129.6396,
1326.032,5202.6653,
1323.121,5254.6552,
1320.210,5341.3763,
1317.300,5402.9147,
1314.389,5478.1956,
1311.479,5568.95,
1308.568,5637.3948,
1305.657,5705.5017,
1302.747,5811.4864,
1299.836,5957.99,
1296.926,6068.2697,
1294.015,6157.4441,
1291.105,6327.5474,
1288.194,6451.5654,
1285.283,6566.6254,
1282.373,6738.1792,
1279.462,6881.9081,
1276.552,6948.5975,
1273.641,6989.9382,
1270.731,7051.825,
1267.820,7088.9458,
1264.909,7046.74,
1261.999,7021.7921,
1259.088,7012.6709,
1256.178,6887.0824,
1253.267,6772.5272,
1250.356,6584.9703,
1247.446,6392.3663,
1244.535,6223.902,
1241.625,6046.9067,
1238.714,5881.8093,
1235.804,5767.4942,
1232.893,5611.0172,
1229.982,5531.0092,
1227.072,5468.5427,
1224.161,5345.614,
1221.251,5289.6221,
1218.340,5249.6213,
1215.430,5133.9276,
1212.519,5059.8219,
1209.608,5066.9987,
1206.698,5052.4013,
1203.787,5035.7683,
1200.877,5114.735,
1197.966,5108.4408,
1195.055,5186.6239,
1192.145,5352.6477,
1189.234,5433.6182,
1186.324,5518.8589,
1183.413,5590.257,
1180.503,5589.9132,
1177.592,5546.9228,
1174.681,5511.2141,
1171.771,5428.2802,
1168.860,5391.6635,
1165.950,5292.1766,
1163.039,5262.8394,
1160.129,5197.6004,
1157.218,5162.7782,
1154.307,5149.4925,
1151.397,5091.5741,
1148.486,5030.5803,
1145.576,4995.0004,
1142.665,4899.9937,
1139.754,4941.7564,
1136.844,4863.4862,
1133.933,4767.6474,
1131.023,4765.8369,
1128.112,4800.1977,
1125.202,4792.5791,
1122.291,4820.1277,
1119.380,4826.9171,
1116.470,4805.7364,
1113.559,4783.7938,
1110.649,4832.4772,
1107.738,4832.1908,
1104.828,4832.5071,
1101.917,4845.343,
1099.006,4801.2897,
1096.096,4845.201,
1093.185,4781.1068,
1090.275,4797.166,
1087.364,4792.5193,
1084.453,4777.4382,
1081.543,4754.6637,
1078.632,4761.5099,
1075.722,4818.4414,
1072.811,4822.3255,
1069.901,4797.0009,
1066.990,4816.1416,
1064.079,4887.8154,
1061.169,4952.8154,
1058.258,5018.2387,
1055.348,5061.6002,
1052.437,5052.6042,
1049.527,5110.1516,
1046.616,5084.9555,
1043.705,5150.7231,
1040.795,5158.3549,
1037.884,5157.1939,
1034.974,5207.4433,
1032.063,5276.6406,
1029.153,5259.0211,
1026.242,5258.1562,
1023.331,5232.2933,
1020.421,5248.7351,
1017.510,5288.3799,
1014.600,5337.9237,
1011.689,5404.1977,
1008.778,5500.8912,
1005.868,5611.8393,
1002.957,5802.838,
1000.047,6030.8691,
997.136,6219.6535,
994.226,6294.7712,
991.315,6271.0755,
988.404,6219.641,
985.494,6152.4206,
982.583,6031.6462,
979.673,5964.373,
976.762,5949.6476,
973.852,5963.6173,
970.941,5975.754,
968.030,5975.2349,
965.120,6004.0212,
962.209,5979.2975,
959.299,5969.459,
956.388,5950.3261,
953.477,5987.6814,
950.567,6042.871,
947.656,6000.5868,
944.746,6049.8611,
941.835,6066.7016,
938.925,6083.9441,
936.014,6066.3395,
933.103,6046.7152,
930.193,6036.7474,
927.282,5961.1085,
924.372,5923.9018,
921.461,5804.2466,
918.551,5739.8877,
915.640,5681.0556,
912.729,5629.4921,
909.819,5635.8958,
906.908,5573.5564,
903.998,5566.9435,
901.087,5645.6883,
898.176,5694.4654,
895.266,5713.9949,
892.355,5755.3498,
889.445,5793.956,
886.534,5893.4748,
883.624,5956.8591,
880.713,5961.2833,
877.802,5967.0107,
874.892,5996.175,
871.981,5942.4148,
869.071,5912.3399,
866.160,5906.435,
863.250,5949.6338,
860.339,5979.4597,
857.428,5938.7853,
854.518,5839.7158,
851.607,5825.5706,
848.697,5781.1682,
845.786,5752.7836,
842.875,5776.9826,
839.965,5833.2753,
837.054,5811.6925,
834.144,5862.2464,
831.233,5827.4616,
828.323,5814.5219,
825.412,5782.9137,
822.501,5700.7421,
819.591,5726.3605,
816.680,5659.0159,
813.770,5585.1133,
810.859,5505.0984,
807.949,5451.0543,
805.038,5458.4148,
802.127,5477.3468,
799.217,5391.1689,
796.306,5391.2063,
793.396,5397.7737,
790.485,5383.7069,
787.574,5425.1633,
784.664,5373.4963,
781.753,5371.5058,
778.843,5410.4109,
775.932,5441.8782,
773.022,5431.6466,
770.111,5441.4575,
767.200,5502.2687,
764.290,5498.0099,
761.379,5465.3703,
758.469,5426.8949,
755.558,5373.3924,
752.648,5382.3531,
749.737,5338.4298,
746.826,5307.5979,
743.916,5283.0923,
741.005,5218.7665,
738.095,5038.5298,
735.184,4844.0806,
732.274,4787.2206,
729.363,4907.3999,
726.452,5138.6198,
723.542,5224.4155,
720.631,5304.8144,
717.721,5328.6978,
714.810,5332.9318,
711.899,5345.3329,
708.989,5371.9615,
706.078,5315.2325,
703.168,5288.3734,
700.257,5273.9364,
697.347,5231.4329,
694.436,5111.3907,
691.525,5158.0114,
688.615,5219.6957,
685.704,5239.3327,
682.794,5214.8272,
679.883,5184.8375,
676.973,5267.3787,
674.062,5208.8313,
671.151,5199.4381,
668.241,5243.3162,
665.330,5246.4821,
662.420,5232.9037,
659.509,5251.0777,
656.598,5247.9788,
653.688,5238.4769,
650.777,5271.4779,
647.867,5222.9018,
644.956,5199.1228,
642.046,5217.6593,
639.135,5249.0463,
636.224,5226.2483,
633.314,5250.8604,
630.403,5315.6549,
627.493,5358.4294,
624.582,5362.4781,
621.672,5364.0621,
618.761,5393.0027,
615.850,5435.1843,
612.940,5480.9094,
610.029,5520.5446,
607.119,5541.075,
604.208,5539.5749,
601.297,5548.5939,
598.387,5559.6983,
595.476,5564.0219,
592.566,5594.7175,
589.655,5542.4628,
586.745,5502.0117,
583.834,5494.5167,
580.923,5510.016,
578.013,5491.9671,
575.102,5476.2268,
572.192,5480.2727,
569.281,5504.234,
566.371,5515.9734,
563.460,5542.5219,
560.549,5567.2561,
557.639,5597.1645,
554.728,5640.3422,
551.818,5675.4564,
548.907,5736.7534,
545.996,5751.6855,
543.086,5721.6283,
540.175,5723.9642,
537.265,5812.4871,
534.354,5861.1757,
531.444,5904.5481,
528.533,5979.2838,
525.622,5995.5787,
522.712,6064.6544,
519.801,6130.0378,
516.891,6184.184,
513.980,6268.5823,
511.070,6327.5424,
508.159,6420.76,
505.248,6521.1569,
502.338,6590.5364,
499.427,6707.083,
496.517,6763.5795,
493.606,6817.7837,
490.695,6877.7802,
487.785,6817.7365,
484.874,6881.7945,
481.964,6897.6236,
479.053,6872.134,
476.143,6909.7642,
473.232,6881.91,
470.321,6855.5277,
467.411,6818.8511,
464.500,6756.3189,
461.590,6763.9763,
458.679,6795.8409,
455.769,6824.851,
452.858,6840.931,
449.947,6896.698,
447.037,6910.552,
444.126,6914.3432,
441.216,6910.9814,
438.305,6869.8371,
435.395,6879.2046,
432.484,6912.1301,
429.573,6946.415,
426.663,6943.3744,
423.752,6899.1876,
420.842,6823.4959,
417.931,6786.2906,
415.020,6892.4608,
412.110,7032.9367,
409.199,7104.1519,
406.289,7125.633,
403.378,7124.353,
400.468,7191.6365,
397.557,7181.2477,
394.646,7153.0104,
391.736,7156.5073,
388.825,7105.9738,
385.915,7095.3825,
383.004,7102.8371,
380.094,7117.9985,
377.183,7233.1274,
374.272,7297.149,
371.362,7366.8025,
368.451,7475.371,
365.541,7578.1944,
362.630,7632.3445,
359.719,7658.2685,
356.809,7672.1575,
353.898,7738.8005,
350.988,7724.5758,
348.077,7699.1579,
345.167,7707.5307,
342.256,7774.7669,
339.345,7793.5936,
336.435,7798.9544,
333.524,7814.4773,
330.614,7825.6547,
327.703,7849.1478,
324.793,7874.312,
321.882,7892.289,
318.971,7959.9423,
316.061,8029.5148,
313.150,8092.444,
310.240,8138.4552,
307.329,8216.5912,
304.418,8265.3631,
301.508,8269.2049,
298.597,8201.827,
295.687,8249.627,
292.776,8367.6255,
289.866,8549.437,
286.955,8797.6488,
284.044,9028.5673,
281.134,9245.4353,
278.223,9451.5192,
275.313,9659.3124,
272.402,9839.0563,
269.492,10026.794,
266.581,10231.476,
263.670,10390.275,
260.760,10505.602,
257.849,10632.512,
254.939,10813.781,
252.028,10878.376,
249.117,10886.593,
246.207,10884.036,
243.296,10945.527,
240.386,10976.286,
237.475,10956.085,
234.565,10901.284,
231.654,10889.598,
228.743,10836.493,
225.833,10764.367,
222.922,10682.305,
220.012,10621.835,
217.101,10564.831,
214.191,10507.11,
211.280,10443.821,
208.369,10439.125,
205.459,10458.289,
202.548,10490.384,
199.638,10509.251,
196.727,10509.668,
193.816,10508.931,
190.906,10515.563,
187.995,10585.069,
185.085,10637.023,
182.174,10670.867,
179.264,10680.986,
176.353,10671.873,
173.442,10681.715,
170.532,10699.296,
167.621,10614.942,
164.711,10461.784,
161.800,10191.259,
158.890,9743.5889,
155.979,9057.2698,
153.068,8307.5612,
150.158,7470.3696,
147.247,6402.0566,
144.337,5304.8028,
141.426,4192.6983,
138.516,3070.0466,
135.605,2203.3465,
132.694,1498.0869,
129.784,960.98341,
126.873,667.78017,
123.963,457.89048,
121.052,312.96319,
118.141,234.43397,
115.231,183.6745,
112.320,145.33229,
109.410,117.98883,
106.499,101.60926,
103.589,92.522455,
100.678,84.86554,
97.767,76.334289,
94.857,72.660055,
91.946,67.900113,
89.036,62.334715,
86.125,57.370278,
83.215,53.470398,
80.304,48.730673,
77.393,41.648974,
74.483,41.125,
71.572,38.588535,
68.662,33.986465,
65.751,32.573563,
62.840,32.125,
59.930,31.750428,
57.019,30.340264,
54.109,28.333517,
51.198,23.807298,
48.288,16.192949,
45.377,24.633486,
42.466,26.476123,
39.556,24.009881,
36.645,23.307691,
33.735,20.009509,
30.824,17.787661,
27.914,19.891187,
25.003,21.370275,
22.092,22.125,
19.182,22.559774,
16.271,35.850087,
13.361,98.443285,
10.450,183.25468,
7.539,218.86876,
4.629,9.2032106,
1.718,-286.1058,
-1.192,-580.30079,
-4.103,-483.58004,
-7.013,-277.09019,
-9.924,-2.875,
