,PLCE2F~1,
Wavenumbers [1/cm],Intensity,
3014.167,-5.625,
3011.256,3.0749356,
3008.346,43.235345,
3005.435,53.219521,
3002.525,54.092562,
2999.614,48.612664,
2996.704,59.596646,
2993.793,52.489632,
2990.882,59.245235,
2987.972,66.34473,
2985.061,52.838044,
2982.151,54.823749,
2979.240,66.490008,
2976.329,63.353159,
2973.419,71.113382,
2970.508,76.22499,
2967.598,79.992671,
2964.687,70.464674,
2961.777,76.528929,
2958.866,70.385393,
2955.955,58.651546,
2953.045,78.227368,
2950.134,88.704432,
2947.224,75.944376,
2944.313,86.835825,
2941.403,90.280108,
2938.492,83.982063,
2935.581,89.810604,
2932.671,85.297772,
2929.760,92.424989,
2926.850,81.636279,
2923.939,82.53387,
2921.028,92.539768,
2918.118,93.194899,
2915.207,94.140845,
2912.297,95.375,
2909.386,104.74727,
2906.476,108.6924,
2903.565,100.97279,
2900.654,89.880553,
2897.744,92.689305,
2894.833,100.88046,
2891.923,84.673103,
2889.012,96.831648,
2886.102,112.03985,
2883.191,123.37028,
2880.280,79.882173,
2877.370,81.578456,
2874.459,69.727211,
2871.549,78.730354,
2868.638,91.057469,
2865.727,106.00578,
2862.817,98.274737,
2859.906,113.60292,
2856.996,105.91802,
2854.085,120.14185,
2851.175,104.04364,
2848.264,107.95334,
2845.353,127.96523,
2842.443,104.58336,
2839.532,101.25557,
2836.622,104.83008,
2833.711,115.26355,
2830.801,107.98676,
2827.890,107.81382,
2824.979,113.09101,
2822.069,88.727535,
2819.158,114.81435,
2816.248,106.62789,
2813.337,121.01403,
2810.427,108.94112,
2807.516,109.90016,
2804.605,113.14904,
2801.695,118.55923,
2798.784,118.96638,
2795.874,121.66524,
2792.963,122.51798,
2790.052,118.3765,
2787.142,116.24338,
2784.231,113.08463,
2781.321,118.62068,
2778.410,109.0349,
2775.500,112.90672,
2772.589,118.25956,
2769.678,120.15997,
2766.768,127.43326,
2763.857,109.95689,
2760.947,129.84663,
2758.036,122.83358,
2755.126,117.17842,
2752.215,123.80215,
2749.304,124.09801,
2746.394,125.31654,
2743.483,126.87498,
2740.573,112.74439,
2737.662,121.03477,
2734.751,120.84095,
2731.841,135.97024,
2728.930,133.90472,
2726.020,128.71181,
2723.109,123.39575,
2720.199,134.66872,
2717.288,138.8312,
2714.377,122.70024,
2711.467,131.76841,
2708.556,136.50258,
2705.646,135.14964,
2702.735,150.52189,
2699.825,135.77684,
2696.914,134.70817,
2694.003,145.63191,
2691.093,135.32086,
2688.182,136.41278,
2685.272,145.02081,
2682.361,135.28657,
2679.450,141.54374,
2676.540,141.90755,
2673.629,124.68439,
2670.719,132.80568,
2667.808,131.375,
2664.898,142.03745,
2661.987,148.97527,
2659.076,148.90087,
2656.166,145.90746,
2653.255,147.89371,
2650.345,140.31874,
2647.434,148.14665,
2644.524,156.375,
2641.613,155.68927,
2638.702,163.24875,
2635.792,148.78078,
2632.881,150.64289,
2629.971,147.63002,
2627.060,139.87406,
2624.149,145.5375,
2621.239,141.12055,
2618.328,145.92603,
2615.418,161.69319,
2612.507,147.27626,
2609.597,151.63049,
2606.686,160.81676,
2603.775,152.93452,
2600.865,152.13951,
2597.954,143.61457,
2595.044,158.9472,
2592.133,165.08822,
2589.223,158.94132,
2586.312,157.81716,
2583.401,169.49905,
2580.491,163.90864,
2577.580,158.39645,
2574.670,173.5889,
2571.759,166.16268,
2568.848,175.95522,
2565.938,177.66083,
2563.027,164.30225,
2560.117,173.82361,
2557.206,185.41559,
2554.296,164.09125,
2551.385,171.06099,
2548.474,184.85679,
2545.564,180.72321,
2542.653,185.76426,
2539.743,172.10297,
2536.832,171.49837,
2533.922,176.65885,
2531.011,186.95063,
2528.100,180.70257,
2525.190,199.49016,
2522.279,193.14051,
2519.369,187.77126,
2516.458,183.03931,
2513.548,175.52052,
2510.637,198.08386,
2507.726,180.24861,
2504.816,176.49901,
2501.905,181.7372,
2498.995,179.375,
2496.084,179.68162,
2493.173,182.03295,
2490.263,180.18403,
2487.352,194.41673,
2484.442,197.65337,
2481.531,189.68365,
2478.621,205.01491,
2475.710,177.56669,
2472.799,203.8548,
2469.889,201.58828,
2466.978,191.48843,
2464.068,222.93596,
2461.157,200.375,
2458.247,210.61041,
2455.336,212.50414,
2452.425,196.56839,
2449.515,219.11097,
2446.604,216.97183,
2443.694,212.09624,
2440.783,217.56532,
2437.872,217.93742,
2434.962,211.89112,
2432.051,215.18342,
2429.141,211.62782,
2426.230,202.28768,
2423.320,216.58939,
2420.409,212.7532,
2417.498,212.77668,
2414.588,222.18484,
2411.677,215.58612,
2408.767,196.90453,
2405.856,203.43691,
2402.946,216.06579,
2400.035,207.09095,
2397.124,228.16109,
2394.214,231.7798,
2391.303,218.33638,
2388.393,224.81224,
2385.482,202.60873,
2382.571,208.41343,
2379.661,199.70047,
2376.750,216.16314,
2373.840,219.59063,
2370.929,233.22338,
2368.019,226.91686,
2365.108,227.84097,
2362.197,231.91752,
2359.287,232.39171,
2356.376,242.35387,
2353.466,241.17809,
2350.555,241.56004,
2347.645,233.31011,
2344.734,240.55937,
2341.823,245.35842,
2338.913,249.22422,
2336.002,237.24092,
2333.092,253.99575,
2330.181,255.14737,
2327.270,231.80514,
2324.360,246.89624,
2321.449,234.78996,
2318.539,246.73895,
2315.628,264.76988,
2312.718,245.06001,
2309.807,234.15115,
2306.896,253.08391,
2303.986,239.98541,
2301.075,239.05587,
2298.165,253.93302,
2295.254,261.31037,
2292.344,263.64059,
2289.433,258.07,
2286.522,261.26789,
2283.612,269.10588,
2280.701,257.06562,
2277.791,252.4971,
2274.880,277.02104,
2271.969,268.76183,
2269.059,270.49217,
2266.148,279.40004,
2263.238,277.87693,
2260.327,277.6509,
2257.417,278.52834,
2254.506,273.01604,
2251.595,286.93859,
2248.685,287.48271,
2245.774,284.47392,
2242.864,287.20794,
2239.953,274.92664,
2237.043,281.41323,
2234.132,267.92565,
2231.221,283.29755,
2228.311,285.02578,
2225.400,302.45944,
2222.490,300.36186,
2219.579,283.16166,
2216.669,283.91554,
2213.758,284.50704,
2210.847,292.59918,
2207.937,291.45644,
2205.026,326.37559,
2202.116,309.58838,
2199.205,315.21194,
2196.294,315.69703,
2193.384,301.69099,
2190.473,313.1027,
2187.563,321.41367,
2184.652,328.01949,
2181.742,325.39835,
2178.831,345.28943,
2175.920,331.47699,
2173.010,318.00028,
2170.099,367.9028,
2167.189,360.55439,
2164.278,389.19008,
2161.368,409.08956,
2158.457,407.61127,
2155.546,417.85962,
2152.636,433.91752,
2149.725,454.35485,
2146.815,457.375,
2143.904,478.78762,
2140.993,499.36454,
2138.083,476.95245,
2135.172,486.94637,
2132.262,484.00792,
2129.351,492.66124,
2126.441,512.92845,
2123.530,512.10562,
2120.619,484.52195,
2117.709,458.79287,
2114.798,445.82875,
2111.888,411.8759,
2108.977,380.93128,
2106.067,381.95878,
2103.156,382.61533,
2100.245,370.37625,
2097.335,370.56872,
2094.424,357.61435,
2091.514,354.7997,
2088.603,346.00174,
2085.692,330.96243,
2082.782,340.7524,
2079.871,333.58854,
2076.961,370.59815,
2074.050,361.71439,
2071.140,364.51324,
2068.229,344.10287,
2065.318,342.99225,
2062.408,345.82205,
2059.497,337.35117,
2056.587,324.40996,
2053.676,345.24027,
2050.766,323.60744,
2047.855,349.46044,
2044.944,351.84295,
2042.034,346.71602,
2039.123,340.3548,
2036.213,341.02834,
2033.302,351.98358,
2030.391,351.9345,
2027.481,361.76512,
2024.570,354.57531,
2021.660,378.71938,
2018.749,369.9951,
2015.839,358.89534,
2012.928,348.6854,
2010.017,353.51724,
2007.107,361.67592,
2004.196,349.30356,
2001.286,366.31489,
1998.375,365.45767,
1995.465,355.44196,
1992.554,350.86915,
1989.643,346.51325,
1986.733,363.05395,
1983.822,360.19627,
1980.912,376.46404,
1978.001,361.46033,
1975.090,350.517,
1972.180,367.09974,
1969.269,367.73422,
1966.359,364.94246,
1963.448,361.10552,
1960.538,364.62104,
1957.627,360.91679,
1954.716,352.60481,
1951.806,373.97758,
1948.895,362.93173,
1945.985,343.25572,
1943.074,357.81412,
1940.164,358.15389,
1937.253,357.50117,
1934.342,361.95628,
1931.432,374.83872,
1928.521,383.86896,
1925.611,367.91416,
1922.700,356.41782,
1919.790,359.68131,
1916.879,354.7935,
1913.968,373.35164,
1911.058,377.45908,
1908.147,352.89911,
1905.237,372.94855,
1902.326,381.30983,
1899.415,362.07866,
1896.505,376.17041,
1893.594,399.46949,
1890.684,385.66263,
1887.773,389.19372,
1884.863,389.99687,
1881.952,391.25745,
1879.041,360.84592,
1876.131,347.11748,
1873.220,352.47679,
1870.310,382.15073,
1867.399,389.29503,
1864.489,412.77832,
1861.578,371.88061,
1858.667,359.72229,
1855.757,377.55996,
1852.846,395.63141,
1849.936,394.53817,
1847.025,388.66696,
1844.114,394.35146,
1841.204,375.29458,
1838.293,382.33675,
1835.383,401.5495,
1832.472,386.51413,
1829.562,393.06745,
1826.651,413.68299,
1823.740,388.07226,
1820.830,397.98149,
1817.919,406.00375,
1815.009,399.52513,
1812.098,408.24901,
1809.188,440.32842,
1806.277,389.57012,
1803.366,399.82418,
1800.456,426.26509,
1797.545,426.12668,
1794.635,441.69797,
1791.724,430.375,
1788.813,431.37629,
1785.903,426.9332,
1782.992,399.375,
1780.082,404.1952,
1777.171,411.37286,
1774.261,404.47002,
1771.350,433.28601,
1768.439,461.18166,
1765.529,450.19447,
1762.618,452.09436,
1759.708,441.79888,
1756.797,450.74621,
1753.887,456.86188,
1750.976,443.35079,
1748.065,459.10925,
1745.155,433.13657,
1742.244,419.64491,
1739.334,429.85265,
1736.423,448.62544,
1733.512,440.82211,
1730.602,466.0437,
1727.691,480.2133,
1724.781,460.92401,
1721.870,459.39883,
1718.960,439.8192,
1716.049,473.12886,
1713.138,469.26005,
1710.228,452.57995,
1707.317,511.41043,
1704.407,467.26796,
1701.496,478.69441,
1698.586,498.85469,
1695.675,512.53921,
1692.764,493.49384,
1689.854,503.85532,
1686.943,508.2401,
1684.033,492.77238,
1681.122,534.64433,
1678.211,522.49873,
1675.301,511.40892,
1672.390,540.40491,
1669.480,550.16643,
1666.569,524.73049,
1663.659,552.65265,
1660.748,569.29787,
1657.837,565.74679,
1654.927,582.07042,
1652.016,568.96192,
1649.106,553.74594,
1646.195,608.42295,
1643.285,610.0332,
1640.374,596.73388,
1637.463,660.30294,
1634.553,656.09422,
1631.642,637.53787,
1628.732,652.58239,
1625.821,687.38481,
1622.911,702.29047,
1620.000,799.14033,
1617.089,796.4546,
1614.179,828.44437,
1611.268,884.25586,
1608.358,860.63922,
1605.447,939.51851,
1602.536,962.08086,
1599.626,959.69527,
1596.715,963.0054,
1593.805,937.43937,
1590.894,945.82371,
1587.984,940.44626,
1585.073,970.0044,
1582.162,946.98887,
1579.252,928.28218,
1576.341,890.12821,
1573.431,873.54326,
1570.520,846.15056,
1567.610,865.94405,
1564.699,887.70051,
1561.788,873.3611,
1558.878,864.00947,
1555.967,870.64231,
1553.057,838.65122,
1550.146,822.06226,
1547.235,842.08479,
1544.325,802.9116,
1541.414,764.99517,
1538.504,790.52372,
1535.593,772.47419,
1532.683,761.99199,
1529.772,778.38159,
1526.861,728.85625,
1523.951,724.83816,
1521.040,770.40271,
1518.130,754.61455,
1515.219,723.49439,
1512.309,747.84348,
1509.398,746.34478,
1506.487,704.18593,
1503.577,711.64023,
1500.666,706.36768,
1497.756,703.1044,
1494.845,757.65351,
1491.934,692.44744,
1489.024,714.58478,
1486.113,717.22943,
1483.203,747.5727,
1480.292,686.88813,
1477.382,702.04719,
1474.471,689.19053,
1471.560,702.96798,
1468.650,683.72733,
1465.739,680.98235,
1462.829,711.44133,
1459.918,687.49067,
1457.008,675.19065,
1454.097,693.98853,
1451.186,686.13709,
1448.276,667.7818,
1445.365,660.05509,
1442.455,693.95422,
1439.544,723.48485,
1436.633,678.18037,
1433.723,667.97095,
1430.812,731.45922,
1427.902,683.00639,
1424.991,709.54374,
1422.081,678.2633,
1419.170,692.65621,
1416.259,686.46431,
1413.349,662.47301,
1410.438,673.56927,
1407.528,698.11228,
1404.617,678.60572,
1401.707,647.24625,
1398.796,657.67215,
1395.885,687.81601,
1392.975,687.39538,
1390.064,679.14737,
1387.154,705.73937,
1384.243,710.03196,
1381.332,755.93234,
1378.422,751.94025,
1375.511,743.50923,
1372.601,725.86516,
1369.690,741.51945,
1366.780,728.5343,
1363.869,765.05771,
1360.958,766.51046,
1358.048,779.5476,
1355.137,790.74658,
1352.227,808.96336,
1349.316,834.15266,
1346.406,838.24881,
1343.495,834.65894,
1340.584,810.73177,
1337.674,840.73504,
1334.763,885.05743,
1331.853,876.71235,
1328.942,891.49589,
1326.032,872.98448,
1323.121,903.94129,
1320.210,934.35486,
1317.300,952.22848,
1314.389,945.01363,
1311.479,958.15151,
1308.568,996.76287,
1305.657,1011.1513,
1302.747,1032.8779,
1299.836,1073.5691,
1296.926,1096.7596,
1294.015,1105.0335,
1291.105,1100.9723,
1288.194,1141.1109,
1285.283,1179.2991,
1282.373,1167.5938,
1279.462,1165.9042,
1276.552,1194.8869,
1273.641,1236.7349,
1270.731,1263.0825,
1267.820,1261.1774,
1264.909,1297.7811,
1261.999,1263.9755,
1259.088,1253.0301,
1256.178,1207.8393,
1253.267,1184.2639,
1250.356,1141.4488,
1247.446,1160.9255,
1244.535,1155.1653,
1241.625,1107.0343,
1238.714,1074.4114,
1235.804,1055.6517,
1232.893,1065.3781,
1229.982,1051.007,
1227.072,1040.1433,
1224.161,1000.7118,
1221.251,995.60853,
1218.340,978.88408,
1215.430,972.12768,
1212.519,972.56396,
1209.608,957.2631,
1206.698,934.14098,
1203.787,937.30968,
1200.877,945.32821,
1197.966,992.98365,
1195.055,1010.7335,
1192.145,1014.8777,
1189.234,1038.7315,
1186.324,1060.1031,
1183.413,1060.7506,
1180.503,1057.4338,
1177.592,1065.981,
1174.681,1054.6593,
1171.771,1009.2404,
1168.860,1046.7502,
1165.950,1032.6366,
1163.039,1017.2006,
1160.129,1006.4764,
1157.218,1015.3549,
1154.307,1014.534,
1151.397,986.50753,
1148.486,979.27414,
1145.576,985.03031,
1142.665,1000.1248,
1139.754,994.05234,
1136.844,976.96834,
1133.933,992.66223,
1131.023,1006.9587,
1128.112,1003.5895,
1125.202,1008.1044,
1122.291,1033.0017,
1119.380,1037.1411,
1116.470,1013.3129,
1113.559,1038.212,
1110.649,1033.9329,
1107.738,1040.2346,
1104.828,1054.7038,
1101.917,1044.8773,
1099.006,1008.272,
1096.096,1000.2564,
1093.185,1030.9865,
1090.275,1025.2823,
1087.364,1025.4334,
1084.453,1025.8125,
1081.543,1028.0043,
1078.632,1031.0616,
1075.722,1028.4944,
1072.811,1021.0576,
1069.901,1030.6634,
1066.990,1047.5416,
1064.079,1069.7489,
1061.169,1084.4503,
1058.258,1080.4818,
1055.348,1080.7213,
1052.437,1102.5036,
1049.527,1062.7442,
1046.616,1072.3014,
1043.705,1087.2488,
1040.795,1081.1589,
1037.884,1089.5357,
1034.974,1099.6508,
1032.063,1093.375,
1029.153,1093.1673,
1026.242,1091.4374,
1023.331,1124.7062,
1020.421,1120.2214,
1017.510,1121.538,
1014.600,1145.4069,
1011.689,1163.108,
1008.778,1150.1454,
1005.868,1195.3673,
1002.957,1194.5069,
1000.047,1219.855,
997.136,1231.7243,
994.226,1232.9289,
991.315,1228.1126,
988.404,1219.9963,
985.494,1228.4325,
982.583,1231.0022,
979.673,1229.9117,
976.762,1202.3683,
973.852,1192.6572,
970.941,1205.8569,
968.030,1205.9183,
965.120,1186.511,
962.209,1218.9076,
959.299,1220.8338,
956.388,1206.4958,
953.477,1200.4853,
950.567,1227.2889,
947.656,1278.3534,
944.746,1217.1854,
941.835,1263.7736,
938.925,1282.6136,
936.014,1253.4963,
933.103,1224.9059,
930.193,1234.3714,
927.282,1245.1376,
924.372,1222.3062,
921.461,1206.1198,
918.551,1186.8517,
915.640,1175.1002,
912.729,1173.1066,
909.819,1175.0439,
906.908,1195.2621,
903.998,1173.3094,
901.087,1166.7385,
898.176,1180.6909,
895.266,1196.0576,
892.355,1194.5897,
889.445,1190.3934,
886.534,1209.5771,
883.624,1222.7946,
880.713,1225.8439,
877.802,1201.7945,
874.892,1163.4196,
871.981,1180.5859,
869.071,1147.1694,
866.160,1144.8248,
863.250,1178.8756,
860.339,1223.7679,
857.428,1247.5488,
854.518,1229.04,
851.607,1148.3293,
848.697,1158.4486,
845.786,1163.1474,
842.875,1168.5606,
839.965,1190.2731,
837.054,1194.6727,
834.144,1221.1928,
831.233,1259.0393,
828.323,1272.4076,
825.412,1250.0572,
822.501,1211.0133,
819.591,1220.1037,
816.680,1217.9711,
813.770,1211.11,
810.859,1222.7172,
807.949,1244.4067,
805.038,1248.1936,
802.127,1213.6222,
799.217,1182.0501,
796.306,1182.0237,
793.396,1191.7109,
790.485,1192.4269,
787.574,1181.0325,
784.664,1172.0113,
781.753,1200.5693,
778.843,1213.4147,
775.932,1210.4491,
773.022,1209.8966,
770.111,1219.7075,
767.200,1196.7743,
764.290,1192.8423,
761.379,1204.8278,
758.469,1222.9325,
755.558,1235.4754,
752.648,1205.3351,
749.737,1205.9029,
746.826,1228.4901,
743.916,1247.0243,
741.005,1241.7681,
738.095,1271.8075,
735.184,1280.3804,
732.274,1218.2155,
729.363,1156.6765,
726.452,1159.3151,
723.542,1214.3538,
720.631,1221.1977,
717.721,1216.6465,
714.810,1201.716,
711.899,1190.0186,
708.989,1214.2263,
706.078,1256.0428,
703.168,1223.8695,
700.257,1212.8779,
697.347,1226.5934,
694.436,1192.6189,
691.525,1238.4357,
688.615,1215.0427,
685.704,1187.1728,
682.794,1193.2259,
679.883,1247.1135,
676.973,1219.0655,
674.062,1226.7747,
671.151,1240.5116,
668.241,1249.328,
665.330,1250.4086,
662.420,1208.8745,
659.509,1222.5976,
656.598,1233.644,
653.688,1237.1261,
650.777,1255.6459,
647.867,1234.1451,
644.956,1220.7069,
642.046,1178.4758,
639.135,1138.3227,
636.224,1183.4387,
633.314,1196.1417,
630.403,1236.6213,
627.493,1255.8457,
624.582,1252.0847,
621.672,1282.1805,
618.761,1243.0982,
615.850,1236.4359,
612.940,1250.5964,
610.029,1261.5358,
607.119,1220.475,
604.208,1232.7053,
601.297,1244.3602,
598.387,1253.9611,
595.476,1266.1178,
592.566,1273.9885,
589.655,1266.3045,
586.745,1243.1483,
583.834,1239.3571,
580.923,1310.2755,
578.013,1293.7961,
575.102,1258.4012,
572.192,1237.1614,
569.281,1246.9832,
566.371,1283.7665,
563.460,1296.5461,
560.549,1291.1167,
557.639,1271.9753,
554.728,1248.4937,
551.818,1282.0473,
548.907,1286.9373,
545.996,1300.149,
543.086,1326.7303,
540.175,1342.3032,
537.265,1295.5726,
534.354,1269.3479,
531.444,1258.0311,
528.533,1251.196,
525.622,1276.8023,
522.712,1285.4088,
519.801,1291.1938,
516.891,1306.6088,
513.980,1352.2923,
511.070,1303.5489,
508.159,1304.2982,
505.248,1336.8859,
502.338,1359.5557,
499.427,1365.7304,
496.517,1373.5972,
493.606,1391.1617,
490.695,1413.3794,
487.785,1391.8253,
484.874,1376.743,
481.964,1384.4945,
479.053,1397.2045,
476.143,1367.254,
473.232,1380.4825,
470.321,1390.2676,
467.411,1386.7772,
464.500,1364.7047,
461.590,1377.7223,
458.679,1402.8365,
455.769,1430.4571,
452.858,1450.148,
449.947,1428.7579,
447.037,1434.0832,
444.126,1441.8538,
441.216,1443.7136,
438.305,1439.9039,
435.395,1450.5208,
432.484,1454.2912,
429.573,1448.3575,
426.663,1435.4351,
423.752,1385.5557,
420.842,1336.0605,
417.931,1281.4745,
415.020,1207.9138,
412.110,1279.9995,
409.199,1370.4556,
406.289,1433.4232,
403.378,1424.4057,
400.468,1433.4777,
397.557,1422.493,
394.646,1447.0834,
391.736,1547.5158,
388.825,1489.44,
385.915,1468.6496,
383.004,1484.5064,
380.094,1531.3001,
377.183,1510.2308,
374.272,1497.8616,
371.362,1494.7296,
368.451,1500.0559,
365.541,1494.8021,
362.630,1512.4934,
359.719,1528.079,
356.809,1527.0578,
353.898,1521.8162,
350.988,1530.1398,
348.077,1534.3093,
345.167,1524.7156,
342.256,1531.4392,
339.345,1533.375,
336.435,1524.7696,
333.524,1503.7843,
330.614,1548.4936,
327.703,1554.6739,
324.793,1550.4685,
321.882,1559.3155,
318.971,1534.7819,
316.061,1557.1388,
313.150,1590.9917,
310.240,1596.1865,
307.329,1599.9482,
304.418,1618.7012,
301.508,1625.3934,
298.597,1572.8238,
295.687,1622.5542,
292.776,1640.875,
289.866,1642.5189,
286.955,1700.1394,
284.044,1696.3575,
281.134,1691.967,
278.223,1696.8061,
275.313,1699.7535,
272.402,1702.6986,
269.492,1705.3256,
266.581,1708.5837,
263.670,1725.4928,
260.760,1723.584,
257.849,1719.6846,
254.939,1726.2896,
252.028,1738.6804,
249.117,1749.7706,
246.207,1760.2162,
243.296,1771.1967,
240.386,1744.2964,
237.475,1742.8215,
234.565,1764.7201,
231.654,1766.9113,
228.743,1710.9889,
225.833,1683.4002,
222.922,1716.632,
220.012,1743.5886,
217.101,1729.3114,
214.191,1704.2822,
211.280,1700.6449,
208.369,1703.0663,
205.459,1708.7668,
202.548,1711.4892,
199.638,1688.9941,
196.727,1735.6582,
193.816,1760.13,
190.906,1730.2638,
187.995,1755.6047,
185.085,1738.3679,
182.174,1720.7362,
179.264,1762.6567,
176.353,1773.7828,
173.442,1763.9604,
170.532,1739.5349,
167.621,1732.3252,
164.711,1688.3296,
161.800,1639.5614,
158.890,1607.8933,
155.979,1489.2893,
153.068,1371.6051,
150.158,1246.4717,
147.247,1064.8298,
144.337,857.64085,
141.426,669.02923,
138.516,522.06653,
135.605,364.62767,
132.694,246.97429,
129.784,162.94668,
126.873,104.30603,
123.963,73.026615,
121.052,51.292769,
118.141,33.445219,
115.231,29.111578,
112.320,24.409549,
109.410,20.511355,
106.499,21.22351,
103.589,17.453219,
100.678,14.918243,
97.767,16.340119,
94.857,15.682011,
91.946,11.343891,
89.036,5.8265916,
86.125,8.6634127,
83.215,2.4730354,
80.304,-0.5123751,
77.393,8.6938341,
74.483,-0.45202437,
71.572,-2.0014789,
68.662,4.236465,
65.751,2.8235628,
62.840,6.2286159,
59.930,7.9402794,
57.019,-1.2257864,
54.109,2.1522868,
51.198,4.4701722,
48.288,2.375,
45.377,2.375,
42.466,2.375,
39.556,2.375,
36.645,2.375,
33.735,0.8172546,
30.824,-0.84588697,
27.914,-1.5470622,
25.003,0.24291243,
22.092,3.3124273,
19.182,7.6495944,
16.271,16.043476,
13.361,44.662479,
10.450,56.178377,
7.539,-78.596489,
4.629,-232.37974,
1.718,-422.95113,
-1.192,-681.59175,
-4.103,-517.13242,
-7.013,-270.75225,
-9.924,1.375,
