,PLB286~1,
Raman shift [1/cm],Intensity,
3014.167,-1.625,
3011.256,1.2250752,
3008.346,242.81095,
3005.435,286.91564,
3002.525,298.96001,
2999.614,307.89967,
2996.704,325.45541,
2993.793,322.6227,
2990.882,327.76429,
2987.972,329.39518,
2985.061,341.35531,
2982.151,345.21029,
2979.240,365.27423,
2976.329,379.14275,
2973.419,406.03636,
2970.508,420.77496,
2967.598,430.41918,
2964.687,419.0163,
2961.777,440.05889,
2958.866,464.7212,
2955.955,458.75773,
2953.045,477.12669,
2950.134,493.61991,
2947.224,512.26112,
2944.313,519.16133,
2941.403,542.80383,
2938.492,544.375,
2935.581,560.57374,
2932.671,540.1776,
2929.760,553.375,
2926.850,567.59116,
2923.939,576.81425,
2921.028,597.8693,
2918.118,602.2755,
2915.207,602.2547,
2912.297,604.35384,
2909.386,607.96624,
2906.476,622.11093,
2903.565,600.9076,
2900.654,587.42254,
2897.744,612.50072,
2894.833,609.59173,
2891.923,598.6731,
2889.012,609.87211,
2886.102,604.27366,
2883.191,636.33535,
2880.280,631.26017,
2877.370,656.85751,
2874.459,670.43784,
2871.549,655.71704,
2868.638,650.42036,
2865.727,641.03269,
2862.817,646.93248,
2859.906,652.34936,
2856.996,655.82292,
2854.085,639.20688,
2851.175,642.82978,
2848.264,651.522,
2845.353,641.52597,
2842.443,638.79171,
2839.532,617.38997,
2836.622,602.43685,
2833.711,602.59006,
2830.801,627.05074,
2827.890,624.50441,
2824.979,638.67105,
2822.069,621.47735,
2819.158,628.85478,
2816.248,656.25921,
2813.337,650.69452,
2810.427,658.27995,
2807.516,638.70625,
2804.605,630.17067,
2801.695,631.63816,
2798.784,624.11423,
2795.874,633.52541,
2792.963,625.73213,
2790.052,647.37028,
2787.142,616.95392,
2784.231,622.18089,
2781.321,626.63221,
2778.410,642.05521,
2775.500,622.82363,
2772.589,635.83677,
2769.678,635.66171,
2766.768,637.86821,
2763.857,640.48097,
2760.947,642.85294,
2758.036,668.17772,
2755.126,661.32586,
2752.215,663.77953,
2749.304,664.9919,
2746.394,656.31654,
2743.483,660.62497,
2740.573,679.79541,
2737.662,661.15163,
2734.751,661.49149,
2731.841,682.88966,
2728.930,681.90472,
2726.020,687.27836,
2723.109,674.43725,
2720.199,704.2969,
2717.288,692.76186,
2714.377,689.85828,
2711.467,699.30907,
2708.556,708.07732,
2705.646,709.82573,
2702.735,713.20232,
2699.825,701.50589,
2696.914,726.13777,
2694.003,697.40264,
2691.093,714.64334,
2688.182,707.5187,
2685.272,716.45466,
2682.361,720.92194,
2679.450,720.71247,
2676.540,724.51727,
2673.629,727.7248,
2670.719,715.87869,
2667.808,720.03455,
2664.898,714.56955,
2661.987,740.70855,
2659.076,747.62931,
2656.166,748.11534,
2653.255,735.1131,
2650.345,743.15903,
2647.434,750.40387,
2644.524,766.7803,
2641.613,778.11793,
2638.702,785.28031,
2635.792,758.59235,
2632.881,773.4166,
2629.971,775.50251,
2627.060,770.21031,
2624.149,757.59062,
2621.239,769.6413,
2618.328,786.14577,
2615.418,770.98411,
2612.507,797.6161,
2609.597,782.02769,
2606.686,777.3228,
2603.775,787.29564,
2600.865,809.2522,
2597.954,791.52494,
2595.044,815.03576,
2592.133,816.375,
2589.223,820.8329,
2586.312,823.52074,
2583.401,831.49548,
2580.491,826.04813,
2577.580,834.375,
2574.670,839.35627,
2571.759,843.01627,
2568.848,828.78933,
2565.938,818.94625,
2563.027,846.30225,
2560.117,856.45912,
2557.206,861.18312,
2554.296,842.60612,
2551.385,847.68094,
2548.474,853.74563,
2545.564,891.33037,
2542.653,883.62667,
2539.743,893.51055,
2536.832,885.39556,
2533.922,882.61154,
2531.011,893.25035,
2528.100,879.17638,
2525.190,902.46393,
2522.279,895.93778,
2519.369,904.05445,
2516.458,889.14766,
2513.548,909.26555,
2510.637,917.68241,
2507.726,922.375,
2504.816,915.06158,
2501.905,913.43293,
2498.995,914.95697,
2496.084,906.53527,
2493.173,921.71772,
2490.263,929.39759,
2487.352,917.91593,
2484.442,910.50775,
2481.531,925.22068,
2478.621,932.91055,
2475.710,944.36733,
2472.799,940.66203,
2469.889,944.49414,
2466.978,953.04514,
2464.068,954.24803,
2461.157,947.37988,
2458.247,958.13959,
2455.336,973.39265,
2452.425,975.00234,
2449.515,965.50808,
2446.604,1002.6769,
2443.694,974.67677,
2440.783,976.32996,
2437.872,983.61481,
2434.962,1007.1815,
2432.051,1000.3939,
2429.141,1004.0046,
2426.230,1002.9839,
2423.320,1027.5894,
2420.409,1025.6442,
2417.498,1025.1868,
2414.588,1015.8351,
2411.677,1034.0841,
2408.767,1012.2756,
2405.856,1033.9584,
2402.946,1034.5421,
2400.035,1046.9712,
2397.124,1057.6905,
2394.214,1044.6994,
2391.303,1040.0159,
2388.393,1048.8122,
2385.482,1072.4938,
2382.571,1075.5395,
2379.661,1071.5379,
2376.750,1068.0055,
2373.840,1070.5906,
2370.929,1066.4183,
2368.019,1074.8442,
2365.108,1081.074,
2362.197,1082.112,
2359.287,1098.56,
2356.376,1101.3732,
2353.466,1090.7226,
2350.555,1099.2398,
2347.645,1100.8478,
2344.734,1101.0708,
2341.823,1114.1263,
2338.913,1122.7959,
2336.002,1139.0161,
2333.092,1155.9382,
2330.181,1163.1653,
2327.270,1141.7501,
2324.360,1158.9717,
2321.449,1158.3138,
2318.539,1153.1823,
2315.628,1173.6676,
2312.718,1179.3089,
2309.807,1159.6046,
2306.896,1178.6426,
2303.986,1177.9788,
2301.075,1176.3962,
2298.165,1175.7884,
2295.254,1190.0303,
2292.344,1190.4332,
2289.433,1170.7186,
2286.522,1194.4239,
2283.612,1191.6033,
2280.701,1197.8189,
2277.791,1225.6956,
2274.880,1225.8851,
2271.969,1211.1404,
2269.059,1241.4295,
2266.148,1253.7523,
2263.238,1241.8808,
2260.327,1258.2371,
2257.417,1254.7144,
2254.506,1261.9164,
2251.595,1282.0877,
2248.685,1303.2615,
2245.774,1296.8587,
2242.864,1278.153,
2239.953,1291.4232,
2237.043,1290.9718,
2234.132,1278.2737,
2231.221,1305.0883,
2228.311,1345.9497,
2225.400,1309.5439,
2222.490,1316.8604,
2219.579,1339.1026,
2216.669,1366.3893,
2213.758,1376.4208,
2210.847,1392.2415,
2207.937,1385.7415,
2205.026,1393.8193,
2202.116,1404.4546,
2199.205,1427.6748,
2196.294,1443.053,
2193.384,1446.4015,
2190.473,1470.9724,
2187.563,1462.4813,
2184.652,1491.4538,
2181.742,1547.627,
2178.831,1605.7214,
2175.920,1660.1018,
2173.010,1732.854,
2170.099,1838.1652,
2167.189,1896.4944,
2164.278,2062.8202,
2161.368,2161.0855,
2158.457,2288.2449,
2155.546,2427.3713,
2152.636,2527.1834,
2149.725,2660.2205,
2146.815,2749.1059,
2143.904,2817.085,
2140.993,2864.6551,
2138.083,2941.7397,
2135.172,2960.2239,
2132.262,2975.8715,
2129.351,2948.699,
2126.441,2857.3262,
2123.530,2804.8149,
2120.619,2648.1098,
2117.709,2481.757,
2114.798,2326.017,
2111.888,2199.8911,
2108.977,2061.9776,
2106.067,1972.0134,
2103.156,1859.3528,
2100.245,1773.3512,
2097.335,1729.7153,
2094.424,1679.2797,
2091.514,1635.3587,
2088.603,1611.6976,
2085.692,1588.1856,
2082.782,1567.2545,
2079.871,1557.3388,
2076.961,1580.6314,
2074.050,1532.6841,
2071.140,1554.1914,
2068.229,1527.7487,
2065.318,1519.2025,
2062.408,1528.822,
2059.497,1534.1786,
2056.587,1477.2132,
2053.676,1492.5726,
2050.766,1517.0663,
2047.855,1478.8624,
2044.944,1464.7003,
2042.034,1485.901,
2039.123,1484.375,
2036.213,1487.4706,
2033.302,1507.6791,
2030.391,1497.5451,
2027.481,1468.7532,
2024.570,1465.9035,
2021.660,1476.7246,
2018.749,1507.6912,
2015.839,1491.8547,
2012.928,1500.4555,
2010.017,1496.4011,
2007.107,1481.8142,
2004.196,1502.768,
2001.286,1506.1418,
1998.375,1458.6279,
1995.465,1481.1991,
1992.554,1464.0811,
1989.643,1457.4787,
1986.733,1490.3048,
1983.822,1476.7354,
1980.912,1498.4434,
1978.001,1455.7312,
1975.090,1452.9384,
1972.180,1484.7526,
1969.269,1480.1652,
1966.359,1459.1317,
1963.448,1447.8783,
1960.538,1471.1548,
1957.627,1459.5422,
1954.716,1458.3463,
1951.806,1468.8975,
1948.895,1404.2879,
1945.985,1422.4812,
1943.074,1443.4968,
1940.164,1444.5961,
1937.253,1436.2099,
1934.342,1431.8964,
1931.432,1410.1289,
1928.521,1407.9605,
1925.611,1391.148,
1922.700,1392.4551,
1919.790,1388.4849,
1916.879,1373.4212,
1913.968,1384.3602,
1911.058,1380.2909,
1908.147,1405.648,
1905.237,1398.9412,
1902.326,1418.6935,
1899.415,1416.7982,
1896.505,1407.7244,
1893.594,1417.7348,
1890.684,1401.6235,
1887.773,1386.3059,
1884.863,1381.17,
1881.952,1396.9973,
1879.041,1413.1834,
1876.131,1402.3449,
1873.220,1401.9901,
1870.310,1369.8863,
1867.399,1390.0071,
1864.489,1392.3486,
1861.578,1415.1608,
1858.667,1402.0546,
1855.757,1390.19,
1852.846,1384.1801,
1849.936,1411.5382,
1847.025,1404.2558,
1844.114,1419.8244,
1841.204,1440.9449,
1838.293,1446.3833,
1835.383,1451.212,
1832.472,1456.4098,
1829.562,1452.4586,
1826.651,1480.7774,
1823.740,1476.1757,
1820.830,1508.7297,
1817.919,1480.4706,
1815.009,1449.1129,
1812.098,1504.6191,
1809.188,1492.6154,
1806.277,1550.0471,
1803.366,1529.1088,
1800.456,1515.0237,
1797.545,1536.5527,
1794.635,1481.8882,
1791.724,1567.2002,
1788.813,1566.5688,
1785.903,1553.4719,
1782.992,1560.2304,
1780.082,1542.4507,
1777.171,1571.368,
1774.261,1564.3554,
1771.350,1587.4812,
1768.439,1578.7589,
1765.529,1580.1009,
1762.618,1573.3075,
1759.708,1579.462,
1756.797,1596.2841,
1753.887,1607.9391,
1750.976,1594.2232,
1748.065,1605.2659,
1745.155,1634.9813,
1742.244,1655.6313,
1739.334,1639.4644,
1736.423,1609.5918,
1733.512,1635.5743,
1730.602,1649.871,
1727.691,1703.3436,
1724.781,1735.1065,
1721.870,1717.6463,
1718.960,1764.1756,
1716.049,1724.1975,
1713.138,1715.23,
1710.228,1711.0235,
1707.317,1754.6036,
1704.407,1807.9901,
1701.496,1778.7362,
1698.586,1804.0185,
1695.675,1768.0109,
1692.764,1838.2726,
1689.854,1867.249,
1686.943,1843.2519,
1684.033,1839.4495,
1681.122,1868.8652,
1678.211,1896.118,
1675.301,1930.2702,
1672.390,1996.6232,
1669.480,2079.3188,
1666.569,2072.6924,
1663.659,2098.7143,
1660.748,2178.758,
1657.837,2148.6653,
1654.927,2207.687,
1652.016,2263.4928,
1649.106,2309.2318,
1646.195,2343.6627,
1643.285,2357.3802,
1640.374,2444.3785,
1637.463,2492.4919,
1634.553,2554.7641,
1631.642,2648.3631,
1628.732,2739.5068,
1625.821,2929.4502,
1622.911,3043.727,
1620.000,3226.0568,
1617.089,3397.9322,
1614.179,3693.8865,
1611.268,3833.3188,
1608.358,4011.8532,
1605.447,4190.0907,
1602.536,4322.4522,
1599.626,4357.1331,
1596.715,4397.4942,
1593.805,4336.9831,
1590.894,4350.5111,
1587.984,4320.4635,
1585.073,4237.9507,
1582.162,4232.7239,
1579.252,4177.9122,
1576.341,4170.9824,
1573.431,4152.7956,
1570.520,4104.5699,
1567.610,4105.5321,
1564.699,4043.6723,
1561.788,3949.3616,
1558.878,3894.43,
1555.967,3817.6299,
1553.057,3734.6169,
1550.146,3659.0551,
1547.235,3577.4263,
1544.325,3518.7537,
1541.414,3500.8349,
1538.504,3433.5807,
1535.593,3356.7414,
1532.683,3331.3495,
1529.772,3273.0945,
1526.861,3185.6143,
1523.951,3162.6383,
1521.040,3147.4705,
1518.130,3045.9768,
1515.219,3006.8557,
1512.309,2969.9876,
1509.398,2935.3826,
1506.487,2942.5721,
1503.577,2919.4969,
1500.666,2878.0999,
1497.756,2818.6968,
1494.845,2796.8542,
1491.934,2760.3435,
1489.024,2750.7186,
1486.113,2774.4826,
1483.203,2695.5517,
1480.292,2654.8286,
1477.382,2642.909,
1474.471,2612.982,
1471.560,2595.667,
1468.650,2552.0619,
1465.739,2526.3296,
1462.829,2533.1177,
1459.918,2560.8172,
1457.008,2567.7287,
1454.097,2517.7051,
1451.186,2501.1487,
1448.276,2554.3372,
1445.365,2557.2297,
1442.455,2520.542,
1439.544,2506.4132,
1436.633,2508.3154,
1433.723,2460.3478,
1430.812,2517.1689,
1427.902,2438.5858,
1424.991,2405.4141,
1422.081,2411.7148,
1419.170,2372.6282,
1416.259,2362.3247,
1413.349,2357.5988,
1410.438,2319.2867,
1407.528,2331.0559,
1404.617,2330.5225,
1401.707,2346.402,
1398.796,2395.8644,
1395.885,2409.9064,
1392.975,2390.4375,
1390.064,2404.736,
1387.154,2420.1217,
1384.243,2372.5128,
1381.332,2370.5883,
1378.422,2395.1377,
1375.511,2526.287,
1372.601,2644.4929,
1369.690,2596.0839,
1366.780,2701.2201,
1363.869,2780.7754,
1360.958,2890.4848,
1358.048,2970.0071,
1355.137,3001.3116,
1352.227,3023.1006,
1349.316,3091.4781,
1346.406,3197.3234,
1343.495,3256.8454,
1340.584,3308.9803,
1337.674,3434.9126,
1334.763,3466.1393,
1331.853,3512.5008,
1328.942,3562.4061,
1326.032,3598.553,
1323.121,3684.6582,
1320.210,3767.6464,
1317.300,3814.8527,
1314.389,3855.6116,
1311.479,3920.6951,
1308.568,4021.6618,
1305.657,4109.4083,
1302.747,4139.7583,
1299.836,4289.9402,
1296.926,4371.1434,
1294.015,4495.2521,
1291.105,4669.439,
1288.194,4777.0418,
1285.283,4882.1474,
1282.373,4981.8201,
1279.462,5080.766,
1276.552,5187.517,
1273.641,5274.633,
1270.731,5302.9063,
1267.820,5292.3607,
1264.909,5314.1555,
1261.999,5332.2779,
1259.088,5274.8142,
1256.178,5211.4231,
1253.267,5099.338,
1250.356,4990.4908,
1247.446,4823.1216,
1244.535,4651.594,
1241.625,4475.1012,
1238.714,4286.4253,
1235.804,4163.3363,
1232.893,4089.6447,
1229.982,3997.3086,
1227.072,3906.7774,
1224.161,3853.3068,
1221.251,3808.6386,
1218.340,3683.0079,
1215.430,3610.9148,
1212.519,3578.8315,
1209.608,3559.9431,
1206.698,3597.2904,
1203.787,3648.6765,
1200.877,3615.4397,
1197.966,3664.8934,
1195.055,3703.2114,
1192.145,3856.6383,
1189.234,3963.7663,
1186.324,4041.1976,
1183.413,4090.4156,
1180.503,4096.2809,
1177.592,4065.9706,
1174.681,4008.8716,
1171.771,3942.6126,
1168.860,3909.5683,
1165.950,3867.6731,
1163.039,3789.9315,
1160.129,3756.8359,
1157.218,3736.107,
1154.307,3733.8132,
1151.397,3735.2217,
1148.486,3652.5277,
1145.576,3635.8353,
1142.665,3623.4046,
1139.754,3562.9801,
1136.844,3503.155,
1133.933,3489.8266,
1131.023,3471.7144,
1128.112,3435.6623,
1125.202,3402.3654,
1122.291,3361.5084,
1119.380,3383.6608,
1116.470,3412.7843,
1113.559,3438.026,
1110.649,3425.3845,
1107.738,3413.2317,
1104.828,3414.2877,
1101.917,3433.1685,
1099.006,3458.0351,
1096.096,3409.9125,
1093.185,3418.6926,
1090.275,3444.4624,
1087.364,3437.3387,
1084.453,3410.0014,
1081.543,3407.8363,
1078.632,3437.9706,
1075.722,3455.6645,
1072.811,3423.1196,
1069.901,3433.5988,
1066.990,3476.4082,
1064.079,3511.554,
1061.169,3519.5089,
1058.258,3532.8909,
1055.348,3571.2488,
1052.437,3617.2464,
1049.527,3657.8785,
1046.616,3670.9109,
1043.705,3780.2821,
1040.795,3775.3417,
1037.884,3769.0414,
1034.974,3788.2165,
1032.063,3790.1752,
1029.153,3775.672,
1026.242,3819.7848,
1023.331,3865.5388,
1020.421,3868.7982,
1017.510,3908.3957,
1014.600,3941.375,
1011.689,3959.0494,
1008.778,4025.8065,
1005.868,4157.2939,
1002.957,4259.6761,
1000.047,4406.4151,
997.136,4565.7922,
994.226,4630.4367,
991.315,4610.4171,
988.404,4589.2152,
985.494,4524.7447,
982.583,4451.9374,
979.673,4456.7396,
976.762,4450.0459,
973.852,4447.1211,
970.941,4459.1171,
968.030,4472.0282,
965.120,4481.4752,
962.209,4505.3464,
959.299,4518.5822,
956.388,4526.8547,
953.477,4545.583,
950.567,4550.121,
947.656,4508.1711,
944.746,4559.994,
941.835,4577.7615,
938.925,4584.6653,
936.014,4558.5546,
933.103,4520.4291,
930.193,4483.9949,
927.282,4414.5712,
924.372,4344.3859,
921.461,4319.9106,
918.551,4257.4435,
915.640,4196.4026,
912.729,4155.6888,
909.819,4114.9277,
906.908,4088.8125,
903.998,4088.1704,
901.087,4156.4812,
898.176,4195.8522,
895.266,4211.6102,
892.355,4255.9974,
889.445,4318.1032,
886.534,4355.9442,
883.624,4394.3253,
880.713,4439.486,
877.802,4495.1242,
874.892,4546.1104,
871.981,4548.2308,
869.071,4499.7768,
866.160,4498.2746,
863.250,4475.1649,
860.339,4452.4489,
857.428,4439.4529,
854.518,4376.8564,
851.607,4393.4978,
848.697,4355.7938,
845.786,4321.287,
842.875,4328.047,
839.965,4359.7534,
837.054,4320.0959,
834.144,4295.2333,
831.233,4269.7098,
828.323,4223.2713,
825.412,4197.6437,
822.501,4210.6513,
819.591,4151.1506,
816.680,4079.6633,
813.770,4041.0739,
810.859,4008.0692,
807.949,3954.4358,
805.038,3881.8595,
802.127,3910.669,
799.217,3866.4154,
796.306,3857.1859,
793.396,3867.0468,
790.485,3873.7433,
787.574,3870.8145,
784.664,3856.0525,
781.753,3839.2843,
778.843,3865.2105,
775.932,3911.1032,
773.022,3935.9802,
770.111,3926.9869,
767.200,3904.2969,
764.290,3925.1131,
761.379,3914.2595,
758.469,3857.7951,
755.558,3824.9617,
752.648,3811.1134,
749.737,3804.4583,
746.826,3793.983,
743.916,3774.8814,
741.005,3731.4838,
738.095,3564.2372,
735.184,3442.8365,
732.274,3343.4745,
729.363,3393.934,
726.452,3613.1389,
723.542,3694.8877,
720.631,3763.5963,
717.721,3778.7922,
714.810,3760.9092,
711.899,3763.5236,
708.989,3875.6862,
706.078,3793.0395,
703.168,3735.3345,
700.257,3716.3259,
697.347,3729.4613,
694.436,3748.8655,
691.525,3656.4279,
688.615,3658.3869,
685.704,3651.0854,
682.794,3642.6301,
679.883,3701.1135,
676.973,3673.0655,
674.062,3662.2703,
671.151,3662.005,
668.241,3664.8985,
665.330,3662.1649,
662.420,3636.6055,
659.509,3659.312,
656.598,3671.4803,
653.688,3681.5578,
650.777,3732.618,
647.867,3739.785,
644.956,3733.326,
642.046,3681.94,
639.135,3630.4188,
636.224,3683.5103,
633.314,3710.5042,
630.403,3712.6453,
627.493,3730.4991,
624.582,3773.2036,
621.672,3812.8033,
618.761,3789.297,
615.850,3822.1481,
612.940,3846.4951,
610.029,3835.8196,
607.119,3874.5115,
604.208,3882.6351,
601.297,3884.375,
598.387,3878.6424,
595.476,3864.0036,
592.566,3860.0683,
589.655,3889.8258,
586.745,3896.3937,
583.834,3869.9804,
580.923,3822.4366,
578.013,3832.6381,
575.102,3834.2278,
572.192,3830.1594,
569.281,3833.0922,
566.371,3881.6149,
563.460,3835.5813,
560.549,3852.3827,
557.639,3902.849,
554.728,3933.0502,
551.818,3959.581,
548.907,3933.0761,
545.996,3934.536,
543.086,3973.2335,
540.175,3991.1424,
537.265,4024.9676,
534.354,4055.9376,
531.444,4072.9817,
528.533,4071.196,
525.622,4096.8023,
522.712,4184.8935,
519.801,4263.5791,
516.891,4308.1311,
513.980,4326.7142,
511.070,4376.2706,
508.159,4451.7727,
505.248,4530.1507,
502.338,4585.6568,
499.427,4663.6118,
496.517,4732.4558,
493.606,4810.0905,
490.695,4891.4448,
487.785,4899.1428,
484.874,4850.6158,
481.964,4804.2722,
479.053,4783.81,
476.143,4810.6887,
473.232,4815.2526,
470.321,4795.9388,
467.411,4770.8294,
464.500,4760.8986,
461.590,4781.5736,
458.679,4793.4282,
455.769,4836.8128,
452.858,4916.1597,
449.947,4875.6713,
447.037,4931.6916,
444.126,4986.3144,
441.216,5007.5813,
438.305,5003.0097,
435.395,5024.011,
432.484,5037.8755,
429.573,5049.0076,
426.663,5081.6936,
423.752,5168.0653,
420.842,5242.7366,
417.931,5274.8005,
415.020,5227.0239,
412.110,5296.3415,
409.199,5329.71,
406.289,5349.92,
403.378,5388.2367,
400.468,5347.413,
397.557,5352.8844,
394.646,5352.8675,
391.736,5305.3991,
388.825,5306.1534,
385.915,5274.9756,
383.004,5275.6438,
380.094,5348.64,
377.183,5393.0361,
374.272,5493.8482,
371.362,5583.68,
368.451,5619.0984,
365.541,5598.0834,
362.630,5592.375,
359.719,5619.9,
356.809,5684.8313,
353.898,5675.8457,
350.988,5700.4993,
348.077,5707.9833,
345.167,5672.1535,
342.256,5707.2658,
339.345,5727.4722,
336.435,5730.268,
333.524,5715.1501,
330.614,5739.7402,
327.703,5762.2638,
324.793,5787.7178,
321.882,5820.3732,
318.971,5819.6298,
316.061,5826.6997,
313.150,5834.375,
310.240,5834.375,
307.329,5927.9924,
304.418,5923.8833,
301.508,5878.5104,
298.597,5894.0591,
295.687,5912.306,
292.776,5956.6252,
289.866,6049.7228,
286.955,6250.6562,
284.044,6428.0123,
281.134,6562.1421,
278.223,6664.2845,
275.313,6807.2344,
272.402,6872.2292,
269.492,6948.3883,
266.581,7065.2066,
263.670,7160.78,
260.760,7248.4491,
257.849,7333.1438,
254.939,7418.2741,
252.028,7462.0818,
249.117,7496.1913,
246.207,7519.2691,
243.296,7526.5895,
240.386,7575.0434,
237.475,7502.0231,
234.565,7348.0561,
231.654,7371.4284,
228.743,7334.3731,
225.833,7252.7622,
222.922,7138.7,
220.012,7167.1136,
217.101,7157.7278,
214.191,7125.6985,
211.280,7083.5057,
208.369,7045.3887,
205.459,7056.7218,
202.548,7097.4948,
199.638,7086.61,
196.727,7151.216,
193.816,7214.8241,
190.906,7245.6831,
187.995,7168.9365,
185.085,7234.109,
182.174,7338.7256,
179.264,7347.3988,
176.353,7322.7438,
173.442,7301.849,
170.532,7290.711,
167.621,7293.5949,
164.711,7200.2984,
161.800,7026.1625,
158.890,6764.9013,
155.979,6319.6371,
153.068,5799.9112,
150.158,5201.4182,
147.247,4466.953,
144.337,3744.6204,
141.426,2996.2833,
138.516,2200.534,
135.605,1589.624,
132.694,1091.324,
129.784,705.10425,
126.873,467.68114,
123.963,308.40632,
121.052,202.56173,
118.141,147.59128,
115.231,123.92618,
112.320,104.63137,
109.410,87.693408,
106.499,68.465217,
103.589,61.573728,
100.678,58.288513,
97.767,55.444763,
94.857,50.524077,
91.946,48.375,
89.036,47.358919,
86.125,40.976071,
83.215,39.375,
80.304,38.177837,
77.393,34.636987,
74.483,33.719865,
71.572,31.563239,
68.662,27.890128,
65.751,22.94497,
62.840,19.448192,
59.930,19.247862,
57.019,26.298682,
54.109,26.180678,
51.198,26.883046,
48.288,30.318376,
45.377,23.284595,
42.466,22.436097,
39.556,26.065711,
36.645,30.278853,
33.735,25.144018,
30.824,18.270565,
27.914,14.764689,
25.003,15.620275,
22.092,19.281141,
19.182,25.649594,
16.271,34.043476,
13.361,131.78159,
10.450,295.14832,
7.539,491.37494,
4.629,591.42587,
1.718,497.96628,
-1.192,43.428037,
-4.103,-96.052711,
-7.013,-104.23773,
-9.924,-2.625,
