,PL576D~1,
Raman shift [1/cm],Intensity,
3014.167,-0.125,
3011.256,0.62505368,
3008.346,90.475378,
3005.435,107.76193,
3002.525,114.91247,
2999.614,109.63734,
2996.704,129.99973,
2993.793,124.24654,
2990.882,128.00476,
2987.972,120.96581,
2985.061,137.9883,
2982.151,144.80106,
2979.240,144.77423,
2976.329,145.86954,
2973.419,160.61338,
2970.508,162.64167,
2967.598,177.11034,
2964.687,166.17323,
2961.777,179.02893,
2958.866,184.53771,
2955.955,201.25773,
2953.045,182.19494,
2950.134,205.875,
2947.224,199.786,
2944.313,227.72899,
2941.403,215.18431,
2938.492,203.76933,
2935.581,237.07374,
2932.671,232.79777,
2929.760,235.11344,
2926.850,231.50921,
2923.939,242.79086,
2921.028,246.85725,
2918.118,236.81833,
2915.207,270.34976,
2912.297,240.0231,
2909.386,266.67792,
2906.476,256.5885,
2903.565,257.13278,
2900.654,250.25217,
2897.744,263.59841,
2894.833,250.12227,
2891.923,257.0096,
2889.012,250.50506,
2886.102,241.72769,
2883.191,261.86084,
2880.280,247.29604,
2877.370,236.63656,
2874.459,236.98827,
2871.549,262.1515,
2868.638,265.28325,
2865.727,277.875,
2862.817,270.58891,
2859.906,282.84936,
2856.996,271.88859,
2854.085,260.07246,
2851.175,282.875,
2848.264,279.66417,
2845.353,283.70246,
2842.443,263.09728,
2839.532,255.51672,
2836.622,256.08854,
2833.711,264.97861,
2830.801,265.97574,
2827.890,274.95892,
2824.979,274.66502,
2822.069,262.20479,
2819.158,287.83457,
2816.248,280.63368,
2813.337,265.61767,
2810.427,279.10229,
2807.516,273.65906,
2804.605,270.42307,
2801.695,262.57237,
2798.784,262.94892,
2795.874,278.60589,
2792.963,266.73223,
2790.052,274.87371,
2787.142,273.71715,
2784.231,271.06911,
2781.321,274.44074,
2778.410,279.97018,
2775.500,261.32363,
2772.589,274.21981,
2769.678,251.09003,
2766.768,270.60124,
2763.857,279.61103,
2760.947,271.8687,
2758.036,284.42922,
2755.126,286.26175,
2752.215,277.78872,
2749.304,298.70412,
2746.394,280.08669,
2743.483,280.325,
2740.573,293.18258,
2737.662,285.8957,
2734.751,285.9189,
2731.841,279.33471,
2728.930,293.60815,
2726.020,296.6713,
2723.109,302.89575,
2720.199,292.12797,
2717.288,301.2801,
2714.377,287.26254,
2711.467,293.66181,
2708.556,300.52384,
2705.646,308.94544,
2702.735,303.692,
2699.825,295.21139,
2696.914,305.30364,
2694.003,301.95792,
2691.093,316.17826,
2688.182,310.92982,
2685.272,282.50373,
2682.361,314.05731,
2679.450,310.21247,
2676.540,302.99694,
2673.629,312.19337,
2670.719,321.44432,
2667.808,328.58319,
2664.898,299.13473,
2661.987,307.80849,
2659.076,301.65518,
2656.166,339.21271,
2653.255,325.43112,
2650.345,329.3632,
2647.434,337.64579,
2644.524,325.45779,
2641.613,328.78889,
2638.702,328.76453,
2635.792,320.93582,
2632.881,326.36917,
2629.971,342.68721,
2627.060,334.04219,
2624.149,327.57813,
2621.239,345.9165,
2618.328,334.49352,
2615.418,337.82047,
2612.507,341.39682,
2609.597,329.78318,
2606.686,349.875,
2603.775,346.99405,
2600.865,353.8136,
2597.954,343.30623,
2595.044,352.53576,
2592.133,348.37176,
2589.223,345.76658,
2586.312,375.79966,
2583.401,355.48812,
2580.491,355.40864,
2577.580,360.87665,
2574.670,364.0889,
2571.759,358.31422,
2568.848,364.51596,
2565.938,344.16069,
2563.027,354.55904,
2560.117,364.06191,
2557.206,370.01153,
2554.296,359.07637,
2551.385,361.37096,
2548.474,372.35679,
2545.564,370.1599,
2542.653,378.57969,
2539.743,379.02287,
2536.832,384.24323,
2533.922,391.63846,
2531.011,374.40021,
2528.100,379.07016,
2525.190,383.34098,
2522.279,363.39088,
2519.369,379.00676,
2516.458,376.97628,
2513.548,394.19278,
2510.637,371.41207,
2507.726,392.06458,
2504.816,389.25042,
2501.905,395.12134,
2498.995,392.05416,
2496.084,393.34189,
2493.173,388.7697,
2490.263,389.47048,
2487.352,426.28913,
2484.442,393.57734,
2481.531,403.40159,
2478.621,402.33945,
2475.710,407.95168,
2472.799,416.64183,
2469.889,409.48164,
2466.978,400.10186,
2464.068,412.24013,
2461.157,407.10502,
2458.247,405.15443,
2455.336,424.02179,
2452.425,431.98349,
2449.515,419.4696,
2446.604,430.875,
2443.694,422.15376,
2440.783,429.63964,
2437.872,426.65621,
2434.962,419.56164,
2432.051,421.2393,
2429.141,434.70431,
2426.230,423.85287,
2423.320,425.43156,
2420.409,446.84942,
2417.498,438.88342,
2414.588,436.05751,
2411.677,450.4447,
2408.767,445.45177,
2405.856,455.4941,
2402.946,459.93487,
2400.035,454.28814,
2397.124,437.46856,
2394.214,459.38701,
2391.303,451.76999,
2388.393,460.60757,
2385.482,433.19685,
2382.571,454.17845,
2379.661,462.15414,
2376.750,466.87247,
2373.840,456.83446,
2370.929,452.86417,
2368.019,461.34419,
2365.108,471.92212,
2362.197,479.01478,
2359.287,478.29505,
2356.376,461.89966,
2353.466,479.46574,
2350.555,475.55477,
2347.645,474.75578,
2344.734,490.33124,
2341.823,496.80867,
2338.913,483.16455,
2336.002,487.66201,
2333.092,504.25425,
2330.181,496.31237,
2327.270,512.71989,
2324.360,500.62262,
2321.449,508.96683,
2318.539,504.40711,
2315.628,509.36221,
2312.718,486.14371,
2309.807,506.35319,
2306.896,517.41022,
2303.986,526.08924,
2301.075,516.17289,
2298.165,497.91316,
2295.254,513.44414,
2292.344,524.40618,
2289.433,504.19545,
2286.522,520.38377,
2283.612,525.07396,
2280.701,516.27859,
2277.791,532.15552,
2274.880,535.87906,
2271.969,530.67747,
2269.059,539.31642,
2266.148,534.4977,
2263.238,519.3808,
2260.327,528.32347,
2257.417,546.92611,
2254.506,538.61572,
2251.595,526.30775,
2248.685,545.70761,
2245.774,552.07283,
2242.864,537.69043,
2239.953,564.78533,
2237.043,565.92679,
2234.132,559.57112,
2231.221,560.42799,
2228.311,564.48453,
2225.400,566.15645,
2222.490,579.03142,
2219.579,595.26833,
2216.669,591.41554,
2213.758,581.57042,
2210.847,587.32335,
2207.937,585.99715,
2205.026,625.87588,
2202.116,601.61279,
2199.205,602.52488,
2196.294,615.55297,
2193.384,623.1645,
2190.473,650.3304,
2187.563,634.95717,
2184.652,656.09214,
2181.742,677.80656,
2178.831,695.29922,
2175.920,725.04076,
2173.010,743.27636,
2170.099,770.67263,
2167.189,809.46339,
2164.278,891.90214,
2161.368,918.15826,
2158.457,988.78547,
2155.546,1029.8894,
2152.636,1049.9335,
2149.725,1121.2843,
2146.815,1139.7082,
2143.904,1163.8861,
2140.993,1204.8431,
2138.083,1247.5923,
2135.172,1240.3876,
2132.262,1257.0255,
2129.351,1230.8713,
2126.441,1216.2245,
2123.530,1154.2465,
2120.619,1092.4074,
2117.709,1035.7901,
2114.798,972.22864,
2111.888,921.35095,
2108.977,850.6498,
2106.067,801.3988,
2103.156,774.63879,
2100.245,749.84928,
2097.335,708.27291,
2094.424,705.3111,
2091.514,704.15452,
2088.603,683.9073,
2085.692,647.45879,
2082.782,675.81849,
2079.871,664.48061,
2076.961,670.03549,
2074.050,650.63258,
2071.140,645.07047,
2068.229,641.41927,
2065.318,637.51649,
2062.408,648.57241,
2059.497,643.02377,
2056.587,642.18869,
2053.676,649.69162,
2050.766,646.18292,
2047.855,621.18827,
2044.944,634.53525,
2042.034,645.00207,
2039.123,620.49453,
2036.213,621.18169,
2033.302,629.50541,
2030.391,643.11196,
2027.481,629.78982,
2024.570,629.61768,
2021.660,612.05759,
2018.749,617.14093,
2015.839,622.52985,
2012.928,614.79446,
2010.017,627.61442,
2007.107,629.45253,
2004.196,620.76792,
2001.286,622.9775,
1998.375,611.7874,
1995.465,610.875,
1992.554,637.16889,
1989.643,615.77366,
1986.733,605.98202,
1983.822,610.69627,
1980.912,622.18147,
1978.001,605.38335,
1975.090,613.26584,
1972.180,609.15161,
1969.269,586.72265,
1966.359,583.65888,
1963.448,576.91727,
1960.538,587.48217,
1957.627,585.52515,
1954.716,557.67935,
1951.806,605.88788,
1948.895,565.96207,
1945.985,557.57271,
1943.074,569.98579,
1940.164,562.7021,
1937.253,558.79712,
1934.342,561.09745,
1931.432,573.02011,
1928.521,544.04253,
1925.611,537.47886,
1922.700,556.2866,
1919.790,535.03714,
1916.879,552.27076,
1913.968,531.90205,
1911.058,540.95908,
1908.147,519.986,
1905.237,558.28675,
1902.326,554.51203,
1899.415,558.26646,
1896.505,537.56159,
1893.594,531.86591,
1890.684,533.86857,
1887.773,514.832,
1884.863,522.08001,
1881.952,551.58976,
1879.041,547.50168,
1876.131,516.0005,
1873.220,536.89723,
1870.310,542.7315,
1867.399,533.03494,
1864.489,554.66775,
1861.578,525.90239,
1858.667,533.82112,
1855.757,522.27357,
1852.846,522.11603,
1849.936,515.96809,
1847.025,521.98934,
1844.114,546.93386,
1841.204,558.26661,
1838.293,554.87334,
1835.383,558.061,
1832.472,559.875,
1829.562,546.46015,
1826.651,586.73942,
1823.740,560.82893,
1820.830,580.68636,
1817.919,547.08429,
1815.009,538.58747,
1812.098,577.4734,
1809.188,581.875,
1806.277,592.63155,
1803.366,599.54228,
1800.456,579.60021,
1797.545,575.24378,
1794.635,582.74506,
1791.724,607.22454,
1788.813,601.47834,
1785.903,616.3304,
1782.992,624.97334,
1780.082,588.08789,
1777.171,552.54846,
1774.261,601.96549,
1771.350,618.54699,
1768.439,596.04748,
1765.529,615.60184,
1762.618,604.66186,
1759.708,609.15774,
1756.797,636.39773,
1753.887,629.1301,
1750.976,624.48887,
1748.065,601.76748,
1745.155,616.08767,
1742.244,642.82064,
1739.334,626.33383,
1736.423,606.98342,
1733.512,621.79375,
1730.602,620.64681,
1727.691,640.90482,
1724.781,679.33806,
1721.870,674.19397,
1718.960,693.07527,
1716.049,646.69754,
1713.138,682.18978,
1710.228,644.61956,
1707.317,690.06471,
1704.407,683.39904,
1701.496,655.44011,
1698.586,715.70594,
1695.675,678.76811,
1692.764,717.53076,
1689.854,718.91831,
1686.943,701.48206,
1684.033,722.3286,
1681.122,736.63711,
1678.211,728.95114,
1675.301,716.912,
1672.390,764.08136,
1669.480,832.57819,
1666.569,796.26857,
1663.659,827.57729,
1660.748,869.75931,
1657.837,864.00622,
1654.927,870.6013,
1652.016,900.53481,
1649.106,887.19325,
1646.195,900.2826,
1643.285,917.80925,
1640.374,957.91681,
1637.463,961.04595,
1634.553,1025.274,
1631.642,1053.1345,
1628.732,1168.0054,
1625.821,1189.9116,
1622.911,1245.5594,
1620.000,1343.6277,
1617.089,1396.8203,
1614.179,1518.3781,
1611.268,1595.0495,
1608.358,1661.7379,
1605.447,1784.6188,
1602.536,1803.9895,
1599.626,1799.3554,
1596.715,1822.4726,
1593.805,1756.9058,
1590.894,1738.307,
1587.984,1759.3934,
1585.073,1753.516,
1582.162,1732.6726,
1579.252,1729.6933,
1576.341,1713.8537,
1573.431,1685.5966,
1570.520,1675.8175,
1567.610,1648.0511,
1564.699,1606.9737,
1561.788,1585.7202,
1558.878,1556.6128,
1555.967,1528.3584,
1553.057,1516.0475,
1550.146,1462.2533,
1547.235,1398.5877,
1544.325,1404.0205,
1541.414,1397.8721,
1538.504,1355.8643,
1535.593,1325.2152,
1532.683,1315.0908,
1529.772,1291.2754,
1526.861,1248.0354,
1523.951,1231.166,
1521.040,1202.7465,
1518.130,1172.6793,
1515.219,1183.9146,
1512.309,1194.1498,
1509.398,1173.4151,
1506.487,1131.6779,
1503.577,1148.1402,
1500.666,1142.42,
1497.756,1125.5354,
1494.845,1059.7944,
1491.934,1033.853,
1489.024,1027.1155,
1486.113,1046.3465,
1483.203,996.36128,
1480.292,1022.1184,
1477.382,985.84609,
1474.471,965.13169,
1471.560,956.06967,
1468.650,946.35899,
1465.739,931.98667,
1462.829,927.66545,
1459.918,941.58229,
1457.008,951.875,
1454.097,942.63184,
1451.186,929.37984,
1448.276,926.61294,
1445.365,906.01402,
1442.455,868.34791,
1439.544,890.65066,
1436.633,900.71114,
1433.723,946.76547,
1430.812,906.36816,
1427.902,850.1005,
1424.991,859.57812,
1422.081,860.79248,
1419.170,812.48762,
1416.259,813.78569,
1413.349,826.44837,
1410.438,786.48866,
1407.528,798.7746,
1404.617,789.45423,
1401.707,810.62054,
1398.796,835.01839,
1395.885,827.00889,
1392.975,820.47865,
1390.064,810.5303,
1387.154,840.40768,
1384.243,825.94157,
1381.332,768.85494,
1378.422,811.29025,
1375.511,858.1293,
1372.601,875.46327,
1369.690,862.30222,
1366.780,973.13603,
1363.869,1015.9516,
1360.958,1059.8278,
1358.048,1117.847,
1355.137,1108.6542,
1352.227,1097.0058,
1349.316,1130.9846,
1346.406,1177.2096,
1343.495,1250.8437,
1340.584,1281.9819,
1337.674,1308.5935,
1334.763,1373.3337,
1331.853,1385.3877,
1328.942,1357.4121,
1326.032,1410.1528,
1323.121,1490.3028,
1320.210,1499.8907,
1317.300,1521.7964,
1314.389,1579.3896,
1311.479,1628.4186,
1308.568,1649.4669,
1305.657,1666.5514,
1302.747,1710.6568,
1299.836,1779.0863,
1296.926,1800.3443,
1294.015,1918.0177,
1291.105,1964.2605,
1288.194,2022.592,
1285.283,2038.023,
1282.373,2100.8904,
1279.462,2184.0898,
1276.552,2230.7727,
1273.641,2259.9941,
1270.731,2305.8123,
1267.820,2328.15,
1264.909,2290.2811,
1261.999,2256.9416,
1259.088,2258.7658,
1256.178,2245.1717,
1253.267,2191.4729,
1250.356,2137.2715,
1247.446,2049.0545,
1244.535,1963.2055,
1241.625,1884.6973,
1238.714,1803.3251,
1235.804,1758.0934,
1232.893,1749.7641,
1229.982,1684.9551,
1227.072,1657.7957,
1224.161,1622.2548,
1221.251,1618.1085,
1218.340,1589.0756,
1215.430,1527.1806,
1212.519,1471.3119,
1209.608,1465.1763,
1206.698,1506.8753,
1203.787,1544.0559,
1200.877,1557.4352,
1197.966,1582.6116,
1195.055,1631.6569,
1192.145,1684.9556,
1189.234,1726.4755,
1186.324,1769.2414,
1183.413,1775.6516,
1180.503,1752.526,
1177.592,1743.1375,
1174.681,1716.4401,
1171.771,1685.875,
1168.860,1685.875,
1165.950,1648.7857,
1163.039,1646.1606,
1160.129,1628.8199,
1157.218,1613.4328,
1154.307,1607.7937,
1151.397,1588.1017,
1148.486,1548.4283,
1145.576,1529.5689,
1142.665,1545.5513,
1139.754,1560.7067,
1136.844,1564.5753,
1133.933,1516.7815,
1131.023,1479.5703,
1128.112,1490.5157,
1125.202,1510.3533,
1122.291,1488.747,
1119.380,1481.0049,
1116.470,1494.2428,
1113.559,1513.6597,
1110.649,1514.9459,
1107.738,1511.2675,
1104.828,1510.7072,
1101.917,1518.0883,
1099.006,1522.1846,
1096.096,1473.7026,
1093.185,1503.5547,
1090.275,1520.4419,
1087.364,1504.6636,
1084.453,1507.6867,
1081.543,1523.8865,
1078.632,1534.442,
1075.722,1534.678,
1072.811,1522.7986,
1069.901,1549.8697,
1066.990,1539.75,
1064.079,1563.415,
1061.169,1575.875,
1058.258,1579.6864,
1055.348,1588.1085,
1052.437,1604.0744,
1049.527,1645.103,
1046.616,1625.1199,
1043.705,1642.1441,
1040.795,1666.3916,
1037.884,1681.9324,
1034.974,1678.3093,
1032.063,1666.9749,
1029.153,1681.8604,
1026.242,1723.3783,
1023.331,1711.5425,
1020.421,1724.9083,
1017.510,1762.6902,
1014.600,1765.3056,
1011.689,1751.5539,
1008.778,1801.431,
1005.868,1863.3538,
1002.957,1916.6957,
1000.047,1975.835,
997.136,2032.4638,
994.226,2068.6902,
991.315,2077.8304,
988.404,2063.417,
985.494,2024.7407,
982.583,2018.7448,
979.673,2012.0218,
976.762,2007.5266,
973.852,2020.4613,
970.941,2038.875,
968.030,2042.3317,
965.120,2061.6817,
962.209,2015.6444,
959.299,2029.1225,
956.388,2014.9165,
953.477,2015.7823,
950.567,2036.6008,
947.656,2024.3341,
944.746,2065.9624,
941.835,2033.8628,
938.925,2046.9326,
936.014,2036.1245,
933.103,2009.5786,
930.193,1996.0796,
927.282,1978.4003,
924.372,1932.7375,
921.461,1912.8834,
918.551,1877.0855,
915.640,1849.7757,
912.729,1840.1914,
909.819,1832.0966,
906.908,1826.1996,
903.998,1829.8518,
901.087,1835.967,
898.176,1856.5312,
895.266,1871.7488,
892.355,1874.4974,
889.445,1936.6032,
886.534,1943.554,
883.624,1981.2079,
880.713,2015.7167,
877.802,2021.8006,
874.892,2007.8389,
871.981,2029.3029,
869.071,2005.0759,
866.160,2002.9449,
863.250,1982.3827,
860.339,1972.5403,
857.428,1983.9444,
854.518,1958.8028,
851.607,1956.3066,
848.697,1957.9385,
845.786,1940.1922,
842.875,1923.9236,
839.965,1923.8992,
837.054,1914.7727,
834.144,1905.6564,
831.233,1905.8749,
828.323,1896.9836,
825.412,1879.1479,
822.501,1866.0027,
819.591,1883.3571,
816.680,1823.7787,
813.770,1756.8753,
810.859,1737.6073,
807.949,1751.5994,
805.038,1749.8794,
802.127,1741.6481,
799.217,1708.8232,
796.306,1720.5779,
793.396,1725.8062,
790.485,1704.5586,
787.574,1696.8714,
784.664,1723.115,
781.753,1723.8491,
778.843,1715.5039,
775.932,1719.06,
773.022,1744.7913,
770.111,1763.5956,
767.200,1783.9078,
764.290,1792.1865,
761.379,1767.8797,
758.469,1726.2009,
755.558,1720.8718,
752.648,1754.2706,
749.737,1717.7909,
746.826,1679.9559,
743.916,1673.2063,
741.005,1681.0755,
738.095,1514.6407,
735.184,1456.9768,
732.274,1399.8032,
729.363,1421.3878,
726.452,1548.8151,
723.542,1603.8538,
720.631,1661.9218,
717.721,1688.0405,
714.810,1692.5909,
711.899,1694.5186,
708.989,1718.7263,
706.078,1672.3994,
703.168,1661.4822,
700.257,1654.4487,
697.347,1651.7003,
694.436,1679.0239,
691.525,1647.6755,
688.615,1649.6798,
685.704,1646.6728,
682.794,1640.3218,
679.883,1653.0007,
676.973,1611.3295,
674.062,1608.6177,
671.151,1621.9566,
668.241,1631.3013,
665.330,1620.1397,
662.420,1625.7308,
659.509,1667.5106,
656.598,1664.91,
653.688,1634.3256,
650.777,1646.7391,
647.867,1672.2216,
644.956,1659.9196,
642.046,1631.0473,
639.135,1614.469,
636.224,1646.9387,
633.314,1659.6417,
630.403,1682.9762,
627.493,1690.7298,
624.582,1681.5813,
621.672,1684.7493,
618.761,1734.2711,
615.850,1736.6513,
612.940,1723.8258,
610.029,1722.9,
607.119,1741.0615,
604.208,1753.5252,
601.297,1738.9313,
598.387,1719.3017,
595.476,1717.6522,
592.566,1715.291,
589.655,1713.5792,
586.745,1723.2902,
583.834,1720.4062,
580.923,1662.0172,
578.013,1685.5592,
575.102,1691.875,
572.192,1690.4459,
569.281,1692.6554,
566.371,1719.2646,
563.460,1707.7656,
560.549,1714.057,
557.639,1726.3379,
554.728,1727.4864,
551.818,1768.8431,
548.907,1749.2326,
545.996,1747.593,
543.086,1777.9013,
540.175,1796.5888,
537.265,1797.1507,
534.354,1794.3665,
531.444,1784.3512,
528.533,1768.6826,
525.622,1822.2229,
522.712,1861.1789,
519.801,1883.4576,
516.891,1895.7267,
513.980,1919.7298,
511.070,1944.4141,
508.159,1988.2598,
505.248,2036.3902,
502.338,2068.2817,
499.427,2082.1746,
496.517,2092.6629,
493.606,2106.2873,
490.695,2126.2985,
487.785,2150.9318,
484.874,2138.0732,
481.964,2142.9945,
479.053,2158.4624,
476.143,2140.0313,
473.232,2134.5586,
470.321,2141.6334,
467.411,2144.7968,
464.500,2127.2241,
461.590,2141.0074,
458.679,2145.9756,
455.769,2140.5737,
452.858,2132.4424,
449.947,2185.9176,
447.037,2185.3465,
444.126,2188.9659,
441.216,2211.8437,
438.305,2234.7016,
435.395,2250.9877,
432.484,2251.207,
429.573,2242.0525,
426.663,2242.8126,
423.752,2253.3363,
420.842,2246.9145,
417.931,2249.6042,
415.020,2304.9644,
412.110,2302.4853,
409.199,2323.8579,
406.289,2368.0453,
403.378,2429.7162,
400.468,2382.8445,
397.557,2369.9316,
394.646,2367.8348,
391.736,2356.5853,
388.825,2347.5345,
385.915,2319.3297,
383.004,2304.5847,
380.094,2326.4855,
377.183,2377.6538,
374.272,2426.0702,
371.362,2457.5239,
368.451,2464.2397,
365.541,2470.244,
362.630,2472.9675,
359.719,2480.9782,
356.809,2499.2796,
353.898,2522.4923,
350.988,2505.5481,
348.077,2490.2311,
345.167,2500.648,
342.256,2496.1655,
339.345,2515.6009,
336.435,2526.6576,
333.524,2509.7775,
330.614,2570.1351,
327.703,2598.6297,
324.793,2583.127,
321.882,2511.9651,
318.971,2549.1373,
316.061,2575.5478,
313.150,2597.9583,
310.240,2623.9324,
307.329,2636.3092,
304.418,2629.4762,
301.508,2604.2565,
298.597,2560.5719,
295.687,2606.9908,
292.776,2636.2917,
289.866,2661.468,
286.955,2744.944,
284.044,2835.3049,
281.134,2909.7575,
278.223,2966.6352,
275.313,3019.6888,
272.402,3100.0025,
269.492,3153.3604,
266.581,3164.5535,
263.670,3216.0162,
260.760,3219.3826,
257.849,3230.6883,
254.939,3293.0683,
252.028,3298.9419,
249.117,3326.4573,
246.207,3346.0786,
243.296,3304.3525,
240.386,3313.5878,
237.475,3300.1289,
234.565,3264.8044,
231.654,3251.6575,
228.743,3174.0772,
225.833,3103.9351,
222.922,3069.841,
220.012,3069.1125,
217.101,3063.4771,
214.191,3053.0667,
211.280,3037.0625,
208.369,3017.709,
205.459,3026.442,
202.548,3050.4934,
199.638,3036.706,
196.727,3092.649,
193.816,3137.3801,
190.906,3139.8084,
187.995,3109.3994,
185.085,3127.7192,
182.174,3151.0602,
179.264,3118.5358,
176.353,3115.5158,
173.442,3126.7517,
170.532,3140.4145,
167.621,3093.5511,
164.711,3038.304,
161.800,2967.6798,
158.890,2873.3955,
155.979,2681.264,
153.068,2472.9858,
150.158,2239.6187,
147.247,1926.5915,
144.337,1609.2832,
141.426,1286.1657,
138.516,955.67887,
135.605,670.82186,
132.694,450.19265,
129.784,285.43647,
126.873,170.30057,
123.963,119.55963,
121.052,88.959877,
118.141,63.973307,
115.231,46.110741,
112.320,32.096825,
109.410,23.693132,
106.499,27.966063,
103.589,28.875,
100.678,27.788513,
97.767,24.944763,
94.857,22.103044,
91.946,22.487443,
89.036,23.858919,
86.125,17.476071,
83.215,16.40592,
80.304,17.114433,
77.393,17.822603,
74.483,15.909595,
71.572,11.976183,
68.662,7.013535,
65.751,8.4264372,
62.840,9.838404,
59.930,11.998717,
57.019,16.229209,
54.109,13.889196,
51.198,9.4621258,
48.288,3.875,
45.377,3.875,
42.466,8.4094127,
39.556,14.184289,
36.645,9.9711472,
33.735,2.6440184,
30.824,-1.3579042,
27.914,4.2514977,
25.003,8.6108249,
22.092,10.875,
19.182,11.080946,
16.271,17.376357,
13.361,87.729734,
10.450,201.66783,
7.539,322.47639,
4.629,317.21593,
1.718,174.68357,
-1.192,-178.07157,
-4.103,-238.31674,
-7.013,-173.03147,
-9.924,-1.125,
