,PLDADE~1,
Wavenumbers [1/cm],Intensity,
3014.167,-0.625,
3011.256,0.52492484,
3008.346,49.32664,
3005.435,58.375,
3002.525,72.640101,
2999.614,62.186682,
2996.704,59.737886,
2993.793,55.375,
2990.882,71.19171,
2987.972,68.420405,
2985.061,83.581905,
2982.151,73.76154,
2979.240,78.806547,
2976.329,88.375,
2973.419,95.529044,
2970.508,98.47494,
2967.598,86.852912,
2964.687,100.67323,
2961.777,91.785118,
2958.866,83.375,
2955.955,92.481183,
2953.045,99.475677,
2950.134,111.65198,
2947.224,101.28959,
2944.313,110.50962,
2941.403,113.20803,
2938.492,117.08774,
2935.581,117.07929,
2932.671,124.29344,
2929.760,126.53271,
2926.850,136.32274,
2923.939,127.89368,
2921.028,118.50427,
2918.118,126.23773,
2915.207,141.31162,
2912.297,112.47655,
2909.386,127.18522,
2906.476,135.40589,
2903.565,142.10018,
2900.654,150.53982,
2897.744,125.71445,
2894.833,142.06591,
2891.923,150.89111,
2889.012,151.00506,
2886.102,128.33447,
2883.191,131.36839,
2880.280,163.88217,
2877.370,179.70632,
2874.459,201.59533,
2871.549,179.36115,
2868.638,155.46777,
2865.727,150.52888,
2862.817,157.04744,
2859.906,147.57728,
2856.996,154.81386,
2854.085,148.12917,
2851.175,161.70636,
2848.264,145.5955,
2845.353,145.6338,
2842.443,162.56595,
2839.532,159.50939,
2836.622,147.76823,
2833.711,156.99668,
2830.801,159.38235,
2827.890,163.7299,
2824.979,154.53509,
2822.069,157.375,
2819.158,150.53402,
2816.248,144.60474,
2813.337,145.07621,
2810.427,160.28684,
2807.516,172.47562,
2804.605,159.1274,
2801.695,154.90133,
2798.784,147.26208,
2795.874,153.52012,
2792.963,160.37521,
2790.052,150.37822,
2787.142,159.40123,
2784.231,155.34239,
2781.321,160.75216,
2778.410,158.4905,
2775.500,157.3312,
2772.589,164.48892,
2769.678,147.94494,
2766.768,170.60803,
2763.857,179.16305,
2760.947,174.41913,
2758.036,164.43222,
2755.126,162.98825,
2752.215,171.46128,
2749.304,176.71492,
2746.394,171.28022,
2743.483,177.825,
2740.573,166.72894,
2737.662,163.25814,
2734.751,167.19042,
2731.841,165.34752,
2728.930,179.68015,
2726.020,168.7066,
2723.109,168.26158,
2720.199,163.86566,
2717.288,168.16333,
2714.377,172.0209,
2711.467,178.80137,
2708.556,175.50258,
2705.646,166.54398,
2702.735,188.375,
2699.825,182.99498,
2696.914,171.70817,
2694.003,180.73273,
2691.093,183.07174,
2688.182,189.08389,
2685.272,178.25978,
2682.361,168.13373,
2679.450,175.91408,
2676.540,176.27338,
2673.629,179.67092,
2670.719,185.4554,
2667.808,196.49956,
2664.898,186.71255,
2661.987,192.80832,
2659.076,202.84913,
2656.166,178.14986,
2653.255,193.1131,
2650.345,209.78335,
2647.434,203.88857,
2644.524,185.09686,
2641.613,201.48939,
2638.702,203.375,
2635.792,203.84459,
2632.881,210.07717,
2629.971,221.11998,
2627.060,200.70937,
2624.149,194.67187,
2621.239,214.65909,
2618.328,192.01081,
2615.418,204.38409,
2612.507,207.82161,
2609.597,198.75224,
2606.686,213.01154,
2603.775,201.61309,
2600.865,206.84261,
2597.954,207.85414,
2595.044,219.02691,
2592.133,214.42588,
2589.223,219.18238,
2586.312,229.00818,
2583.401,223.27281,
2580.491,218.56732,
2577.580,220.37005,
2574.670,218.75869,
2571.759,223.47603,
2568.848,226.84463,
2565.938,212.94639,
2563.027,222.39997,
2560.117,218.57124,
2557.206,215.99124,
2554.296,232.03175,
2551.385,227.74697,
2548.474,227.89359,
2545.564,235.18507,
2542.653,230.13339,
2539.743,236.65935,
2536.832,229.45536,
2533.922,231.375,
2531.011,227.8003,
2528.100,225.83844,
2525.190,229.21271,
2522.279,224.98467,
2519.369,232.5451,
2516.458,219.1512,
2513.548,229.51119,
2510.637,232.86686,
2507.726,238.81366,
2504.816,238.18785,
2501.905,241.18659,
2498.995,232.375,
2496.084,236.36109,
2493.173,241.50646,
2490.263,255.12757,
2487.352,265.04113,
2484.442,256.23582,
2481.531,248.1091,
2478.621,244.91055,
2475.710,258.19864,
2472.799,231.67549,
2469.889,243.64374,
2466.978,258.99365,
2464.068,252.50197,
2461.157,262.48757,
2458.247,259.75746,
2455.336,271.71551,
2452.425,265.13443,
2449.515,250.62032,
2446.604,258.01551,
2443.694,253.8396,
2440.783,265.23649,
2437.872,270.26561,
2434.962,269.21371,
2432.051,264.13407,
2429.141,273.30416,
2426.230,278.57057,
2423.320,275.97556,
2420.409,258.42617,
2417.498,258.80195,
2414.588,276.89961,
2411.677,268.19571,
2408.767,265.90453,
2405.856,275.25118,
2402.946,281.48224,
2400.035,271.6872,
2397.124,258.8242,
2394.214,268.86299,
2391.303,275.94411,
2388.393,251.71216,
2385.482,206.18153,
2382.571,200.91983,
2379.661,195.28176,
2376.750,239.68519,
2373.840,264.43434,
2370.929,275.27753,
2368.019,283.49506,
2365.108,293.56086,
2362.197,282.23522,
2359.287,288.54325,
2356.376,276.40318,
2353.466,272.13181,
2350.555,287.32514,
2347.645,302.84783,
2344.734,292.03855,
2341.823,277.54083,
2338.913,301.44068,
2336.002,301.55447,
2333.092,294.50142,
2330.181,299.14737,
2327.270,284.31009,
2324.360,296.5424,
2321.449,312.38857,
2318.539,306.22825,
2315.628,315.40058,
2312.718,339.75607,
2309.807,309.12066,
2306.896,283.66609,
2303.986,306.77117,
2301.075,305.26866,
2298.165,327.10631,
2295.254,306.9782,
2292.344,332.85223,
2289.433,317.69545,
2286.522,324.64277,
2283.612,319.19386,
2280.701,321.02969,
2277.791,313.8941,
2274.880,305.15695,
2271.969,324.65895,
2269.059,326.52757,
2266.148,328.77734,
2263.238,332.47539,
2260.327,359.92626,
2257.417,318.11944,
2254.506,325.2838,
2251.595,316.80043,
2248.685,334.84225,
2245.774,329.562,
2242.864,357.33761,
2239.953,344.42324,
2237.043,345.53036,
2234.132,344.6347,
2231.221,326.50408,
2228.311,346.81955,
2225.400,342.31871,
2222.490,345.57381,
2219.579,365.63977,
2216.669,350.92031,
2213.758,352.4639,
2210.847,360.79313,
2207.937,365.21213,
2205.026,368.04147,
2202.116,371.53955,
2199.205,359.77547,
2196.294,362.17697,
2193.384,374.217,
2190.473,381.38087,
2187.563,389.462,
2184.652,407.375,
2181.742,399.39674,
2178.831,395.32448,
2175.920,433.60998,
2173.010,438.67432,
2170.099,451.83979,
2167.189,447.44676,
2164.278,462.65741,
2161.368,498.23156,
2158.457,517.57666,
2155.546,553.72216,
2152.636,569.49735,
2149.725,589.01257,
2146.815,609.80773,
2143.904,642.97352,
2140.993,643.79823,
2138.083,667.12875,
2135.172,678.90439,
2132.262,674.74912,
2129.351,657.76111,
2126.441,680.64693,
2123.530,642.88114,
2120.619,598.96217,
2117.709,586.09118,
2114.798,548.82875,
2111.888,518.97572,
2108.977,501.46771,
2106.067,488.24096,
2103.156,449.1816,
2100.245,445.37375,
2097.335,439.40119,
2094.424,412.05045,
2091.514,417.375,
2088.603,408.83126,
2085.692,385.78028,
2082.782,388.39099,
2079.871,394.19647,
2076.961,369.1186,
2074.050,388.27803,
2071.140,388.7886,
2068.229,394.29949,
2065.318,381.88176,
2062.408,379.57168,
2059.497,385.01193,
2056.587,381.06131,
2053.676,379.2747,
2050.766,392.37425,
2047.855,376.14717,
2044.944,370.10416,
2042.034,374.02808,
2039.123,353.43561,
2036.213,377.94841,
2033.302,388.33172,
2030.391,366.42615,
2027.481,361.1189,
2024.570,381.60304,
2021.660,370.32107,
2018.749,395.19729,
2015.839,367.39272,
2012.928,383.13339,
2010.017,378.73981,
2007.107,347.86285,
2004.196,360.75601,
2001.286,383.62587,
1998.375,380.0246,
1995.465,369.29554,
1992.554,382.27487,
1989.643,340.93037,
1986.733,349.12412,
1983.822,361.66968,
1980.912,352.13695,
1978.001,345.03549,
1975.090,368.375,
1972.180,361.13432,
1969.269,348.28016,
1966.359,346.96963,
1963.448,351.29706,
1960.538,331.27575,
1957.627,346.88276,
1954.716,344.51863,
1951.806,331.97758,
1948.895,326.1604,
1945.985,337.76225,
1943.074,339.0207,
1940.164,338.76902,
1937.253,316.64032,
1934.342,308.86217,
1931.432,330.46649,
1928.521,333.0883,
1925.611,326.81654,
1922.700,294.92611,
1919.790,263.98219,
1916.879,325.49254,
1913.968,280.43648,
1911.058,316.50713,
1908.147,312.66254,
1905.237,280.13974,
1902.326,286.98095,
1899.415,245.48597,
1896.505,229.41715,
1893.594,237.27748,
1890.684,277.22449,
1887.773,300.64229,
1884.863,307.66657,
1881.952,308.88753,
1879.041,325.53077,
1876.131,340.33317,
1873.220,319.71119,
1870.310,317.30325,
1867.399,319.34301,
1864.489,332.38888,
1861.578,285.80338,
1858.667,310.84206,
1855.757,321.56712,
1852.846,330.62628,
1849.936,329.56119,
1847.025,320.43583,
1844.114,314.99619,
1841.204,326.23864,
1838.293,320.39662,
1835.383,320.49099,
1832.472,334.34022,
1829.562,339.56901,
1826.651,309.92124,
1823.740,308.47847,
1820.830,312.60334,
1817.919,317.26126,
1815.009,322.65617,
1812.098,344.91829,
1809.188,334.24325,
1806.277,315.77337,
1803.366,389.27701,
1800.456,325.58406,
1797.545,346.55939,
1794.635,348.117,
1791.724,347.69537,
1788.813,348.36729,
1785.903,313.82275,
1782.992,271.32728,
1780.082,173.1556,
1777.171,-21.301136,
1774.261,-18.664234,
1771.350,147.89554,
1768.439,309.46124,
1765.529,324.92131,
1762.618,342.45315,
1759.708,358.95112,
1756.797,363.45076,
1753.887,368.88812,
1750.976,368.83704,
1748.065,379.27822,
1745.155,360.54938,
1742.244,350.67209,
1739.334,378.70911,
1736.423,362.11336,
1733.512,381.66371,
1730.602,404.59525,
1727.691,379.2039,
1724.781,388.46626,
1721.870,389.35117,
1718.960,398.24179,
1716.049,392.82423,
1713.138,370.0001,
1710.228,380.29975,
1707.317,449.60243,
1704.407,448.49263,
1701.496,426.4094,
1698.586,436.3868,
1695.675,431.76075,
1692.764,374.57169,
1689.854,448.86717,
1686.943,434.01579,
1684.033,427.52402,
1681.122,456.86523,
1678.211,459.35597,
1675.301,457.38117,
1672.390,431.48865,
1669.480,469.60764,
1666.569,498.60353,
1663.659,515.3134,
1660.748,452.20412,
1657.837,495.20605,
1654.927,531.22697,
1652.016,483.3021,
1649.106,480.64429,
1646.195,490.99138,
1643.285,476.49154,
1640.374,525.48301,
1637.463,577.15883,
1634.553,565.641,
1631.642,583.87446,
1628.732,629.71868,
1625.821,687.40902,
1622.911,739.08197,
1620.000,798.61908,
1617.089,835.63868,
1614.179,873.30336,
1611.268,913.85071,
1608.358,1045.0071,
1605.447,1043.8321,
1602.536,1080.6505,
1599.626,1073.2557,
1596.715,1095.9726,
1593.805,1118.9446,
1590.894,1074.6995,
1587.984,1061.4463,
1585.073,1030.5964,
1582.162,1011.1819,
1579.252,1009.1933,
1576.341,983.74097,
1573.431,957.01247,
1570.520,912.39177,
1567.610,909.31631,
1564.699,913.10003,
1561.788,899.29063,
1558.878,910.44408,
1555.967,909.12569,
1553.057,886.51311,
1550.146,845.03325,
1547.235,816.5201,
1544.325,814.89925,
1541.414,797.85282,
1538.504,796.81668,
1535.593,775.3695,
1532.683,722.59317,
1529.772,705.08127,
1526.861,716.65184,
1523.951,715.50265,
1521.040,672.83844,
1518.130,662.11404,
1515.219,663.93548,
1512.309,648.11825,
1509.398,653.59738,
1506.487,666.82374,
1503.577,672.78719,
1500.666,665.23378,
1497.756,632.29872,
1494.845,630.89474,
1491.934,619.37185,
1489.024,618.40936,
1486.113,594.2674,
1483.203,572.83531,
1480.292,555.9503,
1477.382,557.41624,
1474.471,544.56218,
1471.560,559.96798,
1468.650,525.01203,
1465.739,507.93696,
1462.829,514.14954,
1459.918,510.74511,
1457.008,522.63676,
1454.097,529.66968,
1451.186,503.81988,
1448.276,487.80263,
1445.365,490.87421,
1442.455,471.53549,
1439.544,441.11249,
1436.633,435.2886,
1433.723,476.50264,
1430.812,468.30629,
1427.902,442.4652,
1424.991,446.25625,
1422.081,427.10798,
1419.170,421.91876,
1416.259,406.79387,
1413.349,407.15121,
1410.438,419.57147,
1407.528,403.13152,
1404.617,411.33736,
1401.707,432.79417,
1398.796,425.2142,
1395.885,399.86705,
1392.975,420.37642,
1390.064,475.9002,
1387.154,447.29,
1384.243,404.375,
1381.332,404.59633,
1378.422,409.51483,
1375.511,470.40559,
1372.601,459.39459,
1369.690,500.3789,
1366.780,497.87058,
1363.869,487.38375,
1360.958,568.22247,
1358.048,566.87661,
1355.137,566.86467,
1352.227,592.54492,
1349.316,620.70366,
1346.406,690.72684,
1343.495,742.6102,
1340.584,743.94723,
1337.674,697.48545,
1334.763,749.82169,
1331.853,787.83817,
1328.942,817.83785,
1326.032,783.85645,
1323.121,819.83287,
1320.210,846.69565,
1317.300,871.26243,
1314.389,904.93096,
1311.479,959.76309,
1308.568,1009.3261,
1305.657,1033.5134,
1302.747,1097.7962,
1299.836,1176.5322,
1296.926,1164.3578,
1294.015,1185.5022,
1291.105,1246.2518,
1288.194,1271.9473,
1285.283,1279.955,
1282.373,1297.8281,
1279.462,1343.6096,
1276.552,1390.5641,
1273.641,1429.7349,
1270.731,1469.9019,
1267.820,1493.4911,
1264.909,1502.9572,
1261.999,1485.3084,
1259.088,1483.4842,
1256.178,1468.8152,
1253.267,1411.1369,
1250.356,1386.248,
1247.446,1333.0899,
1244.535,1283.509,
1241.625,1270.3935,
1238.714,1250.3342,
1235.804,1188.8896,
1232.893,1147.6308,
1229.982,1120.6084,
1227.072,1097.9756,
1224.161,1085.4485,
1221.251,1058.0617,
1218.340,1022.8147,
1215.430,996.81376,
1212.519,995.97743,
1209.608,992.90873,
1206.698,964.80044,
1203.787,957.80214,
1200.877,975.87351,
1197.966,967.78108,
1195.055,1020.2764,
1192.145,1089.4825,
1189.234,1126.8924,
1186.324,1144.0121,
1183.413,1147.7253,
1180.503,1152.4691,
1177.592,1155.3646,
1174.681,1114.4024,
1171.771,1127.5714,
1168.860,1092.7409,
1165.950,1056.3171,
1163.039,1086.7872,
1160.129,1087.4489,
1157.218,1071.0869,
1154.307,1070.1983,
1151.397,1078.8964,
1148.486,1083.3721,
1145.576,1099.7197,
1142.665,1084.6252,
1139.754,1096.3931,
1136.844,1068.5617,
1133.933,1086.4598,
1131.023,1091.8516,
1128.112,1081.231,
1125.202,1100.2059,
1122.291,1115.1243,
1119.380,1113.4789,
1116.470,1124.0693,
1113.559,1121.5088,
1110.649,1132.8171,
1107.738,1124.3721,
1104.828,1125.5224,
1101.917,1132.9484,
1099.006,1107.0553,
1096.096,1121.9561,
1093.185,1082.446,
1090.275,1089.0862,
1087.364,1096.864,
1084.453,1102.7498,
1081.543,1139.118,
1078.632,1168.2723,
1075.722,1144.1452,
1072.811,1172.7545,
1069.901,1164.0219,
1066.990,1211.8749,
1064.079,1182.5442,
1061.169,1171.1072,
1058.258,1169.3288,
1055.348,1155.7294,
1052.437,1154.4586,
1049.527,1181.8519,
1046.616,1220.0804,
1043.705,1195.8567,
1040.795,1193.1215,
1037.884,1200.4209,
1034.974,1195.8093,
1032.063,1191.6285,
1029.153,1224.375,
1026.242,1224.375,
1023.331,1242.7072,
1020.421,1254.0431,
1017.510,1269.7011,
1014.600,1289.9483,
1011.689,1296.9632,
1008.778,1267.819,
1005.868,1205.9194,
1002.957,1155.1585,
1000.047,1236.919,
997.136,1363.1725,
994.226,1432.3903,
991.315,1448.0309,
988.404,1464.4306,
985.494,1422.4544,
982.583,1381.3397,
979.673,1392.9345,
976.762,1372.9554,
973.852,1352.607,
970.941,1367.5651,
968.030,1402.5136,
965.120,1369.3643,
962.209,1366.8066,
959.299,1379.1235,
956.388,1405.6536,
953.477,1420.7309,
950.567,1419.4207,
947.656,1422.9321,
944.746,1427.1798,
941.835,1418.4671,
938.925,1405.8462,
936.014,1393.2934,
933.103,1384.9626,
930.193,1377.1813,
927.282,1354.7252,
924.372,1324.2833,
921.461,1312.2746,
918.551,1312.8606,
915.640,1308.151,
912.729,1293.5446,
909.819,1278.0397,
906.908,1260.3488,
903.998,1281.6452,
901.087,1286.7385,
898.176,1304.9856,
895.266,1320.614,
892.355,1313.8303,
889.445,1332.2942,
886.534,1321.5217,
883.624,1320.0478,
880.713,1321.9061,
877.802,1265.3606,
874.892,1085.4102,
871.981,766.50831,
869.071,602.76738,
866.160,740.65528,
863.250,1040.7822,
860.339,1276.5188,
857.428,1327.401,
854.518,1302.2828,
851.607,1160.831,
848.697,986.43087,
845.786,960.41126,
842.875,1050.0595,
839.965,1172.5748,
837.054,1301.6355,
834.144,1324.8406,
831.233,1354.7065,
828.323,1363.913,
825.412,1357.4773,
822.501,1350.6303,
819.591,1346.4983,
816.680,1335.9583,
813.770,1310.1944,
810.859,1287.3502,
807.949,1277.7531,
805.038,1278.5874,
802.127,1255.5398,
799.217,1237.7218,
796.306,1233.5101,
793.396,1228.5352,
790.485,1223.5866,
787.574,1238.3786,
784.664,1212.135,
781.753,1219.4527,
778.843,1233.7064,
775.932,1239.2886,
773.022,1240.2365,
770.111,1290.9263,
767.200,1290.5684,
764.290,1285.3299,
761.379,1267.0142,
758.469,1251.1179,
755.558,1279.6213,
752.648,1254.3686,
749.737,1239.5832,
746.826,1235.7737,
743.916,1247.9855,
741.005,1274.7331,
738.095,1269.0499,
735.184,1256.219,
732.274,1215.614,
729.363,1202.2039,
726.452,1236.3053,
723.542,1219.308,
720.631,1186.2644,
717.721,1226.2126,
714.810,1245.8638,
711.899,1223.9592,
708.989,1252.2016,
706.078,1214.7138,
703.168,1221.1627,
700.257,1220.2356,
697.347,1203.2882,
694.436,1200.7061,
691.525,1249.7383,
688.615,1250.3124,
685.704,1228.834,
682.794,1217.0345,
679.883,1245.7354,
676.973,1253.7491,
674.062,1215.1758,
671.151,1206.4016,
668.241,1227.234,
665.330,1237.1691,
662.420,1253.9425,
659.509,1251.0257,
656.598,1256.8955,
653.688,1260.6334,
650.777,1230.4569,
647.867,1203.3818,
644.956,1140.4132,
642.046,1065.159,
639.135,1024.3053,
636.224,1084.7291,
633.314,1155.3896,
630.403,1204.7092,
627.493,1225.6069,
624.582,1229.4956,
621.672,1252.4634,
618.761,1261.7343,
615.850,1253.3552,
612.940,1241.9843,
610.029,1242.8989,
607.119,1276.0634,
604.208,1275.8249,
601.297,1254.4343,
598.387,1245.5537,
595.476,1271.7409,
592.566,1254.4254,
589.655,1243.6003,
586.745,1239.375,
583.834,1240.4729,
580.923,1244.4603,
578.013,1258.5855,
575.102,1277.2883,
572.192,1279.8002,
569.281,1273.3734,
566.371,1323.4613,
563.460,1326.9641,
560.549,1302.9856,
557.639,1284.0148,
554.728,1297.2563,
551.818,1263.7027,
548.907,1264.9068,
545.996,1287.8705,
543.086,1311.0132,
540.175,1290.7684,
537.265,1297.3421,
534.354,1302.8835,
531.444,1308.7189,
528.533,1317.0991,
525.622,1313.2194,
522.712,1326.3303,
519.801,1333.4656,
516.891,1333.1921,
513.980,1347.1294,
511.070,1359.6446,
508.159,1360.5545,
505.248,1354.6225,
502.338,1350.4142,
499.427,1385.9185,
496.517,1405.5568,
493.606,1414.721,
490.695,1421.9753,
487.785,1455.0763,
484.874,1438.4034,
481.964,1449.6306,
479.053,1478.6978,
476.143,1463.3386,
473.232,1418.4914,
470.321,1413.0528,
467.411,1430.9467,
464.500,1447.1423,
461.590,1437.9534,
458.679,1443.0791,
455.769,1451.5804,
452.858,1458.4429,
449.947,1478.3051,
447.037,1484.802,
444.126,1491.5508,
441.216,1495.4803,
438.305,1467.2889,
435.395,1502.0576,
432.484,1524.042,
429.573,1492.4721,
426.663,1347.2852,
423.752,908.55455,
420.842,406.43492,
417.931,69.021257,
415.020,208.55915,
412.110,832.31972,
409.199,1203.1401,
406.289,1337.6323,
403.378,1289.0138,
400.468,1182.4186,
397.557,1224.9833,
394.646,1353.1295,
391.736,1506.6929,
388.825,1579.0991,
385.915,1582.8126,
383.004,1585.3642,
380.094,1629.9527,
377.183,1621.6755,
374.272,1610.6905,
371.362,1614.5594,
368.451,1643.3354,
365.541,1675.6085,
362.630,1645.5919,
359.719,1609.5274,
356.809,1603.2295,
353.898,1650.4038,
350.988,1648.7279,
348.077,1646.8297,
345.167,1671.8831,
342.256,1662.1712,
339.345,1668.4094,
336.435,1671.9335,
333.524,1660.2341,
330.614,1655.7631,
327.703,1682.0989,
324.793,1701.9302,
321.882,1683.4435,
318.971,1711.6943,
316.061,1711.6087,
313.150,1716.1559,
310.240,1763.6513,
307.329,1725.3553,
304.418,1733.9965,
301.508,1761.0119,
298.597,1752.1269,
295.687,1733.0895,
292.776,1767.7086,
289.866,1835.8481,
286.955,1871.307,
284.044,1879.5375,
281.134,1900.63,
278.223,1927.5548,
275.313,1887.7646,
272.402,1843.9399,
269.492,1767.9954,
266.581,1653.8046,
263.670,1575.8755,
260.760,1636.9563,
257.849,1743.4004,
254.939,1829.2646,
252.028,1807.212,
249.117,1806.5979,
246.207,1842.3243,
243.296,1942.6133,
240.386,1931.1733,
237.475,1917.8383,
234.565,1911.4638,
231.654,1886.6308,
228.743,1845.7022,
225.833,1811.4477,
222.922,1792.3558,
220.012,1770.4991,
217.101,1776.6243,
214.191,1785.7852,
211.280,1770.5085,
208.369,1721.6053,
205.459,1690.7892,
202.548,1685.2664,
199.638,1719.3719,
196.727,1745.3901,
193.816,1761.4822,
190.906,1764.572,
187.995,1713.1662,
185.085,1739.3506,
182.174,1805.0251,
179.264,1866.4602,
176.353,1892.5984,
173.442,1871.8325,
170.532,1821.2474,
167.621,1863.064,
164.711,1811.3069,
161.800,1699.078,
158.890,1537.1393,
155.979,1538.2763,
153.068,1462.0573,
150.158,1321.2663,
147.247,1191.317,
144.337,1017.3888,
141.426,819.64292,
138.516,603.85866,
135.605,433.59265,
132.694,290.20734,
129.784,180.1766,
126.873,132.97803,
123.963,86.385441,
121.052,52.992505,
118.141,39.428367,
115.231,28.716445,
112.320,24.798636,
109.410,24.693224,
106.499,21.132448,
103.589,14.772455,
100.678,12.276352,
97.767,17.252915,
94.857,11.831088,
91.946,12.599887,
89.036,17.149204,
86.125,15.730794,
83.215,9.0039558,
80.304,6.2481922,
77.393,14.746231,
74.483,4.8928407,
71.572,0.09970423,
68.662,1.65207,
65.751,4.4778743,
62.840,3.4481921,
59.930,1.1877138,
57.019,0.48263182,
54.109,-4.4022868,
51.198,-6.1169536,
48.288,-2.5797005,
45.377,3.0473241,
42.466,2.4894646,
39.556,-0.5889328,
36.645,5.7307791,
33.735,2.7017638,
30.824,-1.404113,
27.914,-0.70293778,
25.003,-3.1155499,
22.092,-3.9791909,
19.182,-2.8767115,
16.271,-10.571103,
13.361,-94.544932,
10.450,-298.65187,
7.539,-839.14797,
4.629,-1276.5119,
1.718,-1490.2661,
-1.192,-1280.4256,
-4.103,-783.28882,
-7.013,-333.99828,
-9.924,-0.625,
