,PL570B~1,
Wavenumbers [1/cm],Intensity,
3014.167,-7.875,
3011.256,1.3749463,
3008.346,57.167935,
3005.435,49.73984,
3002.525,59.012584,
2999.614,59.263973,
2996.704,72.939431,
2993.793,59.134216,
2990.882,54.949412,
2987.972,79.06446,
2985.061,62.248146,
2982.151,59.647692,
2979.240,69.772321,
2976.329,82.62227,
2973.419,71.386618,
2970.508,80.458267,
2967.598,78.698494,
2964.687,88.692256,
2961.777,96.184921,
2958.866,81.463777,
2955.955,73.366151,
2953.045,92.657431,
2950.134,95.221229,
2947.224,85.09294,
2944.313,106.88924,
2941.403,103.55383,
2938.492,92.710373,
2935.581,100.53359,
2932.671,100.68725,
2929.760,96.62113,
2926.850,89.75921,
2923.939,103.60161,
2921.028,113.58381,
2918.118,102.7648,
2915.207,107.59976,
2912.297,121.08692,
2909.386,97.088515,
2906.476,114.37215,
2903.565,97.447966,
2900.654,97.242281,
2897.744,107.26329,
2894.833,97.094462,
2891.923,82.532107,
2889.012,94.95737,
2886.102,98.729053,
2883.191,92.131608,
2880.280,37.837899,
2877.370,-53.107401,
2874.459,-69.290049,
2871.549,-18.308672,
2868.638,59.038365,
2865.727,84.990409,
2862.817,76.582218,
2859.906,102.65775,
2856.996,112.70425,
2854.085,113.61033,
2851.175,115.22137,
2848.264,117.91417,
2845.353,117.08187,
2842.443,113.52779,
2839.532,126.64729,
2836.622,112.51823,
2833.711,113.33223,
2830.801,121.62132,
2827.890,121.49912,
2824.979,131.2489,
2822.069,112.23872,
2819.158,117.56435,
2816.248,113.86053,
2813.337,131.99086,
2810.427,122.16908,
2807.516,133.75078,
2804.605,123.69471,
2801.695,123.21712,
2798.784,127.125,
2795.874,124.40996,
2792.963,127.05362,
2790.052,115.12779,
2787.142,126.96715,
2784.231,136.38276,
2781.321,138.49063,
2778.410,113.71003,
2775.500,113.89086,
2772.589,107.66475,
2769.678,131.76662,
2766.768,122.51527,
2763.857,129.91498,
2760.947,128.08717,
2758.036,128.90211,
2755.126,134.11859,
2752.215,144.7431,
2749.304,134.76349,
2746.394,124.03022,
2743.483,121.77504,
2740.573,128.31975,
2737.662,134.34837,
2734.751,137.35798,
2731.841,143.58471,
2728.930,145.34957,
2726.020,144.4566,
2723.109,137.8055,
2720.199,143.84996,
2717.288,146.31843,
2714.377,143.125,
2711.467,148.58433,
2708.556,139.85889,
2705.646,153.57573,
2702.735,145.77963,
2699.825,145.86323,
2696.914,141.12452,
2694.003,163.45509,
2691.093,148.99985,
2688.182,148.94352,
2685.272,144.97422,
2682.361,138.25382,
2679.450,151.96868,
2676.540,153.79981,
2673.629,145.75725,
2670.719,143.78211,
2667.808,143.63864,
2664.898,155.68336,
2661.987,157.85829,
2659.076,170.96335,
2656.166,133.15952,
2653.255,154.3869,
2650.345,149.47709,
2647.434,157.89665,
2644.524,160.33361,
2641.613,166.89684,
2638.702,159.36172,
2635.792,149.00037,
2632.881,158.2498,
2629.971,164.50753,
2627.060,153.78876,
2624.149,163.80314,
2621.239,145.87055,
2618.328,148.31184,
2615.418,174.12954,
2612.507,170.26335,
2609.597,173.66592,
2606.686,164.39808,
2603.775,161.2877,
2600.865,168.59598,
2597.954,162.26874,
2595.044,167.43767,
2592.133,173.34794,
2589.223,169.6671,
2586.312,170.90887,
2583.401,185.14687,
2580.491,177.7548,
2577.580,179.12995,
2574.670,180.18784,
2571.759,169.06935,
2568.848,177.29634,
2565.938,187.98222,
2563.027,174.92956,
2560.117,181.29325,
2557.206,192.54935,
2554.296,177.32637,
2551.385,180.93498,
2548.474,192.19935,
2545.564,184.56818,
2542.653,188.19883,
2539.743,175.24823,
2536.832,165.88014,
2533.922,178.28269,
2531.011,188.67495,
2528.100,187.45949,
2525.190,192.24016,
2522.279,189.26569,
2519.369,186.08763,
2516.458,185.46777,
2513.548,182.37065,
2510.637,188.5391,
2507.726,199.82014,
2504.816,173.18701,
2501.905,184.73354,
2498.995,196.05006,
2496.084,183.72433,
2493.173,192.46705,
2490.263,188.73178,
2487.352,193.58407,
2484.442,206.68816,
2481.531,207.8591,
2478.621,212.3383,
2475.710,174.26302,
2472.799,196.81105,
2469.889,214.51836,
2466.978,220.28993,
2464.068,209.6329,
2461.157,206.70249,
2458.247,209.97795,
2455.336,199.25414,
2452.425,202.0401,
2449.515,215.61565,
2446.604,217.36234,
2443.694,216.45066,
2440.783,218.93468,
2437.872,223.94268,
2434.962,220.43836,
2432.051,215.83472,
2429.141,219.22485,
2426.230,202.6244,
2423.320,230.98255,
2420.409,218.28518,
2417.498,234.09973,
2414.588,218.87034,
2411.677,215.01743,
2408.767,212.88386,
2405.856,210.90359,
2402.946,217.76217,
2400.035,203.34564,
2397.124,240.125,
2394.214,227.79781,
2391.303,210.69952,
2388.393,223.35059,
2385.482,193.57904,
2382.571,205.84717,
2379.661,199.75263,
2376.750,231.91314,
2373.840,251.02806,
2370.929,241.27662,
2368.019,219.89593,
2365.108,229.8449,
2362.197,239.52774,
2359.287,234.33503,
2356.376,244.10563,
2353.466,248.94351,
2350.555,236.61973,
2347.645,236.96604,
2344.734,261.67343,
2341.823,234.65566,
2338.913,263.79661,
2336.002,244.31634,
2333.092,250.87217,
2330.181,252.14289,
2327.270,238.00508,
2324.360,253.37738,
2321.449,240.18622,
2318.539,249.91402,
2315.628,262.42756,
2312.718,258.59196,
2309.807,245.96946,
2306.896,270.11717,
2303.986,257.11842,
2301.075,239.18885,
2298.165,254.48111,
2295.254,275.75877,
2292.344,265.07104,
2289.433,265.42227,
2286.522,264.33922,
2283.612,270.05484,
2280.701,265.66312,
2277.791,260.36732,
2274.880,288.62703,
2271.969,276.16203,
2269.059,270.15225,
2266.148,288.71598,
2263.238,285.12887,
2260.327,273.02167,
2257.417,282.27834,
2254.506,282.02532,
2251.595,291.69957,
2248.685,290.59807,
2245.774,297.43258,
2242.864,272.29206,
2239.953,290.49049,
2237.043,292.3975,
2234.132,286.47306,
2231.221,288.67799,
2228.311,300.56313,
2225.400,302.46274,
2222.490,308.92619,
2219.579,296.04022,
2216.669,307.16316,
2213.758,296.51585,
2210.847,295.93104,
2207.937,304.75854,
2205.026,312.45794,
2202.116,319.7163,
2199.205,320.0243,
2196.294,324.00903,
2193.384,317.546,
2190.473,302.68134,
2187.563,346.009,
2184.652,321.37194,
2181.742,320.07991,
2178.831,333.72036,
2175.920,345.62227,
2173.010,340.87443,
2170.099,363.25547,
2167.189,375.16805,
2164.278,380.83153,
2161.368,389.12379,
2158.457,417.93764,
2155.546,444.42696,
2152.636,463.21542,
2149.725,473.27935,
2146.815,516.69014,
2143.904,520.03205,
2140.993,533.86578,
2138.083,534.79667,
2135.172,536.28454,
2132.262,529.64261,
2129.351,531.08358,
2126.441,503.50356,
2123.530,513.90052,
2120.619,495.50109,
2117.709,487.77637,
2114.798,446.00966,
2111.888,433.67581,
2108.977,401.50247,
2106.067,395.40013,
2103.156,373.24929,
2100.245,366.12249,
2097.335,363.20877,
2094.424,366.33801,
2091.514,341.82922,
2088.603,340.31388,
2085.692,335.84631,
2082.782,336.6751,
2079.871,338.19618,
2076.961,349.28549,
2074.050,355.53106,
2071.140,376.52782,
2068.229,345.39062,
2065.318,351.8285,
2062.408,351.07961,
2059.497,337.29164,
2056.587,338.18294,
2053.676,342.30838,
2050.766,331.04877,
2047.855,330.66933,
2044.944,318.98236,
2042.034,341.28103,
2039.123,344.36742,
2036.213,353.97383,
2033.302,341.01623,
2030.391,341.2607,
2027.481,344.33227,
2024.570,337.69665,
2021.660,359.64677,
2018.749,350.78309,
2015.839,344.81529,
2012.928,365.11326,
2010.017,371.55388,
2007.107,367.47454,
2004.196,379.8036,
2001.286,387.125,
1998.375,361.37794,
1995.465,369.00357,
1992.554,367.98976,
1989.643,361.33238,
1986.733,339.60658,
1983.822,348.125,
1980.912,349.71919,
1978.001,351.98956,
1975.090,350.30516,
1972.180,357.64229,
1969.269,362.78594,
1966.359,362.5844,
1963.448,363.04706,
1960.538,380.35519,
1957.627,370.75038,
1954.716,357.46972,
1951.806,358.87661,
1948.895,353.2323,
1945.985,344.67402,
1943.074,344.09903,
1940.164,361.78834,
1937.253,350.83372,
1934.342,347.61217,
1931.432,343.81585,
1928.521,364.20445,
1925.611,350.89799,
1922.700,356.16229,
1919.790,355.81869,
1916.879,324.42673,
1913.968,366.0709,
1911.058,358.40727,
1908.147,337.4462,
1905.237,358.33088,
1902.326,348.79612,
1899.415,342.60672,
1896.505,366.90814,
1893.594,373.12197,
1890.684,363.11857,
1887.773,385.08959,
1884.863,393.62842,
1881.952,354.52778,
1879.041,372.38461,
1876.131,370.7237,
1873.220,339.3594,
1870.310,381.53747,
1867.399,382.17298,
1864.489,369.55338,
1861.578,377.88341,
1858.667,353.77771,
1855.757,345.90423,
1852.846,374.65319,
1849.936,381.14904,
1847.025,356.36101,
1844.114,371.6333,
1841.204,391.45717,
1838.293,376.63415,
1835.383,376.0435,
1832.472,381.90413,
1829.562,371.62656,
1826.651,393.15987,
1823.740,386.46979,
1820.830,396.10153,
1817.919,406.01126,
1815.009,391.71279,
1812.098,391.81791,
1809.188,410.88465,
1806.277,397.45698,
1803.366,402.14164,
1800.456,403.72953,
1797.545,413.38745,
1794.635,402.89995,
1791.724,385.7463,
1788.813,407.32269,
1785.903,396.13859,
1782.992,373.736,
1780.082,357.46414,
1777.171,373.12178,
1774.261,352.72983,
1771.350,371.76376,
1768.439,422.27382,
1765.529,422.94352,
1762.618,424.64187,
1759.708,436.38599,
1756.797,445.97348,
1753.887,424.3801,
1750.976,416.79057,
1748.065,437.48598,
1745.155,430.51866,
1742.244,407.88227,
1739.334,408.65676,
1736.423,424.1362,
1733.512,442.95024,
1730.602,463.08534,
1727.691,469.66032,
1724.781,444.16797,
1721.870,439.5393,
1718.960,436.83607,
1716.049,436.125,
1713.138,416.4601,
1710.228,439.23391,
1707.317,479.39243,
1704.407,443.69713,
1701.496,485.61394,
1698.586,466.1014,
1695.675,486.58201,
1692.764,493.80533,
1689.854,499.86516,
1686.943,510.75402,
1684.033,488.69623,
1681.122,503.85312,
1678.211,522.94417,
1675.301,510.16508,
1672.390,545.98743,
1669.480,500.33357,
1666.569,525.78221,
1663.659,499.76196,
1660.748,538.22141,
1657.837,543.14687,
1654.927,544.45301,
1652.016,558.70818,
1649.106,582.44325,
1646.195,595.98815,
1643.285,630.39583,
1640.374,599.31315,
1637.463,608.70147,
1634.553,639.992,
1631.642,631.42902,
1628.732,659.37387,
1625.821,701.15967,
1622.911,753.82634,
1620.000,751.1628,
1617.089,797.18967,
1614.179,817.56098,
1611.268,885.52255,
1608.358,933.87749,
1605.447,995.52548,
1602.536,1006.5801,
1599.626,955.60876,
1596.715,982.89104,
1593.805,955.71772,
1590.894,943.3183,
1587.984,970.70604,
1585.073,992.99215,
1582.162,945.19695,
1579.252,918.75898,
1576.341,928.74308,
1573.431,911.76247,
1570.520,857.96925,
1567.610,878.14515,
1564.699,907.52572,
1561.788,866.23813,
1558.878,893.23566,
1555.967,880.77044,
1553.057,861.21123,
1550.146,846.60503,
1547.235,835.76369,
1544.325,814.89692,
1541.414,820.64718,
1538.504,825.79374,
1535.593,778.09333,
1532.683,769.06684,
1529.772,781.56284,
1526.861,730.5946,
1523.951,713.5247,
1521.040,738.04186,
1518.130,728.38596,
1515.219,718.7251,
1512.309,709.67453,
1509.398,697.20668,
1506.487,715.74685,
1503.577,727.7164,
1500.666,701.2296,
1497.756,696.33714,
1494.845,722.84485,
1491.934,716.1439,
1489.024,721.91886,
1486.113,736.03323,
1483.203,723.80248,
1480.292,704.30626,
1477.382,655.05485,
1474.471,684.02871,
1471.560,706.28433,
1468.650,680.06096,
1465.739,659.7201,
1462.829,681.19133,
1459.918,681.55027,
1457.008,664.57111,
1454.097,670.36816,
1451.186,679.0457,
1448.276,667.26974,
1445.365,647.9457,
1442.455,651.42438,
1439.544,672.68354,
1436.633,639.41695,
1433.723,674.48378,
1430.812,708.06146,
1427.902,658.25249,
1424.991,705.64061,
1422.081,652.99385,
1419.170,671.45463,
1416.259,671.07468,
1413.349,663.32783,
1410.438,681.41861,
1407.528,697.20616,
1404.617,659.43889,
1401.707,650.26274,
1398.796,661.0446,
1395.885,654.77856,
1392.975,671.29226,
1390.064,708.30875,
1387.154,715.96482,
1384.243,658.64327,
1381.332,687.55964,
1378.422,706.25551,
1375.511,689.39345,
1372.601,718.61525,
1369.690,744.27001,
1366.780,693.47457,
1363.869,735.79021,
1360.958,767.02824,
1358.048,805.35046,
1355.137,814.9829,
1352.227,800.37989,
1349.316,823.17654,
1346.406,846.56284,
1343.495,808.12848,
1340.584,811.73168,
1337.674,847.80665,
1334.763,894.24287,
1331.853,871.06209,
1328.942,887.02482,
1326.032,846.71273,
1323.121,940.86002,
1320.210,947.15857,
1317.300,909.69618,
1314.389,918.79215,
1311.479,965.28017,
1308.568,999.0761,
1305.657,1021.2967,
1302.747,1062.5513,
1299.836,1072.6164,
1296.926,1076.7659,
1294.015,1090.5558,
1291.105,1127.2272,
1288.194,1136.1187,
1285.283,1161.4691,
1282.373,1171.7578,
1279.462,1169.38,
1276.552,1192.2117,
1273.641,1225.3007,
1270.731,1234.7713,
1267.820,1243.8256,
1264.909,1250.8609,
1261.999,1228.1569,
1259.088,1256.4327,
1256.178,1204.1682,
1253.267,1202.0298,
1250.356,1155.3627,
1247.446,1154.4206,
1244.535,1146.8349,
1241.625,1098.4991,
1238.714,1053.7182,
1235.804,1031.8483,
1232.893,1019.7506,
1229.982,1016.2051,
1227.072,989.04572,
1224.161,947.62132,
1221.251,949.05911,
1218.340,943.05563,
1215.430,922.71001,
1212.519,919.63295,
1209.608,911.63434,
1206.698,869.23121,
1203.787,859.71799,
1200.877,915.95486,
1197.966,897.07252,
1195.055,969.50438,
1192.145,994.14649,
1189.234,995.52983,
1186.324,991.94297,
1183.413,984.8255,
1180.503,991.27797,
1177.592,1014.5694,
1174.681,1000.5497,
1171.771,962.00137,
1168.860,956.64283,
1165.950,954.51242,
1163.039,970.18826,
1160.129,961.19891,
1157.218,955.4131,
1154.307,951.10732,
1151.397,934.90704,
1148.486,942.51984,
1145.576,971.69874,
1142.665,938.84596,
1139.754,964.60201,
1136.844,929.10683,
1133.933,933.41223,
1131.023,950.06919,
1128.112,960.76646,
1125.202,969.18783,
1122.291,946.13849,
1119.380,980.93445,
1116.470,961.51883,
1113.559,983.86897,
1110.649,954.45364,
1107.738,951.73536,
1104.828,971.95039,
1101.917,970.36127,
1099.006,947.47551,
1096.096,948.37245,
1093.185,936.08042,
1090.275,955.35676,
1087.364,962.86949,
1084.453,948.93847,
1081.543,954.65384,
1078.632,974.61784,
1075.722,967.43246,
1072.811,960.68347,
1069.901,968.54282,
1066.990,1001.4583,
1064.079,1013.2081,
1061.169,1009.0497,
1058.258,996.50226,
1055.348,998.17729,
1052.437,1023.8452,
1049.527,1006.3865,
1046.616,987.27229,
1043.705,1003.6234,
1040.795,1018.7026,
1037.884,1020.0791,
1034.974,1012.4008,
1032.063,1003.9789,
1029.153,1001.2795,
1026.242,1035.8777,
1023.331,1026.2924,
1020.421,1027.6105,
1017.510,1048.1744,
1014.600,1078.3505,
1011.689,1090.2878,
1008.778,1061.9673,
1005.868,1025.8856,
1002.957,999.21463,
1000.047,1108.693,
997.136,1179.904,
994.226,1188.079,
991.315,1174.6473,
988.404,1164.506,
985.494,1094.3743,
982.583,1105.5096,
979.673,1159.0719,
976.762,1130.5697,
973.852,1117.4575,
970.941,1131.8625,
968.030,1113.0904,
965.120,1158.0999,
962.209,1152.1321,
959.299,1170.956,
956.388,1175.7652,
953.477,1165.3155,
950.567,1155.4321,
947.656,1158.1223,
944.746,1150.4763,
941.835,1165.5115,
938.925,1152.6737,
936.014,1152.2182,
933.103,1154.8286,
930.193,1143.9265,
927.282,1139.1708,
924.372,1140.0164,
921.461,1112.1418,
918.551,1087.0207,
915.640,1072.7255,
912.729,1066.5149,
909.819,1065.1275,
906.908,1087.873,
903.998,1070.0363,
901.087,1071.4901,
898.176,1072.739,
895.266,1082.5036,
892.355,1111.4809,
889.445,1124.0699,
886.534,1129.1342,
883.624,1131.4707,
880.713,1131.1043,
877.802,1104.0706,
874.892,1042.6234,
871.981,985.80322,
869.071,929.83056,
866.160,973.94185,
863.250,1048.4485,
860.339,1098.4207,
857.428,1106.5076,
854.518,1106.0308,
851.607,1033.6407,
848.697,1042.4473,
845.786,1017.3543,
842.875,1020.0798,
839.965,1087.1008,
837.054,1096.6088,
834.144,1139.7039,
831.233,1146.1251,
828.323,1154.5219,
825.412,1164.125,
822.501,1159.3589,
819.591,1132.9141,
816.680,1178.5994,
813.770,1161.9324,
810.859,1124.3679,
807.949,1094.9908,
805.038,1086.4148,
802.127,1105.3468,
799.217,1099.6711,
796.306,1085.7736,
793.396,1074.7891,
790.485,1073.652,
787.574,1084.1214,
784.664,1110.365,
781.753,1103.0473,
778.843,1104.9663,
775.932,1106.335,
773.022,1094.6753,
770.111,1117.5675,
767.200,1081.0594,
764.290,1066.2356,
761.379,1074.3656,
758.469,1096.8215,
755.558,1121.1525,
752.648,1088.5683,
749.737,1098.4447,
746.826,1120.1792,
743.916,1125.6314,
741.005,1102.9591,
738.095,1119.1966,
735.184,1087.5172,
732.274,1017.3281,
729.363,978.2293,
726.452,1011.7727,
723.542,1065.1927,
720.631,1070.4186,
717.721,1078.572,
714.810,1085.6477,
711.899,1081.1646,
708.989,1051.3084,
706.078,1105.6136,
703.168,1086.3351,
700.257,1074.2016,
697.347,1075.8218,
694.436,1035.4087,
691.525,1045.8582,
688.615,1046.2383,
685.704,1043.8299,
682.794,1049.8483,
679.883,1076.1342,
676.973,1098.5726,
674.062,1085.2587,
671.151,1079.5083,
668.241,1083.4573,
665.330,1078.3519,
662.420,1083.1443,
659.509,1074.601,
656.598,1101.5812,
653.688,1131.0126,
650.777,1086.666,
647.867,1073.1284,
644.956,1042.2632,
642.046,1005.6389,
639.135,988.18624,
636.224,1026.4115,
633.314,1083.575,
630.403,1112.9053,
627.493,1103.5372,
624.582,1072.8313,
621.672,1075.9993,
618.761,1111.8421,
615.850,1098.3305,
612.940,1090.4202,
610.029,1113.4674,
607.119,1109.5192,
604.208,1115.5151,
601.297,1089.7095,
598.387,1071.4438,
595.476,1099.4277,
592.566,1123.8268,
589.655,1119.0545,
586.745,1113.691,
583.834,1113.5642,
580.923,1115.3762,
578.013,1156.9671,
575.102,1137.7248,
572.192,1112.9813,
569.281,1119.5294,
566.371,1177.4435,
563.460,1142.2078,
560.549,1115.3794,
557.639,1104.0507,
554.728,1102.1597,
551.818,1118.5463,
548.907,1105.0614,
545.996,1098.7905,
543.086,1109.3125,
540.175,1124.1068,
537.265,1095.4295,
534.354,1106.1994,
531.444,1124.7811,
528.533,1117.2286,
525.622,1132.7476,
522.712,1151.9006,
519.801,1165.9438,
516.891,1172.5945,
513.980,1174.9174,
511.070,1166.6728,
508.159,1177.9296,
505.248,1198.1308,
502.338,1210.5091,
499.427,1223.6302,
496.517,1242.3977,
493.606,1248.7411,
490.695,1235.6644,
487.785,1217.9592,
484.874,1212.5401,
481.964,1219.4306,
479.053,1231.4927,
476.143,1233.0286,
473.232,1235.2832,
470.321,1245.8565,
467.411,1242.1957,
464.500,1202.0559,
461.590,1238.8114,
458.679,1254.6279,
455.769,1259.4401,
452.858,1261.4771,
449.947,1274.4639,
447.037,1281.3723,
444.126,1292.9977,
441.216,1306.0084,
438.305,1293.8175,
435.395,1280.3235,
432.484,1267.0402,
429.573,1254.995,
426.663,1245.8733,
423.752,1111.918,
420.842,995.66919,
417.931,923.10844,
415.020,912.49142,
412.110,1097.9547,
409.199,1232.1396,
406.289,1278.4949,
403.378,1209.3555,
400.468,1277.395,
397.557,1259.0213,
394.646,1269.8766,
391.736,1400.7729,
388.825,1358.5359,
385.915,1351.4469,
383.004,1370.1166,
380.094,1403.1672,
377.183,1364.7909,
374.272,1379.0929,
371.362,1401.3023,
368.451,1404.5353,
365.541,1411.2901,
362.630,1406.0239,
359.719,1406.3403,
356.809,1420.3094,
353.898,1406.8311,
350.988,1397.7001,
348.077,1396.9003,
345.167,1407.563,
342.256,1435.9516,
339.345,1430.3078,
336.435,1410.63,
333.524,1392.0645,
330.614,1421.8707,
327.703,1429.0714,
324.793,1418.1023,
321.882,1392.1737,
318.971,1412.2466,
316.061,1437.1926,
313.150,1454.0464,
310.240,1447.3674,
307.329,1509.2984,
304.418,1511.3273,
301.508,1488.2604,
298.597,1503.8091,
295.687,1495.6436,
292.776,1496.5417,
289.866,1509.1071,
286.955,1532.7463,
284.044,1551.305,
281.134,1578.2691,
278.223,1607.5083,
275.313,1596.4555,
272.402,1574.9552,
269.492,1552.8868,
266.581,1537.227,
263.670,1566.6342,
260.760,1592.886,
257.849,1614.2575,
254.939,1628.9352,
252.028,1584.9705,
249.117,1597.362,
246.207,1641.4061,
243.296,1677.2759,
240.386,1626.2737,
237.475,1603.272,
234.565,1621.5225,
231.654,1674.8405,
228.743,1642.9724,
225.833,1612.3446,
222.922,1615.2609,
220.012,1618.1751,
217.101,1599.0057,
214.191,1594.517,
211.280,1649.0767,
208.369,1659.8531,
205.459,1661.528,
202.548,1650.852,
199.638,1602.9591,
196.727,1635.765,
193.816,1675.5536,
190.906,1694.5409,
187.995,1677.8884,
185.085,1658.4122,
182.174,1648.218,
179.264,1667.0099,
176.353,1669.125,
173.442,1676.7387,
170.532,1689.621,
167.621,1685.2951,
164.711,1607.3921,
161.800,1514.0401,
158.890,1443.5068,
155.979,1380.5551,
153.068,1280.8794,
150.158,1153.6042,
147.247,1032.9882,
144.337,846.64016,
141.426,654.43408,
138.516,483.09707,
135.605,360.06685,
132.694,253.75758,
129.784,165.97542,
126.873,108.76503,
123.963,76.069405,
121.052,55.592372,
118.141,44.16994,
115.231,33.466445,
112.320,28.277728,
109.410,27.125,
106.499,27.125,
103.589,18.160928,
100.678,10.853378,
97.767,10.142441,
94.857,14.282934,
91.946,12.900113,
89.036,8.4636937,
86.125,10.59131,
83.215,10.59408,
80.304,9.8855673,
77.393,9.1773974,
74.483,9.780135,
71.572,11.212056,
68.662,12.84793,
65.751,10.022126,
62.840,6.7164901,
59.930,3.9377138,
57.019,3.2326318,
54.109,4.3193217,
51.198,4.2201722,
48.288,2.1193376,
45.377,1.4159595,
42.466,4.0105354,
39.556,7.4342885,
36.645,3.2211472,
33.735,6.2789877,
30.824,7.9161303,
27.914,0.90437781,
25.003,3.2381874,
22.092,5.7708091,
19.182,7.7657202,
16.271,27.351444,
13.361,108.45869,
10.450,238.21092,
7.539,407.20324,
4.629,536.83495,
1.718,499.09798,
-1.192,114.2742,
-4.103,15.903772,
-7.013,-9.7945526,
-9.924,4.125,
