,PLACF7~1,
Raman shift [1/cm],Intensity,
3014.167,3.125,
3011.256,-0.47491411,
3008.346,89.523443,
3005.435,109.78225,
3002.525,134.05006,
2999.614,134.98603,
2996.704,141.75386,
2993.793,135.38191,
2990.882,128.43035,
2987.972,136.125,
2985.061,142.3319,
2982.151,158.93173,
2979.240,157.27615,
2976.329,157.13592,
2973.419,173.35607,
2970.508,163.59165,
2967.598,175.88604,
2964.687,178.7663,
2961.777,186.21901,
2958.866,191.12797,
2955.955,188.6427,
2953.045,194.79392,
2950.134,214.76349,
2947.224,212.38122,
2944.313,218.42842,
2941.403,227.29197,
2938.492,223.68868,
2935.581,225.75934,
2932.671,238.2495,
2929.760,244.5519,
2926.850,246.23665,
2923.939,240.92877,
2921.028,249.70169,
2918.118,247.9449,
2915.207,254.18838,
2912.297,251.15885,
2909.386,266.11041,
2906.476,256.90029,
2903.565,271.77093,
2900.654,249.94908,
2897.744,272.87356,
2894.833,251.06318,
2891.923,247.3141,
2889.012,251.62789,
2886.102,251.1858,
2883.191,254.12783,
2880.280,245.23983,
2877.370,236.125,
2874.459,235.88606,
2871.549,254.30934,
2868.638,256.39717,
2865.727,265.3058,
2862.817,269.42579,
2859.906,271.58084,
2856.996,276.61821,
2854.085,279.00525,
2851.175,283.48341,
2848.264,283.70334,
2845.353,278.36224,
2842.443,285.13196,
2839.532,272.91608,
2836.622,257.91146,
2833.711,258.48765,
2830.801,240.84485,
2827.890,262.46068,
2824.979,281.18695,
2822.069,278.87481,
2819.158,265.10614,
2816.248,284.84895,
2813.337,281.69207,
2810.427,283.73519,
2807.516,266.81578,
2804.605,286.49038,
2801.695,274.46709,
2798.784,266.42069,
2795.874,280.13028,
2792.963,278.98223,
2790.052,288.1235,
2787.142,262.65146,
2784.231,282.38276,
2781.321,267.7536,
2778.410,272.97526,
2775.500,263.29569,
2772.589,279.85513,
2769.678,265.94755,
2766.768,283.03959,
2763.857,274.70496,
2760.947,274.06826,
2758.036,279.52636,
2755.126,275.4562,
2752.215,281.65682,
2749.304,301.31563,
2746.394,283.21978,
2743.483,287.67495,
2740.573,286.47894,
2737.662,288.59245,
2734.751,299.65905,
2731.841,277.39422,
2728.930,296.45129,
2726.020,291.34433,
2723.109,305.97008,
2720.199,286.22177,
2717.288,298.40602,
2714.377,296.99582,
2711.467,304.125,
2708.556,303.08247,
2705.646,307.19544,
2702.735,312.77447,
2699.825,293.67954,
2696.914,304.07774,
2694.003,302.82255,
2691.093,314.42826,
2688.182,297.72426,
2685.272,302.52329,
2682.361,309.48963,
2679.450,313.125,
2676.540,319.96241,
2673.629,312.45684,
2670.719,305.41705,
2667.808,321.10365,
2664.898,316.268,
2661.987,322.29194,
2659.076,320.90518,
2656.166,327.99517,
2653.255,319.56888,
2650.345,326.6132,
2647.434,325.86778,
2644.524,327.75811,
2641.613,340.61086,
2638.702,339.18812,
2635.792,333.0612,
2632.881,335.0418,
2629.971,323.89007,
2627.060,347.46,
2624.149,339.63749,
2621.239,360.40316,
2618.328,324.09991,
2615.418,344.46591,
2612.507,333.05784,
2609.597,338.11502,
2606.686,342.31978,
2603.775,348.88691,
2600.865,358.94754,
2597.954,355.98126,
2595.044,356.09843,
2592.133,367.01677,
2589.223,372.79974,
2586.312,361.34608,
2583.401,371.67609,
2580.491,366.76924,
2577.580,350.17451,
2574.670,376.80415,
2571.759,365.37243,
2568.848,383.70522,
2565.938,347.02963,
2563.027,367.68635,
2560.117,379.75118,
2557.206,375.08441,
2554.296,370.15475,
2551.385,368.99294,
2548.474,380.12538,
2545.564,360.04301,
2542.653,385.125,
2539.743,386.60652,
2536.832,393.41098,
2533.922,400.15654,
2531.011,395.80054,
2528.100,385.52223,
2525.190,387.96271,
2522.279,408.37463,
2519.369,393.72874,
2516.458,392.9012,
2513.548,408.11567,
2510.637,407.7561,
2507.726,399.00232,
2504.816,387.06186,
2501.905,409.90732,
2498.995,403.30416,
2496.084,400.91243,
2493.173,393.54619,
2490.263,408.29338,
2487.352,400.16673,
2484.442,404.25775,
2481.531,400.01342,
2478.621,410.62271,
2475.710,397.33203,
2472.799,422.15193,
2469.889,405.94492,
2466.978,412.44442,
2464.068,423.91338,
2461.157,412.74001,
2458.247,415.38976,
2455.336,425.74144,
2452.425,432.58255,
2449.515,440.02104,
2446.604,429.30474,
2443.694,422.38075,
2440.783,433.27027,
2437.872,436.23439,
2434.962,431.77017,
2432.051,417.95229,
2429.141,447.18942,
2426.230,442.10287,
2423.320,448.18226,
2420.409,448.04157,
2417.498,460.31321,
2414.588,460.67254,
2411.677,451.55127,
2408.767,444.47244,
2405.856,462.55837,
2402.946,455.125,
2400.035,463.21656,
2397.124,452.15707,
2394.214,470.61021,
2391.303,454.83774,
2388.393,455.60408,
2385.482,449.47749,
2382.571,476.64421,
2379.661,467.26457,
2376.750,476.85891,
2373.840,466.51571,
2370.929,484.86509,
2368.019,463.82326,
2365.108,488.1695,
2362.197,500.95785,
2359.287,476.96511,
2356.376,492.08978,
2353.466,487.86638,
2350.555,493.64466,
2347.645,486.82168,
2344.734,500.0052,
2341.823,512.94258,
2338.913,481.32204,
2336.002,495.38338,
2333.092,508.76842,
2330.181,509.56237,
2327.270,523.1349,
2324.360,509.5283,
2321.449,518.5876,
2318.539,516.29316,
2315.628,508.79686,
2312.718,520.07434,
2309.807,526.03199,
2306.896,514.65239,
2303.986,527.73541,
2301.075,529.89096,
2298.165,521.94217,
2295.254,516.21117,
2292.344,533.02129,
2289.433,527.46091,
2286.522,535.31244,
2283.612,527.63391,
2280.701,509.8739,
2277.791,538.16695,
2274.880,559.91506,
2271.969,544.64352,
2269.059,542.4765,
2266.148,548.77275,
2263.238,550.125,
2260.327,572.81448,
2257.417,555.125,
2254.506,562.81164,
2251.595,578.69225,
2248.685,571.07696,
2245.774,561.7185,
2242.864,584.30957,
2239.953,558.35258,
2237.043,568.86606,
2234.132,581.37177,
2231.221,579.125,
2228.311,586.9536,
2225.400,592.78726,
2222.490,579.45395,
2219.579,580.3307,
2216.669,600.60354,
2213.758,609.03873,
2210.847,618.3794,
2207.937,616.28787,
2205.026,638.23725,
2202.116,614.46681,
2199.205,639.24971,
2196.294,638.38102,
2193.384,635.967,
2190.473,636.26702,
2187.563,670.14433,
2184.652,677.43846,
2181.742,699.07991,
2178.831,710.08222,
2175.920,730.86271,
2173.010,763.15164,
2170.099,766.79216,
2167.189,809.56988,
2164.278,875.23354,
2161.368,917.12283,
2158.457,973.98656,
2155.546,1005.2606,
2152.636,1031.7579,
2149.725,1066.4203,
2146.815,1104.0238,
2143.904,1177.5413,
2140.993,1217.8234,
2138.083,1209.9123,
2135.172,1198.0746,
2132.262,1236.0449,
2129.351,1244.5525,
2126.441,1193.4161,
2123.530,1156.2495,
2120.619,1072.9326,
2117.709,1024.6322,
2114.798,982.1979,
2111.888,911.51451,
2108.977,846.50909,
2106.067,820.4742,
2103.156,785.33077,
2100.245,760.11308,
2097.335,741.72709,
2094.424,745.6463,
2091.514,728.39368,
2088.603,702.97291,
2085.692,683.07309,
2082.782,682.6751,
2079.871,694.87529,
2076.961,695.18958,
2074.050,659.85227,
2071.140,673.80319,
2068.229,673.21354,
2065.318,678.80425,
2062.408,683.61744,
2059.497,676.9107,
2056.587,655.10202,
2053.676,638.3256,
2050.766,664.7386,
2047.855,676.24215,
2044.944,648.51922,
2042.034,658.43706,
2039.123,639.1048,
2036.213,633.58721,
2033.302,635.64664,
2030.391,644.9893,
2027.481,646.3811,
2024.570,637.69665,
2021.660,634.24326,
2018.749,652.02328,
2015.839,626.27723,
2012.928,637.59647,
2010.017,635.2933,
2007.107,642.682,
2004.196,644.85122,
2001.286,644.45717,
1998.375,636.73327,
1995.465,636.91161,
1992.554,646.76609,
1989.643,631.71258,
1986.733,633.32237,
1983.822,618.70181,
1980.912,614.07533,
1978.001,621.23448,
1975.090,636.58453,
1972.180,612.64229,
1969.269,599.67094,
1966.359,581.0438,
1963.448,574.66397,
1960.538,591.97821,
1957.627,572.05068,
1954.716,563.29736,
1951.806,584.13144,
1948.895,563.46713,
1945.985,559.47794,
1943.074,583.91842,
1940.164,577.39433,
1937.253,576.94691,
1934.342,558.56083,
1931.432,545.35213,
1928.521,544.37198,
1925.611,537.47574,
1922.700,543.62224,
1919.790,566.79529,
1916.879,537.56623,
1913.968,512.15328,
1911.058,522.67154,
1908.147,505.57904,
1905.237,525.74263,
1902.326,523.24498,
1899.415,540.50061,
1896.505,529.25144,
1893.594,516.49084,
1890.684,518.32104,
1887.773,511.996,
1884.863,524.17284,
1881.952,535.42751,
1879.041,546.47235,
1876.131,527.32239,
1873.220,550.01892,
1870.310,522.56452,
1867.399,492.57282,
1864.489,550.68409,
1861.578,520.35537,
1858.667,564.81666,
1855.757,523.34218,
1852.846,512.41728,
1849.936,532.59047,
1847.025,533.76732,
1844.114,554.72265,
1841.204,550.06556,
1838.293,545.125,
1835.383,565.34548,
1832.472,560.77543,
1829.562,548.04141,
1826.651,590.83542,
1823.740,574.45444,
1820.830,562.66832,
1817.919,557.42436,
1815.009,555.26877,
1812.098,570.38483,
1809.188,564.62114,
1806.277,618.88562,
1803.366,588.25809,
1800.456,595.79526,
1797.545,591.78449,
1794.635,609.80203,
1791.724,616.5037,
1788.813,593.92603,
1785.903,592.6696,
1782.992,581.61234,
1780.082,597.15025,
1777.171,606.45583,
1774.261,606.25018,
1771.350,613.81425,
1768.439,601.55059,
1765.529,609.85373,
1762.618,620.57438,
1759.708,621.61413,
1756.797,622.73864,
1753.887,629.7664,
1750.976,626.45943,
1748.065,608.22178,
1745.155,614.81522,
1742.244,658.21824,
1739.334,630.24972,
1736.423,628.20161,
1733.512,615.75096,
1730.602,641.78576,
1727.691,657.73096,
1724.781,668.56392,
1721.870,671.125,
1718.960,695.79196,
1716.049,654.98139,
1713.138,665.7899,
1710.228,640.4052,
1707.317,652.04729,
1704.407,693.65448,
1701.496,699.03655,
1698.586,715.75672,
1695.675,690.92516,
1692.764,699.53894,
1689.854,753.69983,
1686.943,706.84501,
1684.033,765.58515,
1681.122,707.16154,
1678.211,716.02983,
1675.301,751.01708,
1672.390,793.16687,
1669.480,806.73192,
1666.569,759.33111,
1663.659,853.40265,
1660.748,869.45014,
1657.837,835.05939,
1654.927,833.53075,
1652.016,891.66332,
1649.106,874.52042,
1646.195,929.6215,
1643.285,910.10482,
1640.374,953.31663,
1637.463,1008.4224,
1634.553,971.10034,
1631.642,1036.7222,
1628.732,1091.7175,
1625.821,1191.1446,
1622.911,1220.9559,
1620.000,1343.5628,
1617.089,1385.3091,
1614.179,1509.5435,
1611.268,1556.452,
1608.358,1664.8808,
1605.447,1741.7827,
1602.536,1747.0569,
1599.626,1794.0416,
1596.715,1787.2338,
1593.805,1800.4343,
1590.894,1779.2276,
1587.984,1756.2049,
1585.073,1714.8382,
1582.162,1657.197,
1579.252,1695.4048,
1576.341,1710.9314,
1573.431,1687.0634,
1570.520,1664.8375,
1567.610,1643.7326,
1564.699,1573.5973,
1561.788,1563.9136,
1558.878,1550.3249,
1555.967,1502.8064,
1553.057,1449.315,
1550.146,1428.8959,
1547.235,1397.428,
1544.325,1373.8629,
1541.414,1366.1844,
1538.504,1324.645,
1535.593,1300.8371,
1532.683,1285.0207,
1529.772,1257.4374,
1526.861,1253.4691,
1523.951,1238.3796,
1521.040,1200.4699,
1518.130,1129.1902,
1515.219,1134.1245,
1512.309,1147.17,
1509.398,1124.6061,
1506.487,1097.6683,
1503.577,1102.1823,
1500.666,1113.5654,
1497.756,1102.4123,
1494.845,1021.7253,
1491.934,1035.8888,
1489.024,963.70181,
1486.113,1005.6313,
1483.203,965.60478,
1480.292,944.85179,
1477.382,929.19303,
1474.471,894.66246,
1471.560,923.5853,
1468.650,906.01114,
1465.739,905.21578,
1462.829,904.76956,
1459.918,890.28515,
1457.008,894.29437,
1454.097,898.19263,
1451.186,903.8484,
1448.276,899.87994,
1445.365,860.44648,
1442.455,858.3918,
1439.544,852.47105,
1436.633,861.49441,
1433.723,876.39235,
1430.812,830.73157,
1427.902,764.41033,
1424.991,818.43279,
1422.081,777.00358,
1419.170,780.03748,
1416.259,768.97405,
1413.349,737.42584,
1410.438,706.43183,
1407.528,753.77427,
1404.617,741.09038,
1401.707,719.66393,
1398.796,732.37324,
1395.885,730.09738,
1392.975,722.25009,
1390.064,718.47296,
1387.154,709.70509,
1384.243,729.74358,
1381.332,677.6703,
1378.422,701.60296,
1375.511,769.05119,
1372.601,860.43889,
1369.690,826.97832,
1366.780,831.21349,
1363.869,879.89305,
1360.958,974.37031,
1358.048,1062.1833,
1355.137,1075.6747,
1352.227,1059.04,
1349.316,1091.2313,
1346.406,1150.343,
1343.495,1185.8271,
1340.584,1236.0529,
1337.674,1280.7698,
1334.763,1311.2309,
1331.853,1314.0125,
1328.942,1371.9402,
1326.032,1392.9906,
1323.121,1462.0708,
1320.210,1483.7932,
1317.300,1510.2757,
1314.389,1544.0281,
1311.479,1589.5811,
1308.568,1652.0357,
1305.657,1687.7535,
1302.747,1707.4316,
1299.836,1821.2135,
1296.926,1840.9961,
1294.015,1945.799,
1291.105,2011.7629,
1288.194,2052.0747,
1285.283,2099.5052,
1282.373,2172.0779,
1279.462,2229.2814,
1276.552,2276.9991,
1273.641,2323.1704,
1270.731,2344.0668,
1267.820,2341.4101,
1264.909,2347.8281,
1261.999,2332.1236,
1259.088,2359.4873,
1256.178,2328.5797,
1253.267,2257.1462,
1250.356,2183.6219,
1247.446,2134.0692,
1244.535,2073.518,
1241.625,1993.5992,
1238.714,1927.7364,
1235.804,1875.6252,
1232.893,1788.3854,
1229.982,1741.217,
1227.072,1743.9329,
1224.161,1737.401,
1221.251,1713.0452,
1218.340,1648.1175,
1215.430,1586.295,
1212.519,1571.5385,
1209.608,1586.96,
1206.698,1605.6572,
1203.787,1647.929,
1200.877,1664.5737,
1197.966,1687.9519,
1195.055,1713.8692,
1192.145,1751.1841,
1189.234,1814.0284,
1186.324,1849.7621,
1183.413,1882.1809,
1180.503,1897.5877,
1177.592,1857.7815,
1174.681,1837.464,
1171.771,1818.7541,
1168.860,1802.6785,
1165.950,1761.6168,
1163.039,1740.9506,
1160.129,1737.3047,
1157.218,1753.5086,
1154.307,1744.5243,
1151.397,1703.4711,
1148.486,1703.0817,
1145.576,1663.8189,
1142.665,1679.8013,
1139.754,1667.2933,
1136.844,1672.5286,
1133.933,1649.1457,
1131.023,1632.9576,
1128.112,1636.4821,
1125.202,1628.6709,
1122.291,1604.0051,
1119.380,1617.151,
1116.470,1619.7986,
1113.559,1664.2002,
1110.649,1676.4702,
1107.738,1649.3341,
1104.828,1634.0309,
1101.917,1654.5929,
1099.006,1673.7952,
1096.096,1658.8775,
1093.185,1671.1696,
1090.275,1659.9859,
1087.364,1650.9499,
1084.453,1654.3121,
1081.543,1683.2272,
1078.632,1695.9481,
1075.722,1659.6982,
1072.811,1677.4209,
1069.901,1709.7316,
1066.990,1727.4833,
1064.079,1727.7224,
1061.169,1723.9158,
1058.258,1737.794,
1055.348,1761.1827,
1052.437,1764.9771,
1049.527,1759.9642,
1046.616,1781.6849,
1043.705,1792.6034,
1040.795,1818.7497,
1037.884,1856.4004,
1034.974,1864.1108,
1032.063,1834.502,
1029.153,1832.7722,
1026.242,1888.1294,
1023.331,1876.7925,
1020.421,1874.125,
1017.510,1880.8483,
1014.600,1896.2753,
1011.689,1926.6591,
1008.778,1970.764,
1005.868,1986.5497,
1002.957,2033.8692,
1000.047,2135.765,
997.136,2207.5392,
994.226,2242.9402,
991.315,2251.1671,
988.404,2236.6126,
985.494,2206.8591,
982.583,2150.3264,
979.673,2160.4162,
976.762,2164.1895,
973.852,2169.1972,
970.941,2173.3829,
968.030,2163.6279,
965.120,2172.168,
962.209,2182.3985,
959.299,2199.7065,
956.388,2189.886,
953.477,2186.1676,
950.567,2186.0538,
947.656,2158.9291,
944.746,2233.6901,
941.835,2208.7815,
938.925,2210.0216,
936.014,2196.9269,
933.103,2167.7667,
930.193,2145.5245,
927.282,2145.2919,
924.372,2111.4676,
921.461,2101.2338,
918.551,2063.1071,
915.640,2031.1758,
912.729,2022.5883,
909.819,2018.2337,
906.908,1996.3306,
903.998,1993.5343,
901.087,2015.4027,
898.176,2017.6267,
895.266,2022.9471,
892.355,2064.308,
889.445,2092.0038,
886.534,2114.6665,
883.624,2125.1805,
880.713,2166.912,
877.802,2190.9241,
874.892,2173.4789,
871.981,2205.3556,
869.071,2172.7745,
866.160,2170.5748,
863.250,2184.7059,
860.339,2172.1407,
857.428,2129.125,
854.518,2128.0658,
851.607,2091.4548,
848.697,2103.6961,
845.786,2090.3284,
842.875,2072.9214,
839.965,2080.6396,
837.054,2091.725,
834.144,2056.0886,
831.233,2057.791,
828.323,2048.7716,
825.412,2032.2273,
822.501,2020.1674,
819.591,1987.1114,
816.680,1990.1314,
813.770,1958.5469,
810.859,1935.5151,
807.949,1933.3299,
805.038,1936.2378,
802.127,1912.3671,
799.217,1889.2541,
796.306,1901.4224,
793.396,1899.7737,
790.485,1883.6011,
787.574,1919.2184,
784.664,1921.6787,
781.753,1899.3115,
778.843,1910.1787,
775.932,1925.4091,
773.022,1913.3237,
770.111,1946.8444,
767.200,1923.2404,
764.290,1935.3507,
761.379,1929.6439,
758.469,1896.8694,
755.558,1892.2223,
752.648,1895.4807,
749.737,1874.583,
746.826,1833.2868,
743.916,1814.7616,
741.005,1834.2163,
738.095,1649.1084,
735.184,1572.7805,
732.274,1527.9855,
729.363,1573.6986,
726.452,1722.6663,
723.542,1819.7935,
720.631,1841.1803,
717.721,1868.466,
714.810,1875.608,
711.899,1869.7191,
708.989,1910.8723,
706.078,1891.8937,
703.168,1864.6578,
700.257,1857.5513,
697.347,1865.9513,
694.436,1858.0814,
691.525,1856.4737,
688.615,1827.824,
685.704,1819.7589,
682.794,1830.4229,
679.883,1827.9448,
676.973,1823.9379,
674.062,1796.9636,
671.151,1809.7398,
668.241,1842.7425,
665.330,1836.146,
662.420,1857.7118,
659.509,1830.3784,
656.598,1823.8092,
653.688,1839.355,
650.777,1839.99,
647.867,1836.0083,
644.956,1836.3633,
642.046,1844.5878,
639.135,1857.4307,
636.224,1866.129,
633.314,1866.9229,
630.403,1896.0943,
627.493,1896.5372,
624.582,1871.8347,
621.672,1901.9305,
618.761,1906.9247,
615.850,1916.3898,
612.940,1908.439,
610.029,1885.1229,
607.119,1915.1288,
604.208,1959.3058,
601.297,1948.208,
598.387,1919.8384,
595.476,1917.6394,
592.566,1901.8981,
589.655,1897.8292,
586.745,1891.0494,
583.834,1885.5404,
580.923,1894.125,
578.013,1894.125,
575.102,1901.5816,
572.192,1896.7638,
569.281,1888.9512,
566.371,1949.2132,
563.460,1909.975,
560.549,1897.9469,
557.639,1901.0966,
554.728,1893.032,
551.818,1939.0707,
548.907,1946.0779,
545.996,1963.5645,
543.086,1986.9112,
540.175,1953.4294,
537.265,1979.3719,
534.354,2019.2231,
531.444,2033.0775,
528.533,1994.7872,
525.622,2004.0986,
522.712,2038.2829,
519.801,2086.6204,
516.891,2126.5864,
513.980,2104.1318,
511.070,2137.3424,
508.159,2172.6604,
505.248,2212.9007,
502.338,2267.0287,
499.427,2297.902,
496.517,2301.0341,
493.606,2316.6415,
490.695,2353.7342,
487.785,2343.7269,
484.874,2336.309,
481.964,2329.3875,
479.053,2329.4569,
476.143,2351.7278,
473.232,2321.4712,
470.321,2324.2089,
467.411,2323.6631,
464.500,2276.4825,
461.590,2330.0843,
458.679,2287.8944,
455.769,2266.9603,
452.858,2323.8408,
449.947,2330.7162,
447.037,2350.9346,
444.126,2371.2583,
441.216,2390.152,
438.305,2419.1054,
435.395,2436.2377,
432.484,2433.1229,
429.573,2420.7225,
426.663,2427.5638,
423.752,2479.0366,
420.842,2471.8971,
417.931,2445.0973,
415.020,2473.1566,
412.110,2501.9263,
409.199,2523.8609,
406.289,2544.4883,
403.378,2570.0097,
400.468,2535.99,
397.557,2518.4411,
394.646,2504.0446,
391.736,2482.1009,
388.825,2481.3466,
385.915,2469.4167,
383.004,2459.6961,
380.094,2463.2364,
377.183,2504.6226,
374.272,2586.1437,
371.362,2647.7739,
368.451,2655.7663,
365.541,2682.7856,
362.630,2646.972,
359.719,2625.9234,
356.809,2664.4326,
353.898,2719.0948,
350.988,2720.5628,
348.077,2708.8346,
345.167,2708.5791,
342.256,2717.5439,
339.345,2712.1535,
336.435,2706.7906,
333.524,2710.9136,
330.614,2704.2072,
327.703,2721.6344,
324.793,2731.3601,
321.882,2706.2151,
318.971,2743.3873,
316.061,2766.3796,
313.150,2773.8917,
310.240,2763.5021,
307.329,2802.43,
304.418,2808.55,
301.508,2782.1588,
298.597,2725.8871,
295.687,2726.5429,
292.776,2744.9584,
289.866,2790.6343,
286.955,2902.1818,
284.044,3005.4099,
281.134,3078.7126,
278.223,3121.6518,
275.313,3152.5997,
272.402,3213.149,
269.492,3268.9182,
266.581,3307.8576,
263.670,3346.087,
260.760,3398.3933,
257.849,3432.7888,
254.939,3423.2484,
252.028,3467.2795,
249.117,3470.4202,
246.207,3450.905,
243.296,3438.4604,
240.386,3449.5318,
237.475,3444.5994,
234.565,3417.1523,
231.654,3360.1824,
228.743,3299.7941,
225.833,3240.3431,
222.922,3188.6051,
220.012,3241.7896,
217.101,3213.4884,
214.191,3164.8136,
211.280,3160.4489,
208.369,3125.1387,
205.459,3117.3078,
202.548,3135.7629,
199.638,3162.6119,
196.727,3175.0396,
193.816,3178.3189,
190.906,3174.0488,
187.995,3171.8767,
185.085,3212.7363,
182.174,3248.7432,
179.264,3210.4366,
176.353,3242.6494,
173.442,3259.4994,
170.532,3249.5127,
167.621,3218.5107,
164.711,3179.1165,
161.800,3102.2178,
158.890,2958.9921,
155.979,2793.2718,
153.068,2568.7725,
150.158,2298.4647,
147.247,2024.2069,
144.337,1735.0505,
141.426,1403.778,
138.516,1011.6385,
135.605,711.91301,
132.694,480.35686,
129.784,309.80143,
126.873,200.38656,
123.963,138.85916,
121.052,96.660274,
118.141,65.248586,
115.231,48.781882,
112.320,41.701364,
109.410,38.806961,
106.499,26.700322,
103.589,30.848054,
100.678,32.593918,
97.767,23.351729,
94.857,18.967066,
91.946,20.752998,
89.036,25.447613,
86.125,21.192381,
83.215,20.65592,
80.304,20.406702,
77.393,18.282192,
74.483,16.159595,
71.572,17.299113,
68.662,20.085988,
65.751,9.4892213,
62.840,10.94202,
59.930,15.750428,
57.019,14.340264,
54.109,6.9590698,
51.198,4.5378742,
48.288,10.153312,
45.377,13.670203,
42.466,14.300561,
39.556,13.815711,
36.645,18.028853,
33.735,12.894018,
30.824,6.0205651,
27.914,2.5146889,
25.003,6.4834623,
22.092,9.125,
19.182,9.1936486,
16.271,11.292119,
13.361,85.880146,
10.450,200.46606,
7.539,277.97907,
4.629,210.34975,
1.718,36.825114,
-1.192,-260.8556,
-4.103,-299.48267,
-7.013,-209.88438,
-9.924,-3.875,
