,PL28E6~1,
Wavenumbers [1/cm],Intensity,
3014.167,-5.625,
3011.256,1.3248819,
3008.346,138.63379,
3005.435,151.33259,
3002.525,148.22511,
2999.614,169.94902,
2996.704,169.46366,
2993.793,170.11809,
2990.882,171.98571,
2987.972,183.375,
2985.061,176.72475,
2982.151,185.98846,
2979.240,206.55463,
2976.329,221.86681,
2973.419,209.77474,
2970.508,222.84165,
2967.598,222.80151,
2964.687,221.40421,
2961.777,248.68286,
2958.866,237.7019,
2955.955,238.78651,
2953.045,250.00811,
2950.134,268.3867,
2947.224,261.05825,
2944.313,270.44266,
2941.403,280.31615,
2938.492,271.84385,
2935.581,283.33207,
2932.671,286.57673,
2929.760,289.49422,
2926.850,291.95695,
2923.939,295.77218,
2921.028,305.375,
2918.118,317.25662,
2915.207,320.95716,
2912.297,326.32422,
2909.386,317.14873,
2906.476,335.39743,
2903.565,318.02093,
2900.654,314.55092,
2897.744,317.46301,
2894.833,316.95246,
2891.923,304.7532,
2889.012,330.79119,
2886.102,336.60337,
2883.191,353.36178,
2880.280,381.15969,
2877.370,430.25276,
2874.459,443.24932,
2871.549,393.47942,
2868.638,364.28632,
2865.727,349.36737,
2862.817,342.59023,
2859.906,350.0844,
2856.996,357.40217,
2854.085,346.97373,
2851.175,342.87796,
2848.264,346.816,
2845.353,355.28873,
2842.443,345.78475,
2839.532,342.03169,
2836.622,343.46484,
2833.711,337.8491,
2830.801,334.67721,
2827.890,336.64598,
2824.979,336.733,
2822.069,331.69342,
2819.158,353.67419,
2816.248,355.58158,
2813.337,354.71524,
2810.427,352.11743,
2807.516,348.90016,
2804.605,361.23558,
2801.695,358.23023,
2798.784,355.70969,
2795.874,339.36443,
2792.963,360.9467,
2790.052,351.37843,
2787.142,344.17758,
2784.231,347.60014,
2781.321,348.43786,
2778.410,348.54505,
2775.500,357.3312,
2772.589,340.10665,
2769.678,364.51488,
2766.768,366.01188,
2763.857,348.16884,
2760.947,374.31196,
2758.036,380.47064,
2755.126,358.46688,
2752.215,370.03412,
2749.304,378.48111,
2746.394,369.2439,
2743.483,380.77503,
2740.573,381.5852,
2737.662,377.92826,
2734.751,377.49149,
2731.841,383.72665,
2728.930,399.06588,
2726.020,376.49248,
2723.109,384.92133,
2720.199,383.17805,
2717.288,391.19982,
2714.377,398.0832,
2711.467,411.42445,
2708.556,398.33247,
2705.646,400.75529,
2702.735,407.01931,
2699.825,393.68958,
2696.914,392.66044,
2694.003,425.962,
2691.093,417.71435,
2688.182,425.48463,
2685.272,419.90559,
2682.361,403.59225,
2679.450,419.54374,
2676.540,400.00505,
2673.629,426.39296,
2670.719,413.23636,
2667.808,435.11047,
2664.898,429.71255,
2661.987,431.84158,
2659.076,440.59482,
2656.166,430.48757,
2653.255,428.78146,
2650.345,425.8868,
2647.434,439.40387,
2644.524,448.44454,
2641.613,452.23232,
2638.702,435.69062,
2635.792,449.12574,
2632.881,445.10711,
2629.971,446.375,
2627.060,440.04063,
2624.149,444.24063,
2621.239,442.38093,
2618.328,445.60423,
2615.418,470.72045,
2612.507,468.47776,
2609.597,457.66043,
2606.686,453.98544,
2603.775,461.97818,
2600.865,458.61386,
2597.954,469.18954,
2595.044,485.04462,
2592.133,483.15206,
2589.223,489.50764,
2586.312,505.07858,
2583.401,477.57937,
2580.491,488.44227,
2577.580,495.38985,
2574.670,502.43784,
2571.759,486.91525,
2568.848,487.4303,
2565.938,495.85116,
2563.027,498.54547,
2560.117,496.64603,
2557.206,519.97647,
2554.296,503.49399,
2551.385,513.7389,
2548.474,516.15307,
2545.564,507.84983,
2542.653,519.53272,
2539.743,517.44894,
2536.832,520.43669,
2533.922,520.42231,
2531.011,516.50058,
2528.100,507.97085,
2525.190,527.44303,
2522.279,523.17227,
2519.369,528.20587,
2516.458,513.49398,
2513.548,519.94776,
2510.637,534.43648,
2507.726,529.4419,
2504.816,525.37613,
2501.905,525.07073,
2498.995,530.3305,
2496.084,545.98824,
2493.173,554.55944,
2490.263,561.17274,
2487.352,533.29313,
2484.442,555.51418,
2481.531,562.06113,
2478.621,578.42718,
2475.710,568.40567,
2472.799,573.36154,
2469.889,577.34453,
2466.978,573.3235,
2464.068,580.95175,
2461.157,579.1825,
2458.247,574.11024,
2455.336,585.52179,
2452.425,576.54479,
2449.515,582.93219,
2446.604,600.61929,
2443.694,584.04934,
2440.783,586.42342,
2437.872,588.375,
2434.962,590.73905,
2432.051,601.27631,
2429.141,616.76309,
2426.230,598.93959,
2423.320,599.26047,
2420.409,608.6186,
2417.498,609.16995,
2414.588,598.93018,
2411.677,615.58612,
2408.767,598.92815,
2405.856,614.72023,
2402.946,620.11316,
2400.035,617.77875,
2397.124,635.8242,
2394.214,634.18461,
2391.303,605.69004,
2388.393,616.50297,
2385.482,619.63937,
2382.571,645.55234,
2379.661,651.42133,
2376.750,649.27413,
2373.840,638.51249,
2370.929,662.12592,
2368.019,653.6878,
2365.108,659.02683,
2362.197,657.1531,
2359.287,658.77834,
2356.376,640.4067,
2353.466,643.78426,
2350.555,647.69523,
2347.645,665.66373,
2344.734,679.2552,
2341.823,681.375,
2338.913,693.33616,
2336.002,669.0831,
2333.092,693.96088,
2330.181,678.95053,
2327.270,680.71494,
2324.360,708.87976,
2321.449,682.17431,
2318.539,683.07838,
2315.628,704.92896,
2312.718,698.89262,
2309.807,703.67295,
2306.896,715.83196,
2303.986,702.42048,
2301.075,707.60904,
2298.165,701.99027,
2295.254,717.98723,
2292.344,704.05545,
2289.433,721.06227,
2286.522,733.04905,
2283.612,731.78443,
2280.701,708.46921,
2277.791,712.05814,
2274.880,750.66303,
2271.969,748.24331,
2269.059,752.69925,
2266.148,763.77734,
2263.238,759.37887,
2260.327,769.9955,
2257.417,752.56111,
2254.506,761.63428,
2251.595,767.09138,
2248.685,780.84225,
2245.774,788.17717,
2242.864,742.0707,
2239.953,795.83016,
2237.043,781.39966,
2234.132,761.33082,
2231.221,788.82473,
2228.311,789.67656,
2225.400,832.81209,
2222.490,812.81798,
2219.579,809.34929,
2216.669,818.82015,
2213.758,831.67958,
2210.847,837.21127,
2207.937,823.02649,
2205.026,841.26421,
2202.116,841.29006,
2199.205,863.07523,
2196.294,855.00301,
2193.384,853.0855,
2190.473,860.23885,
2187.563,864.62151,
2184.652,914.01949,
2181.742,907.85246,
2178.831,915.77191,
2175.920,929.5353,
2173.010,958.57681,
2170.099,1005.504,
2167.189,1037.5687,
2164.278,1073.3258,
2161.368,1140.8017,
2158.457,1196.7437,
2155.546,1232.7077,
2152.636,1311.3589,
2149.725,1363.0126,
2146.815,1401.2071,
2143.904,1456.6724,
2140.993,1465.9727,
2138.083,1521.7519,
2135.172,1535.3246,
2132.262,1530.735,
2129.351,1527.3957,
2126.441,1502.7536,
2123.530,1456.1505,
2120.619,1427.1552,
2117.709,1360.1459,
2114.798,1299.4131,
2111.888,1213.1139,
2108.977,1161.7591,
2106.067,1129.6572,
2103.156,1089.9413,
2100.245,1064.3405,
2097.335,1007.6891,
2094.424,992.50281,
2091.514,971.21898,
2088.603,948.90035,
2085.692,943.6464,
2082.782,944.61594,
2079.871,943.08912,
2076.961,932.08536,
2074.050,967.27803,
2071.140,960.22598,
2068.229,935.27994,
2065.318,937.69575,
2062.408,936.82205,
2059.497,937.97023,
2056.587,910.13124,
2053.676,929.58982,
2050.766,946.52821,
2047.855,921.2326,
2044.944,918.10416,
2042.034,917.52513,
2039.123,899.77904,
2036.213,928.3194,
2033.302,929.59216,
2030.391,922.40944,
2027.481,924.02122,
2024.570,937.64618,
2021.660,949.72458,
2018.749,932.10907,
2015.839,927.79626,
2012.928,945.67366,
2010.017,954.67359,
2007.107,964.91146,
2004.196,960.52971,
2001.286,978.39968,
1998.375,962.49408,
1995.465,923.56339,
1992.554,930.52195,
1989.643,942.02936,
1986.733,970.82324,
1983.822,939.28416,
1980.912,920.06853,
1978.001,930.59577,
1975.090,910.57805,
1972.180,922.89094,
1969.269,941.90375,
1966.359,946.67231,
1963.448,947.375,
1960.538,963.60519,
1957.627,948.65053,
1954.716,934.71972,
1951.806,942.53047,
1948.895,926.11994,
1945.985,923.35376,
1943.074,918.53368,
1940.164,918.86544,
1937.253,928.10968,
1934.342,926.30655,
1931.432,906.25197,
1928.521,917.50626,
1925.611,894.49873,
1922.700,905.90953,
1919.790,911.51374,
1916.879,909.5145,
1913.968,948.32705,
1911.058,917.70533,
1908.147,923.30494,
1905.237,928.18382,
1902.326,923.90241,
1899.415,918.81401,
1896.505,930.04397,
1893.594,957.47252,
1890.684,940.76064,
1887.773,947.19372,
1884.863,945.44562,
1881.952,947.34993,
1879.041,939.78414,
1876.131,916.01553,
1873.220,909.63163,
1870.310,925.15524,
1867.399,920.47096,
1864.489,943.03704,
1861.578,958.34761,
1858.667,948.52171,
1855.757,953.55996,
1852.846,966.60578,
1849.936,946.00364,
1847.025,936.37012,
1844.114,966.01973,
1841.204,964.29458,
1838.293,952.36835,
1835.383,958.0145,
1832.472,954.03761,
1829.562,951.6526,
1826.651,997.50431,
1823.740,970.32893,
1820.830,984.01307,
1817.919,997.44688,
1815.009,973.54422,
1812.098,1015.1545,
1809.188,956.5922,
1806.277,993.44546,
1803.366,1027.3085,
1800.456,1024.1444,
1797.545,1035.6233,
1794.635,1022.3741,
1791.724,1047.7245,
1788.813,1044.9822,
1785.903,1062.6851,
1782.992,1044.4242,
1780.082,1038.4838,
1777.171,1069.3889,
1774.261,1107.5047,
1771.350,1080.6047,
1768.439,1092.1219,
1765.529,1100.1907,
1762.618,1080.51,
1759.708,1070.7554,
1756.797,1099.7992,
1753.887,1084.8079,
1750.976,1075.1407,
1748.065,1112.6515,
1745.155,1111.3235,
1742.244,1094.7672,
1739.334,1097.9068,
1736.423,1114.7993,
1733.512,1144.3873,
1730.602,1166.0913,
1727.691,1151.1835,
1724.781,1168.1857,
1721.870,1138.9653,
1718.960,1168.1977,
1716.049,1172.1801,
1713.138,1169.665,
1710.228,1167.6344,
1707.317,1162.9521,
1704.407,1175.851,
1701.496,1212.9254,
1698.586,1200.6673,
1695.675,1239.6105,
1692.764,1243.3217,
1689.854,1222.3277,
1686.943,1245.5319,
1684.033,1243.4495,
1681.122,1257.1371,
1678.211,1291.0514,
1675.301,1298.3534,
1672.390,1385.1746,
1669.480,1318.4873,
1666.569,1333.2637,
1663.659,1402.7343,
1660.748,1424.857,
1657.837,1448.8501,
1654.927,1426.1716,
1652.016,1460.2741,
1649.106,1496.2771,
1646.195,1493.7896,
1643.285,1552.1725,
1640.374,1587.3576,
1637.463,1633.8073,
1634.553,1657.6558,
1631.642,1677.5259,
1628.732,1782.695,
1625.821,1836.4679,
1622.911,1977.5748,
1620.000,2052.4301,
1617.089,2143.5441,
1614.179,2279.4833,
1611.268,2349.8097,
1608.358,2467.7094,
1605.447,2622.3476,
1602.536,2747.8609,
1599.626,2714.978,
1596.715,2691.4078,
1593.805,2684.9033,
1590.894,2709.9144,
1587.984,2602.5152,
1585.073,2638.1256,
1582.162,2558.8771,
1579.252,2493.9135,
1576.341,2471.359,
1573.431,2461.3264,
1570.520,2465.49,
1567.610,2407.7662,
1564.699,2427.2516,
1561.788,2407.1641,
1558.878,2358.9196,
1555.967,2359.231,
1553.057,2302.3067,
1550.146,2245.095,
1547.235,2240.0492,
1544.325,2192.215,
1541.414,2148.6747,
1538.504,2099.1052,
1535.593,2056.8096,
1532.683,2052.4841,
1529.772,2029.7127,
1526.861,2002.7308,
1523.951,1986.9024,
1521.040,1969.783,
1518.130,1930.8103,
1515.219,1894.8943,
1512.309,1913.1813,
1509.398,1887.2858,
1506.487,1866.6267,
1503.577,1878.1779,
1500.666,1813.1951,
1497.756,1860.7481,
1494.845,1876.9748,
1491.934,1867.2364,
1489.024,1824.8867,
1486.113,1791.8497,
1483.203,1807.1384,
1480.292,1762.7069,
1477.382,1741.443,
1474.471,1732.236,
1471.560,1760.853,
1468.650,1740.2611,
1465.739,1715.1272,
1462.829,1701.6164,
1459.918,1706.8723,
1457.008,1689.4824,
1454.097,1667.6101,
1451.186,1673.8702,
1448.276,1677.375,
1445.365,1662.5867,
1442.455,1653.2406,
1439.544,1699.2605,
1436.633,1662.094,
1433.723,1685.372,
1430.812,1688.0898,
1427.902,1634.7132,
1424.991,1648.9297,
1422.081,1669.5595,
1419.170,1654.9579,
1416.259,1631.3134,
1413.349,1615.0464,
1410.438,1608.5759,
1407.528,1611.8812,
1404.617,1632.576,
1401.707,1624.1774,
1398.796,1606.7911,
1395.885,1612.0955,
1392.975,1613.1248,
1390.064,1617.736,
1387.154,1629.3831,
1384.243,1585.3778,
1381.332,1656.8217,
1378.422,1654.2106,
1375.511,1689.8083,
1372.601,1724.4731,
1369.690,1776.2367,
1366.780,1777.2467,
1363.869,1844.3903,
1360.958,1891.5019,
1358.048,1932.6339,
1355.137,1952.3236,
1352.227,1979.2837,
1349.316,2043.0925,
1346.406,2093.2909,
1343.495,2102.1085,
1340.584,2122.446,
1337.674,2160.0231,
1334.763,2240.9748,
1331.853,2256.7378,
1328.942,2290.2852,
1326.032,2325.3686,
1323.121,2412.3992,
1320.210,2429.7203,
1317.300,2418.4727,
1314.389,2445.2089,
1311.479,2523.7436,
1308.568,2612.8776,
1305.657,2693.2137,
1302.747,2794.102,
1299.836,2843.4463,
1296.926,2867.5542,
1294.015,2914.4397,
1291.105,2972.7297,
1288.194,3053.8594,
1285.283,3112.4712,
1282.373,3146.7265,
1279.462,3187.0215,
1276.552,3257.8319,
1273.641,3348.5764,
1270.731,3414.0795,
1267.820,3436.1774,
1264.909,3473.8692,
1261.999,3448.5414,
1259.088,3453.102,
1256.178,3383.1456,
1253.267,3280.8459,
1250.356,3211.3853,
1247.446,3145.0236,
1244.535,3095.0313,
1241.625,3015.2048,
1238.714,2878.8503,
1235.804,2771.4187,
1232.893,2733.2594,
1229.982,2687.3699,
1227.072,2598.6494,
1224.161,2556.2333,
1221.251,2506.1935,
1218.340,2443.4369,
1215.430,2408.5664,
1212.519,2408.1664,
1209.608,2387.3162,
1206.698,2348.1626,
1203.787,2387.4403,
1200.877,2384.4924,
1197.966,2418.6604,
1195.055,2493.7544,
1192.145,2554.461,
1189.234,2593.0827,
1186.324,2653.3796,
1183.413,2676.1516,
1180.503,2671.9123,
1177.592,2695.2232,
1174.681,2650.7723,
1171.771,2598.5398,
1168.860,2605.6846,
1165.950,2526.5523,
1163.039,2515.0574,
1160.129,2522.504,
1157.218,2496.5308,
1154.307,2480.587,
1151.397,2498.0333,
1148.486,2477.2223,
1145.576,2491.1778,
1142.665,2440.5668,
1139.754,2468.1065,
1136.844,2472.5738,
1133.933,2484.2781,
1131.023,2494.3192,
1128.112,2484.6623,
1125.202,2475.5199,
1122.291,2511.5111,
1119.380,2540.4703,
1116.470,2550.1781,
1113.559,2577.6655,
1110.649,2591.2686,
1107.738,2572.4065,
1104.828,2527.5768,
1101.917,2475.398,
1099.006,2435.7977,
1096.096,2428.4288,
1093.185,2429.3068,
1090.275,2503.8279,
1087.364,2500.1052,
1084.453,2489.2501,
1081.543,2501.5216,
1078.632,2542.8198,
1075.722,2586.972,
1072.811,2547.3058,
1069.901,2560.4047,
1066.990,2582.3916,
1064.079,2620.7202,
1061.169,2641.3457,
1058.258,2642.4106,
1055.348,2643.3723,
1052.437,2661.9345,
1049.527,2694.0995,
1046.616,2661.084,
1043.705,2658.9165,
1040.795,2635.7503,
1037.884,2622.375,
1034.974,2625.3544,
1032.063,2626.3213,
1029.153,2621.0608,
1026.242,2685.0676,
1023.331,2701.5408,
1020.421,2726.6822,
1017.510,2754.3038,
1014.600,2826.7393,
1011.689,2901.5288,
1008.778,2894.0666,
1005.868,2921.6684,
1002.957,2954.3619,
1000.047,3075.127,
997.136,3117.7877,
994.226,3118.7134,
991.315,3118.2438,
988.404,3105.5927,
985.494,3064.5119,
982.583,3025.9669,
979.673,3037.9345,
976.762,3034.9814,
973.852,3041.6353,
970.941,3041.7777,
968.030,3005.3808,
965.120,3022.4251,
962.209,3034.3607,
959.299,3049.1235,
956.388,3077.8935,
953.477,3095.5529,
950.567,3097.5121,
947.656,3104.481,
944.746,3090.0386,
941.835,3099.9026,
938.925,3089.872,
936.014,3073.2585,
933.103,3057.7255,
930.193,3044.7782,
927.282,3032.0836,
924.372,2989.8032,
921.461,2943.873,
918.551,2898.0046,
915.640,2871.9755,
912.729,2849.9318,
909.819,2798.8164,
906.908,2771.8588,
903.998,2749.6955,
901.087,2783.2019,
898.176,2810.147,
895.266,2839.1799,
892.355,2887.3909,
889.445,2871.4448,
886.534,2911.4488,
883.624,2932.8316,
880.713,2957.7478,
877.802,2976.4172,
874.892,2974.6981,
871.981,2958.6512,
869.071,2970.347,
866.160,2944.7766,
863.250,2943.9075,
860.339,2956.8808,
857.428,2957.1662,
854.518,2938.0511,
851.607,2892.2872,
848.697,2933.8978,
845.786,2931.4646,
842.875,2941.9317,
839.965,2993.7776,
837.054,2945.8681,
834.144,2989.792,
831.233,2985.0426,
828.323,3023.8756,
825.412,3043.974,
822.501,2987.9282,
819.591,2985.449,
816.680,2970.1506,
813.770,2906.2307,
810.859,2870.8262,
807.949,2869.1701,
805.038,2863.7732,
802.127,2867.0657,
799.217,2824.1423,
796.306,2780.4288,
793.396,2752.1459,
790.485,2731.846,
787.574,2693.7139,
784.664,2728.9787,
781.753,2740.7429,
778.843,2741.9048,
775.932,2752.1032,
773.022,2783.1933,
770.111,2814.2613,
767.200,2803.4327,
764.290,2793.5962,
761.379,2805.1297,
758.469,2820.7951,
755.558,2788.0103,
752.648,2775.7913,
749.737,2753.7913,
746.826,2737.7803,
743.916,2731.375,
741.005,2723.305,
738.095,2651.8598,
735.184,2611.9124,
732.274,2567.2953,
729.363,2561.2387,
726.452,2623.1854,
723.542,2716.2657,
720.631,2692.3225,
717.721,2683.9478,
714.810,2693.892,
711.899,2717.276,
708.989,2751.1669,
706.078,2708.9059,
703.168,2704.4472,
700.257,2710.8504,
697.347,2705.6803,
694.436,2674.4623,
691.525,2677.6775,
688.615,2668.9413,
685.704,2657.3313,
682.794,2669.7365,
679.883,2735.6181,
676.973,2718.7893,
674.062,2754.298,
671.151,2752.2668,
668.241,2718.9925,
665.330,2712.5473,
662.420,2737.308,
659.509,2748.7243,
656.598,2771.416,
653.688,2778.2016,
650.777,2718.9681,
647.867,2765.9515,
644.956,2725.6047,
642.046,2679.8641,
639.135,2673.6284,
636.224,2727.3591,
633.314,2724.1833,
630.403,2742.885,
627.493,2760.2157,
624.582,2769.5533,
621.672,2783.8092,
618.761,2753.9774,
615.850,2754.8438,
612.940,2777.7195,
610.029,2803.7967,
607.119,2794.3212,
604.208,2776.3347,
601.297,2778.8468,
598.387,2780.6359,
595.476,2765.0147,
592.566,2803.581,
589.655,2776.0368,
586.745,2749.9975,
583.834,2749.8171,
580.923,2783.266,
578.013,2765.2171,
575.102,2775.2883,
572.192,2786.7323,
569.281,2798.9042,
566.371,2863.0793,
563.460,2854.5602,
560.549,2843.5022,
557.639,2830.5867,
554.728,2811.198,
551.818,2840.0697,
548.907,2862.8292,
545.996,2874.9302,
543.086,2875.0263,
540.175,2864.1253,
537.265,2875.6877,
534.354,2856.7955,
531.444,2839.5055,
528.533,2857.5271,
525.622,2887.7891,
522.712,2904.6898,
519.801,2922.0676,
516.891,2946.5742,
513.980,2982.1918,
511.070,2979.0359,
508.159,3006.4617,
505.248,3042.3793,
502.338,3053.0468,
499.427,3110.1624,
496.517,3163.8396,
493.606,3182.9438,
490.695,3163.9798,
487.785,3175.5266,
484.874,3185.1297,
481.964,3196.4347,
479.053,3205.6396,
476.143,3202.5677,
473.232,3189.4257,
470.321,3162.4791,
467.411,3146.7195,
464.500,3169.3059,
461.590,3206.0614,
458.679,3224.0791,
455.769,3241.7173,
452.858,3261.762,
449.947,3217.454,
447.037,3242.9604,
444.126,3280.9023,
441.216,3322.985,
438.305,3412.893,
435.395,3382.103,
432.484,3380.2126,
429.573,3408.1325,
426.663,3402.8115,
423.752,3423.995,
420.842,3405.0605,
417.931,3369.0048,
415.020,3360.6629,
412.110,3516.9402,
409.199,3548.4582,
406.289,3532.4441,
403.378,3566.4518,
400.468,3589.1317,
397.557,3571.6958,
394.646,3561.5729,
391.736,3596.4092,
388.825,3566.24,
385.915,3553.6496,
383.004,3550.9461,
380.094,3553.7186,
377.183,3580.0553,
374.272,3635.1397,
371.362,3660.953,
368.451,3629.4752,
365.541,3680.5116,
362.630,3698.1987,
359.719,3707.8863,
356.809,3723.7828,
353.898,3730.522,
350.988,3734.5449,
348.077,3720.4025,
345.167,3683.6076,
342.256,3727.6847,
339.345,3730.2778,
336.435,3730.8131,
333.524,3755.2106,
330.614,3749.9945,
327.703,3761.2101,
324.793,3767.7036,
321.882,3751.4651,
318.971,3788.6373,
316.061,3806.7465,
313.150,3833.6226,
310.240,3901.8972,
307.329,3932.2458,
304.418,3939.2714,
301.508,3924.5288,
298.597,3887.508,
295.687,3893.8564,
292.776,3904.2084,
289.866,3940.8664,
286.955,4076.0531,
284.044,4099.8025,
281.134,4130.8872,
278.223,4193.2787,
275.313,4288.3331,
272.402,4304.3087,
269.492,4304.8604,
266.581,4315.5806,
263.670,4360.4266,
260.760,4396.8822,
257.849,4429.6666,
254.939,4461.9574,
252.028,4489.1573,
249.117,4515.364,
246.207,4533.9962,
243.296,4532.5321,
240.386,4482.7476,
237.475,4415.6512,
234.565,4349.1096,
231.654,4341.0754,
228.743,4310.6066,
225.833,4297.6072,
222.922,4314.8462,
220.012,4282.0612,
217.101,4257.1442,
214.191,4251.9917,
211.280,4284,
208.369,4319.3428,
205.459,4303.0357,
202.548,4255.1271,
199.638,4259.481,
196.727,4309.3534,
193.816,4355.0077,
190.906,4377.0195,
187.995,4366.8831,
185.085,4378.0335,
182.174,4409.458,
179.264,4465.111,
176.353,4489.3168,
173.442,4500.8252,
170.532,4511.0196,
167.621,4576.6284,
164.711,4508.1819,
161.800,4365.0016,
158.890,4173.5541,
155.979,3987.0346,
153.068,3678.1444,
150.158,3270.6744,
147.247,2849.2365,
144.337,2343.2796,
141.426,1848.9868,
138.516,1412.4001,
135.605,995.35252,
132.694,667.71575,
129.784,426.47664,
126.873,288.45658,
123.963,203.46799,
121.052,143.94423,
118.141,102.53791,
115.231,84.610741,
112.320,72.715005,
109.410,64.738737,
106.499,56.192874,
103.589,44.290419,
100.678,35.288513,
97.767,32.444763,
94.857,39.99788,
91.946,37.731448,
89.036,28.471817,
86.125,22.798175,
83.215,20.84408,
80.304,20.853865,
77.393,22.270205,
74.483,23.68527,
71.572,24.737352,
68.662,24.890128,
65.751,19.94497,
62.840,17.411596,
59.930,14.689424,
57.019,8.3436863,
54.109,10.957965,
51.198,13.978219,
48.288,15.363675,
45.377,13.956919,
42.466,13.787219,
39.556,14.835474,
36.645,17.644235,
33.735,20.451994,
30.824,19.945243,
27.914,12.232316,
25.003,14.488187,
22.092,17.343714,
19.182,20.153017,
16.271,43.935682,
13.361,167.16865,
10.450,407.38764,
7.539,895.51008,
4.629,1344.5618,
1.718,1550.7988,
-1.192,1239.1752,
-4.103,804.9975,
-7.013,384.07476,
-9.924,3.375,
