,PLABEE~1,
Wavenumbers [1/cm],Intensity,
3014.167,-7,
3011.256,2.1499248,
3008.346,42.860345,
3005.435,58.420491,
3002.525,44.414989,
2999.614,49.188318,
2996.704,53,
2993.793,54.876152,
2990.882,55.694647,
2987.972,60.944505,
2985.061,51.330051,
2982.151,62.687403,
2979.240,69.784226,
2976.329,68.00546,
2973.419,66.369191,
2970.508,64.30002,
2967.598,62.716868,
2964.687,75.567256,
2961.777,89.401866,
2958.866,72.670131,
2955.955,74.070789,
2953.045,75.284123,
2950.134,82.819246,
2947.224,84.857656,
2944.313,77.303419,
2941.403,81.821623,
2938.492,83.745272,
2935.581,93.069949,
2932.671,84.802599,
2929.760,85.169211,
2926.850,84.425187,
2923.939,95.15887,
2921.028,95.917616,
2918.118,97.260707,
2915.207,101.82277,
2912.297,83.076164,
2909.386,96.802919,
2906.476,112.51122,
2903.565,94.06519,
2900.654,94.622833,
2897.744,82.314305,
2894.833,95.453822,
2891.923,72.512797,
2889.012,94.208093,
2886.102,101.64459,
2883.191,98.007552,
2880.280,65.97607,
2877.370,53.569763,
2874.459,58.421254,
2871.549,47.750133,
2868.638,80.820598,
2865.727,95.919245,
2862.817,90.728609,
2859.906,103.5698,
2856.996,103.52038,
2854.085,91.957971,
2851.175,106.2891,
2848.264,107.94584,
2845.353,104.0647,
2842.443,105.40279,
2839.532,112.31338,
2836.622,111.8763,
2833.711,105.78494,
2830.801,115.49632,
2827.890,104.72902,
2824.979,112.98794,
2822.069,119.85216,
2819.158,111.1806,
2816.248,115.01158,
2813.337,118.56707,
2810.427,113.44078,
2807.516,111.41719,
2804.605,114.7524,
2801.695,109.39474,
2798.784,114.77823,
2795.874,119.58049,
2792.963,119.35734,
2790.052,115.00193,
2787.142,116.55269,
2784.231,105.96897,
2781.321,111.93714,
2778.410,110.17005,
2775.500,113.59517,
2772.589,96.80962,
2769.678,132.96242,
2766.768,111.78054,
2763.857,119.21195,
2760.947,126.47163,
2758.036,116.91717,
2755.126,117.84616,
2752.215,133.70438,
2749.304,122,
2746.394,118.84676,
2743.483,124.19999,
2740.573,131.32303,
2737.662,135.56361,
2734.751,129.83512,
2731.841,113.86447,
2728.930,129.24571,
2726.020,144.22975,
2723.109,120.74275,
2720.199,136.43124,
2717.288,137.4562,
2714.377,131.77508,
2711.467,135.60659,
2708.556,143.38274,
2705.646,144.39435,
2702.735,141.15721,
2699.825,136.40184,
2696.914,138.57136,
2694.003,152.28455,
2691.093,151.62456,
2688.182,153.74667,
2685.272,156.37127,
2682.361,135.06441,
2679.450,149.70782,
2676.540,146.83741,
2673.629,140.32735,
2670.719,135.29205,
2667.808,146.22183,
2664.898,147.92218,
2661.987,152.76688,
2659.076,147.03449,
2656.166,144.88743,
2653.255,142.74319,
2650.345,136.78403,
2647.434,141.37182,
2644.524,151.36689,
2641.613,150.17159,
2638.702,152.01578,
2635.792,144.87537,
2632.881,156.43428,
2629.971,156.53014,
2627.060,147.49844,
2624.149,167.34999,
2621.239,152.70405,
2618.328,158.80536,
2615.418,175.00909,
2612.507,167.89724,
2609.597,172.35729,
2606.686,160.44176,
2603.775,152.55952,
2600.865,157.88057,
2597.954,169.08963,
2595.044,156.94686,
2592.133,164.10823,
2589.223,168.13264,
2586.312,166.07534,
2583.401,181.89781,
2580.491,168.48081,
2577.580,184.96864,
2574.670,167.93716,
2571.759,177.95462,
2568.848,174.59112,
2565.938,177.66676,
2563.027,168.65907,
2560.117,174.36448,
2557.206,174.90406,
2554.296,173.11213,
2551.385,168.38004,
2548.474,178.92602,
2545.564,176.15828,
2542.653,195.46309,
2539.743,185.14787,
2536.832,178.28598,
2533.922,178.06308,
2531.011,180.62512,
2528.100,183.39723,
2525.190,187.41885,
2522.279,191.46898,
2519.369,190.13273,
2516.458,181.12252,
2513.548,191.57276,
2510.637,186.6311,
2507.726,179.12639,
2504.816,179.50057,
2501.905,187.86951,
2498.995,193.98478,
2496.084,184.13244,
2493.173,200.2106,
2490.263,198.01129,
2487.352,190.3756,
2484.442,207.54387,
2481.531,217.41501,
2478.621,218.51663,
2475.710,187.11502,
2472.799,202.7399,
2469.889,204.51523,
2466.978,204.72164,
2464.068,222.23816,
2461.157,197.42251,
2458.247,203.95599,
2455.336,214.68102,
2452.425,210.43396,
2449.515,224.03741,
2446.604,208.9424,
2443.694,208.74425,
2440.783,220.5259,
2437.872,204.51051,
2434.962,215.37328,
2432.051,219.21626,
2429.141,228.86473,
2426.230,210.23863,
2423.320,230.5859,
2420.409,221.10901,
2417.498,216.80337,
2414.588,221.72241,
2411.677,214.39444,
2408.767,223.73524,
2405.856,222.34523,
2402.946,228.4227,
2400.035,204.82627,
2397.124,239.6631,
2394.214,236.3512,
2391.303,230.17683,
2388.393,223.01395,
2385.482,204.79311,
2382.571,210.89951,
2379.661,198.02302,
2376.750,233.31273,
2373.840,231.23443,
2370.929,227.01083,
2368.019,226.77093,
2365.108,232.76702,
2362.197,244.76442,
2359.287,246.00836,
2356.376,254.98239,
2353.466,254.04628,
2350.555,240.02493,
2347.645,246.47283,
2344.734,261.66822,
2341.823,247.28191,
2338.913,265.60593,
2336.002,246.01187,
2333.092,262.43679,
2330.181,257.47316,
2327.270,250.33003,
2324.360,271.37033,
2321.449,248.32313,
2318.539,264.83184,
2315.628,263.26139,
2312.718,261.29956,
2309.807,250.63952,
2306.896,270.73239,
2303.986,253.55835,
2301.075,246.17019,
2298.165,259.5771,
2295.254,273.74148,
2292.344,260.41906,
2289.433,276.06182,
2286.522,283.78578,
2283.612,265.64922,
2280.701,263.59641,
2277.791,293,
2274.880,296.20994,
2271.969,296.39506,
2269.059,274.6485,
2266.148,284.40234,
2263.238,293.49807,
2260.327,277.58615,
2257.417,274.60944,
2254.506,287.0456,
2251.595,300.99268,
2248.685,307.73654,
2245.774,311.60433,
2242.864,303.4813,
2239.953,301.0068,
2237.043,307.8693,
2234.132,290.34806,
2231.221,307.47554,
2228.311,292.38405,
2225.400,322.66226,
2222.490,308.40059,
2219.579,303.15427,
2216.669,315,
2213.758,320.21831,
2210.847,313.32747,
2207.937,311.95928,
2205.026,328.4449,
2202.116,321.24415,
2199.205,340.53718,
2196.294,336.88403,
2193.384,327.579,
2190.473,321.85211,
2187.563,327.04834,
2184.652,336.09633,
2181.742,332.77295,
2178.831,348.87165,
2175.920,354.09107,
2173.010,359.32596,
2170.099,375.26538,
2167.189,363.15069,
2164.278,386.05427,
2161.368,400.28544,
2158.457,413.62529,
2155.546,435.21156,
2152.636,446.78723,
2149.725,445.50336,
2146.815,474.96556,
2143.904,480.50557,
2140.993,492.60319,
2138.083,499.67167,
2135.172,511.07557,
2132.262,517.64701,
2129.351,524.73447,
2126.441,487.77659,
2123.530,488.02245,
2120.619,486.69739,
2117.709,459.14412,
2114.798,434.56148,
2111.888,429.58734,
2108.977,422.19205,
2106.067,412.96649,
2103.156,372.40742,
2100.245,384.99875,
2097.335,382.27749,
2094.424,377.9574,
2091.514,368.84398,
2088.603,350.79722,
2085.692,355.59107,
2082.782,361.65458,
2079.871,364.82147,
2076.961,379.03133,
2074.050,393.90303,
2071.140,384.11557,
2068.229,350.34764,
2065.318,369.61725,
2062.408,372.44705,
2059.497,353.15473,
2056.587,363.53447,
2053.676,357.66766,
2050.766,367.84529,
2047.855,348.0822,
2044.944,384.86699,
2042.034,379.02305,
2039.123,373.20202,
2036.213,379.73328,
2033.302,359.19571,
2030.391,352.77975,
2027.481,365.13401,
2024.570,372.5285,
2021.660,411.5757,
2018.749,385.73407,
2015.839,380.21063,
2012.928,388.91946,
2010.017,408.23237,
2007.107,423.57753,
2004.196,392.36903,
2001.286,411.77381,
1998.375,389.72734,
1995.465,388.73214,
1992.554,379.85305,
1989.643,399.2396,
1986.733,381.16053,
1983.822,387.24446,
1980.912,401.76195,
1978.001,384,
1975.090,388.78168,
1972.180,392.62102,
1969.269,382.77297,
1966.359,379.29731,
1963.448,380,
1960.538,407.59133,
1957.627,413.10836,
1954.716,398.4309,
1951.806,405.95032,
1948.895,401.55673,
1945.985,379.02124,
1943.074,391.97403,
1940.164,412.86534,
1937.253,405.55659,
1934.342,384.86311,
1931.432,375.35016,
1928.521,398.83247,
1925.611,372.24064,
1922.700,365.12293,
1919.790,385.0865,
1916.879,385.20925,
1913.968,412.96557,
1911.058,374.92493,
1908.147,389.99272,
1905.237,402.20588,
1902.326,399,
1899.415,394.40731,
1896.505,408.49426,
1893.594,435.46033,
1890.684,413.15693,
1887.773,423.79258,
1884.863,424.96811,
1881.952,393.28524,
1879.041,385.26947,
1876.131,379.48497,
1873.220,374.51326,
1870.310,381.426,
1867.399,429.23231,
1864.489,445.63698,
1861.578,410.22541,
1858.667,394.32035,
1855.757,400.00716,
1852.846,400.79485,
1849.936,420.34936,
1847.025,413.81994,
1844.114,435.63296,
1841.204,430.01749,
1838.293,422.4842,
1835.383,438.55799,
1832.472,413.75478,
1829.562,403.22084,
1826.651,417.20533,
1823.740,420.27203,
1820.830,439.29151,
1817.919,448.25751,
1815.009,436.15649,
1812.098,458.23621,
1809.188,445.0543,
1806.277,437.15492,
1803.366,451.04991,
1800.456,455.64872,
1797.545,480.12786,
1794.635,441.61299,
1791.724,439.49514,
1788.813,441.39923,
1785.903,448.84877,
1782.992,467.58714,
1780.082,435.8202,
1777.171,433.32601,
1774.261,401.61991,
1771.350,428.82601,
1768.439,472.63699,
1765.529,472.72967,
1762.618,485.58437,
1759.708,484.02175,
1756.797,488.76515,
1753.887,472.81924,
1750.976,467.43455,
1748.065,505.95084,
1745.155,487.67769,
1742.244,483.21555,
1739.334,470.08942,
1736.423,479.78315,
1733.512,496.73173,
1730.602,522.44051,
1727.691,527.69702,
1724.781,508.90874,
1721.870,512.04767,
1718.960,501.66652,
1716.049,530.04206,
1713.138,524.88505,
1710.228,482.09604,
1707.317,529.07428,
1704.407,489.28335,
1701.496,517.72727,
1698.586,508.06422,
1695.675,529.45701,
1692.764,535.73361,
1689.854,547.48032,
1686.943,542.20235,
1684.033,545.90066,
1681.122,561.72812,
1678.211,555.06662,
1675.301,560.9815,
1672.390,594.91327,
1669.480,566.12033,
1666.569,580.79687,
1663.659,565.08166,
1660.748,570.36635,
1657.837,589.43739,
1654.927,608.71885,
1652.016,597.41308,
1649.106,614.95476,
1646.195,652.95205,
1643.285,650.52148,
1640.374,630.85714,
1637.463,671.32426,
1634.553,688.57144,
1631.642,660.65147,
1628.732,719.83409,
1625.821,692.04514,
1622.911,760.61118,
1620.000,757.05039,
1617.089,820.70646,
1614.179,866.70275,
1611.268,868.96282,
1608.358,905.22072,
1605.447,928.68589,
1602.536,988.70889,
1599.626,969.08175,
1596.715,1020.5485,
1593.805,949.98179,
1590.894,938.35799,
1587.984,936.26782,
1585.073,968.33104,
1582.162,953.96274,
1579.252,907.44834,
1576.341,872.36597,
1573.431,873.83174,
1570.520,865.29872,
1567.610,867.96088,
1564.699,862.7497,
1561.788,883.94343,
1558.878,860.54461,
1555.967,857.55263,
1553.057,823.17283,
1550.146,798.77091,
1547.235,825.74534,
1544.325,813.33022,
1541.414,808.44206,
1538.504,820.88958,
1535.593,792.16736,
1532.683,794.02305,
1529.772,799.83167,
1526.861,747.1022,
1523.951,745.10868,
1521.040,774.06545,
1518.130,751.26096,
1515.219,744.3999,
1512.309,744.53152,
1509.398,730.99245,
1506.487,731.95212,
1503.577,780.12187,
1500.666,741.85878,
1497.756,711.82239,
1494.845,745.19956,
1491.934,726.0378,
1489.024,737.58771,
1486.113,747.27216,
1483.203,724.90764,
1480.292,716.06042,
1477.382,700.45153,
1474.471,707.74331,
1471.560,712.45133,
1468.650,702.06762,
1465.739,715.57421,
1462.829,723.61273,
1459.918,733.60231,
1457.008,705.43029,
1454.097,667.61353,
1451.186,681.38685,
1448.276,688.24123,
1445.365,664.60742,
1442.455,682.21262,
1439.544,709.00722,
1436.633,679.03971,
1433.723,719.7417,
1430.812,737.96564,
1427.902,724.36861,
1424.991,697.83126,
1422.081,727.27674,
1419.170,738.6406,
1416.259,719.74842,
1413.349,707.44759,
1410.438,746.287,
1407.528,753.70013,
1404.617,734.49605,
1401.707,704.86226,
1398.796,709.65728,
1395.885,737.89373,
1392.975,736.3331,
1390.064,734.82928,
1387.154,736.13883,
1384.243,692.21083,
1381.332,790.68004,
1378.422,764.48305,
1375.511,773.85086,
1372.601,753.72545,
1369.690,769.14445,
1366.780,742.6947,
1363.869,777.13567,
1360.958,800.9226,
1358.048,830.51241,
1355.137,855.88526,
1352.227,846.98683,
1349.316,853.66271,
1346.406,890.16826,
1343.495,879.5087,
1340.584,874.14271,
1337.674,884.64321,
1334.763,890.67042,
1331.853,908.28781,
1328.942,896.5475,
1326.032,920.28424,
1323.121,963.78919,
1320.210,986.32289,
1317.300,972.11257,
1314.389,969.27798,
1311.479,995.60182,
1308.568,1023.1062,
1305.657,1051.4194,
1302.747,1101.6613,
1299.836,1122.0344,
1296.926,1106.3763,
1294.015,1071.442,
1291.105,1105.2217,
1288.194,1171.5032,
1285.283,1187.716,
1282.373,1171.5469,
1279.462,1177.9213,
1276.552,1222.5907,
1273.641,1244.575,
1270.731,1230.703,
1267.820,1256.4929,
1264.909,1271.0774,
1261.999,1307.0347,
1259.088,1280.5831,
1256.178,1259.3015,
1253.267,1206.8995,
1250.356,1192,
1247.446,1203.7345,
1244.535,1202.0893,
1241.625,1177.4667,
1238.714,1142.6114,
1235.804,1105.136,
1232.893,1080.7442,
1229.982,1105.0069,
1227.072,1046.1616,
1224.161,1063.8531,
1221.251,1043.4312,
1218.340,1042.1259,
1215.430,1044.8989,
1212.519,1048.5276,
1209.608,1039.825,
1206.698,1022.6811,
1203.787,1048.7789,
1200.877,1051.4398,
1197.966,1026.2634,
1195.055,1068.5157,
1192.145,1092.5296,
1189.234,1089.5657,
1186.324,1115.5484,
1183.413,1115.3858,
1180.503,1097.8392,
1177.592,1125.606,
1174.681,1118.7192,
1171.771,1103.0618,
1168.860,1105.7411,
1165.950,1101.9686,
1163.039,1110.7776,
1160.129,1123.8478,
1157.218,1101.6366,
1154.307,1075.4523,
1151.397,1081.9573,
1148.486,1086.0433,
1145.576,1123.4559,
1142.665,1064.8536,
1139.754,1073.0181,
1136.844,1063.3945,
1133.933,1039.2318,
1131.023,1052.4374,
1128.112,1086.9993,
1125.202,1091.4106,
1122.291,1083.8936,
1119.380,1131.7315,
1116.470,1104.3731,
1113.559,1098.6803,
1110.649,1115.026,
1107.738,1106.8538,
1104.828,1111.9728,
1101.917,1127.5734,
1099.006,1095.897,
1096.096,1087.3438,
1093.185,1109.2939,
1090.275,1094.0053,
1087.364,1118.131,
1084.453,1110.1888,
1081.543,1108.8995,
1078.632,1129.8804,
1075.722,1137.009,
1072.811,1147.4559,
1069.901,1111.6522,
1066.990,1132.4416,
1064.079,1142.7636,
1061.169,1136.1632,
1058.258,1131.9644,
1055.348,1153.6375,
1052.437,1193.5402,
1049.527,1179.9594,
1046.616,1153.0257,
1043.705,1186.9967,
1040.795,1191.615,
1037.884,1172.3221,
1034.974,1163.7036,
1032.063,1169.5156,
1029.153,1152.5193,
1026.242,1156.8441,
1023.331,1232.8285,
1020.421,1224.9957,
1017.510,1212.1986,
1014.600,1222.6879,
1011.689,1234.8687,
1008.778,1223.7593,
1005.868,1233.861,
1002.957,1218.3746,
1000.047,1298.264,
997.136,1346.6198,
994.226,1334.9081,
991.315,1308.9579,
988.404,1306.3266,
985.494,1246.7097,
982.583,1278.4022,
979.673,1291.7798,
976.762,1297.3484,
973.852,1288.8338,
970.941,1278.6674,
968.030,1287.7052,
965.120,1303.0931,
962.209,1325.2592,
959.299,1319.0845,
956.388,1309.9603,
953.477,1317.5088,
950.567,1337.6599,
947.656,1345.549,
944.746,1326.8587,
941.835,1355.1533,
938.925,1349.497,
936.014,1332.3777,
933.103,1325.5309,
930.193,1335.9951,
927.282,1350.396,
924.372,1320.7998,
921.461,1293.4352,
918.551,1291.3903,
915.640,1274.7528,
912.729,1254.8558,
909.819,1278.5552,
906.908,1275.1855,
903.998,1255.1159,
901.087,1272.2777,
898.176,1289.772,
895.266,1293.0956,
892.355,1292.2983,
889.445,1309.9229,
886.534,1320.8533,
883.624,1332.4196,
880.713,1340.0621,
877.802,1319.7248,
874.892,1278.7577,
871.981,1289.5993,
869.071,1230.285,
866.160,1227.5896,
863.250,1259.307,
860.339,1309.7002,
857.428,1340.2258,
854.518,1282,
851.607,1282,
848.697,1259.9899,
845.786,1248.9621,
842.875,1278.4107,
839.965,1330.1503,
837.054,1308.307,
834.144,1335.6558,
831.233,1351.6659,
828.323,1370.848,
825.412,1367.292,
822.501,1332.383,
819.591,1345.6054,
816.680,1358.0193,
813.770,1334.0604,
810.859,1323.8661,
807.949,1329.0707,
805.038,1325.5929,
802.127,1338.763,
799.217,1326.583,
796.306,1311.7837,
793.396,1312.1757,
790.485,1320.5778,
787.574,1302.6922,
784.664,1268.2475,
781.753,1294.8782,
778.843,1317.3711,
775.932,1328.6296,
773.022,1343.9451,
770.111,1375.8307,
767.200,1344.5023,
764.290,1339.2009,
761.379,1331.184,
758.469,1328.695,
755.558,1386.833,
752.648,1347.732,
749.737,1370.6811,
746.826,1377.6756,
743.916,1371.7468,
741.005,1384.7336,
738.095,1391.2287,
735.184,1386.2795,
732.274,1345.0836,
729.363,1300.9218,
726.452,1291.1859,
723.542,1336.512,
720.631,1328.2965,
717.721,1332.447,
714.810,1344.8522,
711.899,1350.7327,
708.989,1328.1388,
706.078,1368.8664,
703.168,1360.7834,
700.257,1341.5737,
697.347,1333.6084,
694.436,1342.76,
691.525,1333.9181,
688.615,1325.7109,
685.704,1326.3169,
682.794,1332.7021,
679.883,1337.1626,
676.973,1385.2448,
674.062,1390.5334,
671.151,1388.8767,
668.241,1379.7553,
665.330,1347.2647,
662.420,1352.8558,
659.509,1359.7144,
656.598,1377.7135,
653.688,1397.23,
650.777,1397.757,
647.867,1390.59,
644.956,1364.234,
642.046,1337.8058,
639.135,1326.1922,
636.224,1342.1472,
633.314,1371.5229,
630.403,1382.5473,
627.493,1392.2974,
624.582,1405.4126,
621.672,1411.7485,
618.761,1390.7217,
615.850,1399.9786,
612.940,1415.0492,
610.029,1418.3424,
607.119,1414.3942,
604.208,1406.1899,
601.297,1390.0385,
598.387,1383.3059,
595.476,1401.3769,
592.566,1426.5631,
589.655,1398.6055,
586.745,1391.4152,
583.834,1410.0504,
580.923,1427.9289,
578.013,1416.1579,
575.102,1390.6301,
572.192,1385.0758,
569.281,1413.0142,
566.371,1457.6237,
563.460,1459.1781,
560.549,1430.7124,
557.639,1416.771,
554.728,1455.8175,
551.818,1437.0899,
548.907,1429.3435,
545.996,1435.5534,
543.086,1453.6974,
540.175,1475.4994,
537.265,1434.2675,
534.354,1426.0271,
531.444,1427.3122,
528.533,1410.8277,
525.622,1422.4669,
522.712,1434.1013,
519.801,1440.3819,
516.891,1441.1565,
513.980,1441.9308,
511.070,1445.5217,
508.159,1466.5802,
505.248,1492.2562,
502.338,1505.0452,
499.427,1506.5888,
496.517,1501.3434,
493.606,1504.7393,
490.695,1524.2794,
487.785,1555.071,
484.874,1532.8586,
481.964,1537.5181,
479.053,1556.9102,
476.143,1523.1199,
473.232,1512.3672,
470.321,1518.7315,
467.411,1515.8305,
464.500,1478.2412,
461.590,1527.2485,
458.679,1566.8638,
455.769,1571.6167,
452.858,1536.6363,
449.947,1542.7477,
447.037,1541.573,
444.126,1552.2,
441.216,1572.8677,
438.305,1572.1058,
435.395,1570.6887,
432.484,1573.334,
429.573,1567.1724,
426.663,1520.8038,
423.752,1452.8374,
420.842,1407.1892,
417.931,1374.5802,
415.020,1334.3872,
412.110,1428.1097,
409.199,1515.3227,
406.289,1562.3746,
403.378,1539.0717,
400.468,1560.2396,
397.557,1516.0992,
394.646,1518.0983,
391.736,1653.5171,
388.825,1638.4325,
385.915,1587.6991,
383.004,1579.8375,
380.094,1661.4242,
377.183,1650.137,
374.272,1626.9171,
371.362,1613.8263,
368.451,1625.1884,
365.541,1661.2141,
362.630,1645.3267,
359.719,1641.1661,
356.809,1679.6892,
353.898,1641.5005,
350.988,1654.8694,
348.077,1652.0577,
345.167,1599.2922,
342.256,1664.2872,
339.345,1681.4057,
336.435,1677.7793,
333.524,1672.0705,
330.614,1674.3059,
327.703,1675.5134,
324.793,1669.0396,
321.882,1649.0919,
318.971,1687.0075,
316.061,1705.3715,
313.150,1705.2262,
310.240,1686.6733,
307.329,1706.7245,
304.418,1723.6631,
301.508,1723.3661,
298.597,1683.3836,
295.687,1711.8303,
292.776,1744.5001,
289.866,1775.0719,
286.955,1803.8822,
284.044,1778.905,
281.134,1763.8514,
278.223,1769.6945,
275.313,1788.1159,
272.402,1784.4483,
269.492,1777.4157,
266.581,1771.6352,
263.670,1738.5521,
260.760,1762.9549,
257.849,1800.1591,
254.939,1817.7722,
252.028,1778.9124,
249.117,1770.3956,
246.207,1794.0999,
243.296,1856.323,
240.386,1806.8427,
237.475,1790.8307,
234.565,1814.1503,
231.654,1821.4542,
228.743,1820.1232,
225.833,1798.4866,
222.922,1754.9852,
220.012,1776.1133,
217.101,1781.0371,
214.191,1794.7363,
211.280,1847.1137,
208.369,1825.4331,
205.459,1818.5895,
202.548,1811.3314,
199.638,1720.6253,
196.727,1783.8227,
193.816,1830.454,
190.906,1799.7618,
187.995,1821.4826,
185.085,1785.9701,
182.174,1752.8871,
179.264,1807.8174,
176.353,1814.6408,
173.442,1812.0995,
170.532,1806.3279,
167.621,1800.5601,
164.711,1725.9461,
161.800,1630.5082,
158.890,1544.1409,
155.979,1429.0767,
153.068,1308.9832,
150.158,1181.349,
147.247,1030.5791,
144.337,852.57142,
141.426,669.01079,
138.516,489.07109,
135.605,365.23391,
132.694,244.64668,
129.784,142.17088,
126.873,107.12952,
123.963,73.822774,
121.052,49.467372,
118.141,38.04494,
115.231,20.235741,
112.320,16.389087,
109.410,20.181868,
106.499,15.908937,
103.589,12.758982,
100.678,12.62973,
97.767,16.895356,
94.857,15.614022,
91.946,13.790667,
89.036,11.548408,
86.125,8.7115873,
83.215,4.2835575,
80.304,2.1971634,
77.393,5.7380131,
74.483,7.3102699,
71.572,5.4635352,
68.662,1.4848725,
65.751,6.43003,
62.840,8,
59.930,5.9398518,
57.019,-1.81605,
54.109,-2.4028392,
51.198,1.0160928,
48.288,7.9716878,
45.377,4.4547975,
42.466,5.0610967,
39.556,7.0790514,
36.645,1.4615297,
33.735,3.1154908,
30.824,4.2329042,
27.914,-1.3764977,
25.003,-0.75472505,
22.092,0,
19.182,0.22882863,
16.271,7.22373,
13.361,38.659142,
10.450,52.760151,
7.539,-93.886076,
4.629,-209.96507,
1.718,-373.2308,
-1.192,-667.42579,
-4.103,-517.23013,
-7.013,-275.60714,
-9.924,-5.3552133E-16,
