,PL0AF2~1,
Wavenumbers [1/cm],Intensity,
3014.167,-6,
3011.256,1.6999356,
3008.346,144.35008,
3005.435,163.80919,
3002.525,163.07494,
2999.614,185.66365,
2996.704,186.2299,
2993.793,197.88537,
2990.882,197.90835,
2987.972,212.02018,
2985.061,205.35959,
2982.151,215.77817,
2979.240,221.07887,
2976.329,233.72952,
2973.419,247.15404,
2970.508,254.41658,
2967.598,236.38594,
2964.687,256.83628,
2961.777,267.11984,
2958.866,261.66271,
2955.955,261.68806,
2953.045,264.65101,
2950.134,282.91548,
2947.224,295.51244,
2944.313,295.92165,
2941.403,297.5958,
2938.492,292.90517,
2935.581,311.47853,
2932.671,305.8026,
2929.760,302.4269,
2926.850,311.69361,
2923.939,311.87849,
2921.028,336.2649,
2918.118,332.01889,
2915.207,326.53169,
2912.297,345.92807,
2909.386,322.80292,
2906.476,338.51122,
2903.565,338.74222,
2900.654,332.16482,
2897.744,367.71084,
2894.833,340.05164,
2891.923,318.40379,
2889.012,322.95376,
2886.102,341.02027,
2883.191,381.96318,
2880.280,363,
2877.370,356.72095,
2874.459,311.1637,
2871.549,315.67075,
2868.638,341.868,
2865.727,372.23463,
2862.817,359.17113,
2859.906,370,
2856.996,372.48868,
2854.085,381.16178,
2851.175,387.09637,
2848.264,379.51451,
2845.353,375.23724,
2842.443,380.80905,
2839.532,366.79108,
2836.622,368.75846,
2833.711,371.42229,
2830.801,374.49632,
2827.890,373.58039,
2824.979,364.77796,
2822.069,382.18195,
2819.158,390.39891,
2816.248,388.45947,
2813.337,394.43293,
2810.427,390.47796,
2807.516,402.78406,
2804.605,398.73076,
2801.695,392.2237,
2798.784,386.81315,
2795.874,410.59106,
2792.963,408.07181,
2790.052,393.00515,
2787.142,395.71054,
2784.231,386.3556,
2781.321,393.24568,
2778.410,389.05456,
2775.500,398.23414,
2772.589,395.76911,
2769.678,409.31733,
2766.768,429.43495,
2763.857,398.68787,
2760.947,427.49054,
2758.036,414.14006,
2755.126,413.09188,
2752.215,423.06365,
2749.304,425.7446,
2746.394,437.24802,
2743.483,442.94993,
2740.573,433.8207,
2737.662,435.5429,
2734.751,421.9758,
2731.841,431.37913,
2728.930,437.44914,
2726.020,444.56134,
2723.109,444.56708,
2720.199,448.23429,
2717.288,458.91241,
2714.377,444.9377,
2711.467,452.04945,
2708.556,453.03158,
2705.646,468.38029,
2702.735,463.66495,
2699.825,471.78186,
2696.914,455.28497,
2694.003,490.51382,
2691.093,477.92782,
2688.182,471.74667,
2685.272,484.53059,
2682.361,465.85262,
2679.450,470.38276,
2676.540,465.16259,
2673.629,467.02694,
2670.719,472.34289,
2667.808,501.02729,
2664.898,481.70136,
2661.987,498.4004,
2659.076,502.65303,
2656.166,493.29006,
2653.255,491.92517,
2650.345,508.89655,
2647.434,497.91426,
2644.524,499.31656,
2641.613,518.77184,
2638.702,505.3314,
2635.792,521.81455,
2632.881,514.66057,
2629.971,524.48995,
2627.060,520.16843,
2624.149,514.26874,
2621.239,520.24259,
2618.328,527.04239,
2615.418,531.98182,
2612.507,522.62457,
2609.597,549.23553,
2606.686,551.49396,
2603.775,535.55952,
2600.865,542.40958,
2597.954,530.81454,
2595.044,551.29495,
2592.133,559.38853,
2589.223,557.21684,
2586.312,577.51256,
2583.401,568.77733,
2580.491,565.16343,
2577.580,566,
2574.670,567.38369,
2571.759,564.39384,
2568.848,589.45872,
2565.938,588.52384,
2563.027,575.21824,
2560.117,582.87855,
2557.206,596.90406,
2554.296,576.20137,
2551.385,578.49596,
2548.474,588.07435,
2545.564,598.84172,
2542.653,597.15772,
2539.743,592.1109,
2536.832,589.79626,
2533.922,596.14192,
2531.011,606.37488,
2528.100,617.99654,
2525.190,620.25656,
2522.279,627.32829,
2519.369,630.67945,
2516.458,616.32861,
2513.548,602.9092,
2510.637,624.24593,
2507.726,627.68773,
2504.816,623.62458,
2501.905,628.30427,
2498.995,621.9555,
2496.084,636.08013,
2493.173,640.63179,
2490.263,630.04517,
2487.352,637.7512,
2484.442,655.2848,
2481.531,658.63295,
2478.621,670.98108,
2475.710,682.95399,
2472.799,675.02693,
2469.889,664.15235,
2466.978,669.103,
2464.068,677.78838,
2461.157,680.49756,
2458.247,672.98533,
2455.336,691.50882,
2452.425,687.41036,
2449.515,705.01871,
2446.604,692.35949,
2443.694,685.4885,
2440.783,702.57433,
2437.872,717.23424,
2434.962,703.56681,
2432.051,718.58636,
2429.141,710.01771,
2426.230,694.91268,
2423.320,723.21439,
2420.409,726.56396,
2417.498,727.63201,
2414.588,737.16723,
2411.677,745.49798,
2408.767,730.98819,
2405.856,721.90241,
2402.946,721.16086,
2400.035,711.41314,
2397.124,752.56149,
2394.214,752.45841,
2391.303,748.89499,
2388.393,733.09762,
2385.482,719.30843,
2382.571,749.65813,
2379.661,750.02331,
2376.750,766.41612,
2373.840,768.66569,
2370.929,809.51266,
2368.019,791.34913,
2365.108,792.25654,
2362.197,789.7781,
2359.287,785.81504,
2356.376,792.98415,
2353.466,794.3784,
2350.555,801.97507,
2347.645,803.22384,
2344.734,817.76041,
2341.823,798.398,
2338.913,808.95374,
2336.002,820.22486,
2333.092,828.50567,
2330.181,828.98211,
2327.270,815.71507,
2324.360,833.19341,
2321.449,830.26191,
2318.539,835.5107,
2315.628,858.31815,
2312.718,854.75109,
2309.807,847.57121,
2306.896,871.77152,
2303.986,869.12328,
2301.075,847.59577,
2298.165,858.96184,
2295.254,872.78457,
2292.344,865.15767,
2289.433,863.64864,
2286.522,874.91505,
2283.612,881.02932,
2280.701,879.59641,
2277.791,893.28239,
2274.880,921.00406,
2271.969,901.48971,
2269.059,895.82017,
2266.148,910.02504,
2263.238,921.09652,
2260.327,928.75872,
2257.417,938.76278,
2254.506,948.92312,
2251.595,955.86551,
2248.685,957.83843,
2245.774,963.70325,
2242.864,934.2494,
2239.953,917.8757,
2237.043,948,
2234.132,954.05711,
2231.221,983.16033,
2228.311,970.38405,
2225.400,968.16887,
2222.490,968.0585,
2219.579,959.77901,
2216.669,990.51669,
2213.758,987,
2210.847,989.41813,
2207.937,1036.0455,
2205.026,1018.1105,
2202.116,1036.5732,
2199.205,1050.8993,
2196.294,1048.14,
2193.384,1055.6045,
2190.473,1034.8286,
2187.563,1086.9565,
2184.652,1075.1384,
2181.742,1071.7061,
2178.831,1089.249,
2175.920,1101.561,
2173.010,1140.1264,
2170.099,1185.129,
2167.189,1206.3157,
2164.278,1257.19,
2161.368,1310.1415,
2158.457,1352.8269,
2155.546,1400.4683,
2152.636,1474.9573,
2149.725,1512.9799,
2146.815,1566.2648,
2143.904,1613.4126,
2140.993,1644,
2138.083,1658.5896,
2135.172,1680.0336,
2132.262,1698.5317,
2129.351,1737.676,
2126.441,1686.8056,
2123.530,1658.6296,
2120.619,1617.3306,
2117.709,1550.0793,
2114.798,1493.0228,
2111.888,1422.0767,
2108.977,1353.5761,
2106.067,1322.866,
2103.156,1278.5276,
2100.245,1263.973,
2097.335,1218.3508,
2094.424,1195.1704,
2091.514,1175.8494,
2088.603,1153.0323,
2085.692,1153.2304,
2082.782,1158.1727,
2079.871,1174.2509,
2076.961,1134.0352,
2074.050,1181.7576,
2071.140,1172.6555,
2068.229,1152.9935,
2065.318,1154.4932,
2062.408,1147.9395,
2059.497,1148.3929,
2056.587,1161.6044,
2053.676,1158.2006,
2050.766,1140.3087,
2047.855,1170.5728,
2044.944,1159.5913,
2042.034,1174.7051,
2039.123,1166.0236,
2036.213,1187.2911,
2033.302,1156.9567,
2030.391,1151.7965,
2027.481,1170.6218,
2024.570,1165.0431,
2021.660,1185.5809,
2018.749,1176.6838,
2015.839,1194.9416,
2012.928,1200.0805,
2010.017,1200.8958,
2007.107,1207.7439,
2004.196,1206,
2001.286,1238.6289,
1998.375,1199.4596,
1995.465,1165.9205,
1992.554,1191.1704,
1989.643,1204.6544,
1986.733,1183.6789,
1983.822,1179.1285,
1980.912,1194.1987,
1978.001,1204.7551,
1975.090,1179.7512,
1972.180,1202.8617,
1969.269,1194.5459,
1966.359,1203.1624,
1963.448,1205.6948,
1960.538,1221.6647,
1957.627,1254.5325,
1954.716,1212.3502,
1951.806,1231.3477,
1948.895,1231.3685,
1945.985,1188.6552,
1943.074,1199.8413,
1940.164,1205.5578,
1937.253,1214.5826,
1934.342,1194.8032,
1931.432,1172,
1928.521,1223.9516,
1925.611,1192.1759,
1922.700,1180.0801,
1919.790,1214.0054,
1916.879,1203.1857,
1913.968,1275.909,
1911.058,1207.5375,
1908.147,1205.2511,
1905.237,1234.1912,
1902.326,1231.88,
1899.415,1206.0951,
1896.505,1202.223,
1893.594,1225.4482,
1890.684,1232.3203,
1887.773,1232.7757,
1884.863,1240.8269,
1881.952,1221.3777,
1879.041,1213.513,
1876.131,1236.8026,
1873.220,1217.5928,
1870.310,1250.2017,
1867.399,1234.3039,
1864.489,1260.8706,
1861.578,1230.4782,
1858.667,1214.3622,
1855.757,1261.2064,
1852.846,1256.7641,
1849.936,1261.0701,
1847.025,1265.4063,
1844.114,1300.8636,
1841.204,1309.7832,
1838.293,1287.0233,
1835.383,1293.2205,
1832.472,1300.5113,
1829.562,1307.4148,
1826.651,1310.2136,
1823.740,1313.8238,
1820.830,1320.63,
1817.919,1330.1438,
1815.009,1318.3003,
1812.098,1324.0787,
1809.188,1344.6976,
1806.277,1338.1771,
1803.366,1346.1331,
1800.456,1354,
1797.545,1354.7376,
1794.635,1359.033,
1791.724,1342.7961,
1788.813,1369.4095,
1785.903,1396.6551,
1782.992,1373.7093,
1780.082,1348.2682,
1777.171,1381.9979,
1774.261,1364.1448,
1771.350,1374.7025,
1768.439,1419.128,
1765.529,1419.2722,
1762.618,1420.3481,
1759.708,1433.174,
1756.797,1446.3788,
1753.887,1460.0262,
1750.976,1444.5929,
1748.065,1454.8064,
1745.155,1443.5357,
1742.244,1460.4447,
1739.334,1509.1812,
1736.423,1484.4337,
1733.512,1487.6464,
1730.602,1509.9603,
1727.691,1530.3532,
1724.781,1489.3786,
1721.870,1501.9478,
1718.960,1545.0004,
1716.049,1544.6103,
1713.138,1581.4748,
1710.228,1571.4644,
1707.317,1576.0766,
1704.407,1547.3529,
1701.496,1612.3661,
1698.586,1565.4089,
1695.675,1616.2068,
1692.764,1604.8525,
1689.854,1628.874,
1686.943,1612.6071,
1684.033,1621.7516,
1681.122,1630.8471,
1678.211,1688.448,
1675.301,1711.9291,
1672.390,1739.9611,
1669.480,1727.2086,
1666.569,1753.5713,
1663.659,1798.4736,
1660.748,1827.3856,
1657.837,1847.4811,
1654.927,1869.6326,
1652.016,1896.0729,
1649.106,1899.9792,
1646.195,1939.8871,
1643.285,1976.4557,
1640.374,1996.8989,
1637.463,2039.5765,
1634.553,2071.9015,
1631.642,2132.4886,
1628.732,2177.5214,
1625.821,2265.0563,
1622.911,2350.5154,
1620.000,2475.4126,
1617.089,2623.0348,
1614.179,2785.375,
1611.268,2893.022,
1608.358,3027.5852,
1605.447,3092.4576,
1602.536,3258.1484,
1599.626,3261.7206,
1596.715,3271.8912,
1593.805,3167.4688,
1590.894,3103.9211,
1587.984,3165.4213,
1585.073,3131.7575,
1582.162,3080.5859,
1579.252,3013.0823,
1576.341,2962.35,
1573.431,2949.0841,
1570.520,2922.0112,
1567.610,2885.6858,
1564.699,2878.1751,
1561.788,2846.6059,
1558.878,2807.055,
1555.967,2800.2853,
1553.057,2747.5006,
1550.146,2691.4182,
1547.235,2671.2774,
1544.325,2644.8132,
1541.414,2616.1989,
1538.504,2601.3482,
1535.593,2553.6384,
1532.683,2511.297,
1529.772,2494.1628,
1526.861,2466.793,
1523.951,2447.1094,
1521.040,2414.602,
1518.130,2411.5579,
1515.219,2410.5203,
1512.309,2390.3288,
1509.398,2366.5779,
1506.487,2376.1811,
1503.577,2372.5914,
1500.666,2348.1192,
1497.756,2359.0596,
1494.845,2381.6787,
1491.934,2326.0094,
1489.024,2328.8969,
1486.113,2310.4557,
1483.203,2277.026,
1480.292,2289.1217,
1477.382,2256.4371,
1474.471,2239.5588,
1471.560,2260.2213,
1468.650,2253.2847,
1465.739,2227.4258,
1462.829,2217,
1459.918,2207.6077,
1457.008,2214.7233,
1454.097,2209.1272,
1451.186,2161.0484,
1448.276,2117.1447,
1445.365,2130.2907,
1442.455,2185.0802,
1439.544,2156.7447,
1436.633,2120.6038,
1433.723,2197.1307,
1430.812,2183.1134,
1427.902,2172.5863,
1424.991,2197.2281,
1422.081,2186.9903,
1419.170,2141.0689,
1416.259,2106.4579,
1413.349,2085.6504,
1410.438,2140.4813,
1407.528,2179.5186,
1404.617,2145.3139,
1401.707,2114.9401,
1398.796,2122.4965,
1395.885,2128.6929,
1392.975,2147.376,
1390.064,2213.839,
1387.154,2249.0359,
1384.243,2189.0712,
1381.332,2254.3039,
1378.422,2312.7585,
1375.511,2308.0746,
1372.601,2362.3727,
1369.690,2372.1433,
1366.780,2358.7434,
1363.869,2402.221,
1360.958,2497.2453,
1358.048,2518.014,
1355.137,2550.7345,
1352.227,2638.6669,
1349.316,2695.9441,
1346.406,2714.327,
1343.495,2743.0139,
1340.584,2736.3568,
1337.674,2769.4689,
1334.763,2841.3761,
1331.853,2877.5381,
1328.942,2911.9102,
1326.032,2891.5314,
1323.121,2927.494,
1320.210,2988.6145,
1317.300,3049.1846,
1314.389,3097.0977,
1311.479,3163.4366,
1308.568,3225.2327,
1305.657,3268.0864,
1302.747,3381.3993,
1299.836,3458.7912,
1296.926,3494.7519,
1294.015,3532.4442,
1291.105,3563.0579,
1288.194,3628.5032,
1285.283,3731.3524,
1282.373,3758.4063,
1279.462,3796.8227,
1276.552,3877.0632,
1273.641,3937.7309,
1270.731,3972.2881,
1267.820,4019.1303,
1264.909,4016.7148,
1261.999,4051,
1259.088,4051,
1256.178,3930.2396,
1253.267,3880.0794,
1250.356,3805.3064,
1247.446,3733.5158,
1244.535,3656.9332,
1241.625,3600.7334,
1238.714,3549.2116,
1235.804,3442.8351,
1232.893,3378.8844,
1229.982,3334.1908,
1227.072,3280.7774,
1224.161,3224.8888,
1221.251,3198.6208,
1218.340,3161.2572,
1215.430,3108.7657,
1212.519,3078.6417,
1209.608,3054.6743,
1206.698,3028.5535,
1203.787,3062.2764,
1200.877,3019.7363,
1197.966,3096.1648,
1195.055,3154.6079,
1192.145,3252.6585,
1189.234,3330.0106,
1186.324,3368.0012,
1183.413,3389.0406,
1180.503,3385.4627,
1177.592,3345.6565,
1174.681,3327.7466,
1171.771,3325.5879,
1168.860,3307.7261,
1165.950,3202.7949,
1163.039,3212.9201,
1160.129,3184.9406,
1157.218,3141.0587,
1154.307,3137.5018,
1151.397,3161.9529,
1148.486,3176,
1145.576,3174.3039,
1142.665,3135.2357,
1139.754,3135.2545,
1136.844,3121.9939,
1133.933,3106.0294,
1131.023,3140.5444,
1128.112,3166.6458,
1125.202,3130.4831,
1122.291,3140.2723,
1119.380,3197.7402,
1116.470,3171.2643,
1113.559,3219.8077,
1110.649,3219.2837,
1107.738,3211.5358,
1104.828,3224.0669,
1101.917,3238.633,
1099.006,3234.402,
1096.096,3238.3661,
1093.185,3195.344,
1090.275,3184.7166,
1087.364,3213.8755,
1084.453,3200.4393,
1081.543,3186.888,
1078.632,3217.684,
1075.722,3264.5045,
1072.811,3274.2267,
1069.901,3319.6363,
1066.990,3314.9167,
1064.079,3383.0929,
1061.169,3409.9247,
1058.258,3391.025,
1055.348,3371.4121,
1052.437,3374.2637,
1049.527,3396.6042,
1046.616,3412.2431,
1043.705,3400.897,
1040.795,3391.892,
1037.884,3413.7811,
1034.974,3430.924,
1032.063,3417.3308,
1029.153,3415.2197,
1026.242,3442.0334,
1023.331,3458.8323,
1020.421,3495.4609,
1017.510,3536.8932,
1014.600,3585.9134,
1011.689,3608.3211,
1008.778,3578.2365,
1005.868,3632.556,
1002.957,3694.5015,
1000.047,3856.1521,
997.136,3935.9057,
994.226,3938.1694,
991.315,3914.6064,
988.404,3887.0296,
985.494,3818.8492,
982.583,3767.4558,
979.673,3773.9013,
976.762,3774.8903,
973.852,3790.5644,
970.941,3789.104,
968.030,3746.9829,
965.120,3842.8496,
962.209,3807.0429,
959.299,3778.336,
956.388,3802.5979,
953.477,3840.9198,
950.567,3862.967,
947.656,3874.4376,
944.746,3854.8978,
941.835,3916.3556,
938.925,3896.7814,
936.014,3863.3194,
933.103,3849.7655,
930.193,3843.0122,
927.282,3804.1457,
924.372,3825.2859,
921.461,3757.3056,
918.551,3697.144,
915.640,3671.1501,
912.729,3660.8759,
909.819,3628.9941,
906.908,3575.9213,
903.998,3583.3397,
901.087,3602.5492,
898.176,3626.793,
895.266,3657.6004,
892.355,3695.2824,
889.445,3728.8531,
886.534,3789.1108,
883.624,3818.4936,
880.713,3809.1375,
877.802,3805.2009,
874.892,3806.8353,
871.981,3702.5007,
869.071,3639.0093,
866.160,3641.1092,
863.250,3693.1298,
860.339,3757.9104,
857.428,3794.4086,
854.518,3774.1816,
851.607,3745.8912,
848.697,3691.4772,
845.786,3663.2914,
842.875,3697.8485,
839.965,3786.7286,
837.054,3854.2791,
834.144,3879.1417,
831.233,3887.3331,
828.323,3879.6031,
825.412,3866.7804,
822.501,3847.4891,
819.591,3778.0715,
816.680,3807.2501,
813.770,3756.7353,
810.859,3742.7571,
807.949,3746.778,
805.038,3690.3031,
802.127,3684.5412,
799.217,3668.3468,
796.306,3626.6754,
793.396,3578.3662,
790.485,3547.8952,
787.574,3557.7712,
784.664,3630.7612,
781.753,3582.2695,
778.843,3606.8892,
775.932,3665.8518,
773.022,3673.5503,
770.111,3696.4425,
767.200,3669.8314,
764.290,3638.4628,
761.379,3654.691,
758.469,3707.5112,
755.558,3715.9302,
752.648,3680.0877,
749.737,3679.5279,
746.826,3659.6889,
743.916,3658.4095,
741.005,3729.594,
738.095,3779.1185,
735.184,3764.2633,
732.274,3695.5218,
729.363,3647.3884,
726.452,3662.0465,
723.542,3673.378,
720.631,3619.7177,
717.721,3609.3013,
714.810,3625.8011,
711.899,3651.3961,
708.989,3678.8315,
706.078,3635.7296,
703.168,3600.7112,
700.257,3609.7543,
697.347,3638.6963,
694.436,3615.3672,
691.525,3592.0568,
688.615,3575.6796,
685.704,3575.0437,
682.794,3590.9574,
679.883,3618.5859,
676.973,3653.8462,
674.062,3648.2384,
671.151,3645.8216,
668.241,3638.4199,
665.330,3597.9497,
662.420,3660.2507,
659.509,3675.5397,
656.598,3694.31,
653.688,3704.8077,
650.777,3664.6211,
647.867,3682.9366,
644.956,3654.8042,
642.046,3622.9767,
639.135,3611.2402,
636.224,3631.0836,
633.314,3647.7563,
630.403,3693.976,
627.493,3726.4567,
624.582,3728.292,
621.672,3711.6601,
618.761,3745.9572,
615.850,3751.4901,
612.940,3764.7598,
610.029,3795.1858,
607.119,3772.2866,
604.208,3774.2601,
601.297,3789.46,
598.387,3815.6118,
595.476,3843.9546,
592.566,3811.6848,
589.655,3811.831,
586.745,3795.0374,
583.834,3766.1454,
580.923,3756.1137,
578.013,3774.9473,
575.102,3809.253,
572.192,3834.2156,
569.281,3851.3886,
566.371,3914.7811,
563.460,3908.3016,
560.549,3871.8142,
557.639,3833.3602,
554.728,3819.626,
551.818,3845.3764,
548.907,3826.6235,
545.996,3823.8301,
543.086,3848.1941,
540.175,3867.6602,
537.265,3834.2346,
534.354,3835.549,
531.444,3863.0969,
528.533,3893.6891,
525.622,3847.1322,
522.712,3870.3714,
519.801,3897.7282,
516.891,3911.8517,
513.980,3935.8548,
511.070,3956.313,
508.159,4006.0258,
505.248,4059.0101,
502.338,4079.1415,
499.427,4049.8119,
496.517,4131.3736,
493.606,4192.5972,
490.695,4180.6746,
487.785,4199.9194,
484.874,4214.632,
481.964,4219.3389,
479.053,4207.991,
476.143,4170.3608,
473.232,4193.1791,
470.321,4192.2953,
467.411,4174.162,
464.500,4154.4654,
461.590,4172.8432,
458.679,4237.9821,
455.769,4282.5891,
452.858,4268.4665,
449.947,4224.9224,
447.037,4226.3149,
444.126,4258.5091,
441.216,4309.6727,
438.305,4353.8648,
435.395,4334.4302,
432.484,4357.6742,
429.573,4401.3674,
426.663,4368.6814,
423.752,4287.1916,
420.842,4179.0169,
417.931,4095.7403,
415.020,4112.4242,
412.110,4309.0723,
409.199,4420.1198,
406.289,4461.7379,
403.378,4464.0845,
400.468,4489.0323,
397.557,4483.6321,
394.646,4515.442,
391.736,4634.9376,
388.825,4601.7514,
385.915,4595.7254,
383.004,4597.5723,
380.094,4595.9578,
377.183,4634.3341,
374.272,4660.1979,
371.362,4685.9504,
368.451,4718.4133,
365.541,4741.6799,
362.630,4764.3872,
359.719,4759.946,
356.809,4720.1716,
353.898,4772.5875,
350.988,4769.0979,
348.077,4734.5426,
345.167,4690.6328,
342.256,4762.3513,
339.345,4746.8626,
336.435,4722.495,
333.524,4743.5502,
330.614,4792.7305,
327.703,4789.004,
324.793,4765.5864,
321.882,4750.1604,
318.971,4816.3269,
316.061,4844.3715,
313.150,4855.7738,
310.240,4874.3267,
307.329,4967.1882,
304.418,4988.4976,
301.508,4961.5323,
298.597,4929.6944,
295.687,4979.8248,
292.776,5055.4169,
289.866,5145.7727,
286.955,5239.5908,
284.044,5237.1875,
281.134,5226.1486,
278.223,5232.5925,
275.313,5298.1726,
272.402,5291.0875,
269.492,5275.6831,
266.581,5277.8377,
263.670,5317.5375,
260.760,5345.1939,
257.849,5392.335,
254.939,5484.8042,
252.028,5470.7993,
249.117,5470.9388,
246.207,5483.4929,
243.296,5504.722,
240.386,5489.3692,
237.475,5473.0846,
234.565,5458.779,
231.654,5438.3283,
228.743,5375.3125,
225.833,5332.9147,
222.922,5335.7134,
220.012,5351.0131,
217.101,5345.695,
214.191,5339.3712,
211.280,5353.9205,
208.369,5378.5485,
205.459,5369.239,
202.548,5348.9053,
199.638,5412.0368,
196.727,5410.0184,
193.816,5408.6327,
190.906,5432.0158,
187.995,5460.9768,
185.085,5473.3643,
182.174,5481.8765,
179.264,5503.5595,
176.353,5498.3107,
173.442,5527.7179,
170.532,5585.8239,
167.621,5575.7302,
164.711,5412.7018,
161.800,5187.3892,
158.890,4951.3186,
155.979,4682.5483,
153.068,4294.3907,
150.158,3810.7411,
147.247,3309.6104,
144.337,2754.1191,
141.426,2188.1609,
138.516,1630.4196,
135.605,1144.723,
132.694,772.81195,
129.784,505.6174,
126.873,349.71909,
123.963,236.62297,
121.052,158.28594,
118.141,116.16572,
115.231,91.840608,
112.320,79.458184,
109.410,73.40925,
106.499,59.878301,
103.589,55.319237,
100.678,49.382431,
97.767,37.296492,
94.857,37.692989,
91.946,33.16267,
89.036,27.128979,
86.125,34.221032,
83.215,29.628956,
80.304,24.239433,
77.393,24.947603,
74.483,23.034595,
71.572,22.362352,
68.662,23,
65.751,23,
62.840,17.219576,
59.930,12.311003,
57.019,17.246577,
54.109,19.791483,
51.198,19.491954,
48.288,15.994338,
45.377,15.290959,
42.466,15,
39.556,14.539526,
36.645,11.730765,
33.735,14.634739,
30.824,15.128469,
27.914,6.0131912,
25.003,6.8679124,
22.092,10.906141,
19.182,17.457657,
16.271,31.44746,
13.361,94.739743,
10.450,167.50975,
7.539,129.80072,
4.629,84.889902,
1.718,-18.131997,
-1.192,-246.7954,
-4.103,-239.53983,
-7.013,-149.4191,
-9.924,3,
