,PL6CF5~1,
Wavenumbers [1/cm],Intensity,
3014.167,-5.5,
3011.256,1.0999141,
3008.346,144.85008,
3005.435,157.57774,
3002.525,163.87752,
2999.614,177.5,
2996.704,183.63299,
2993.793,170.72926,
2990.882,185.37024,
2987.972,191.45964,
2985.061,180.39655,
2982.151,189.7101,
2979.240,212.04656,
2976.329,226.74317,
2973.419,216.05379,
2970.508,220.96665,
2967.598,224.26466,
2964.687,235.67935,
2961.777,265.02171,
2958.866,237.16716,
2955.955,237.25885,
2953.045,253.78412,
2950.134,258.28717,
2947.224,270.24019,
2944.313,291.0057,
2941.403,295.92883,
2938.492,272.84149,
2935.581,283.00555,
2932.671,285.54294,
2929.760,294.61922,
2926.850,292.34323,
2923.939,298.53736,
2921.028,315.20596,
2918.118,309.20151,
2915.207,314.43662,
2912.297,340.36883,
2909.386,313.66789,
2906.476,329.52243,
2903.565,321.82297,
2900.654,333.85184,
2897.744,304.82688,
2894.833,320.19091,
2891.923,312.7981,
2889.012,328.87572,
2886.102,336.16485,
2883.191,382.46224,
2880.280,369.60048,
2877.370,425.37776,
2874.459,451.93366,
2871.549,371.38119,
2868.638,372.3206,
2865.727,342.41925,
2862.817,332.85695,
2859.906,333.03275,
2856.996,360.5,
2854.085,349.0567,
2851.175,350.9066,
2848.264,343.16151,
2845.353,349.45687,
2842.443,346.30209,
2839.532,334.41051,
2836.622,335.16862,
2833.711,341.87048,
2830.801,326.91029,
2827.890,322.02274,
2824.979,344.98191,
2822.069,355.55686,
2819.158,349.85848,
2816.248,348.93631,
2813.337,354.86097,
2810.427,358.80855,
2807.516,364.9675,
2804.605,348.40386,
2801.695,364.67105,
2798.784,349.53492,
2795.874,359.36016,
2792.963,354.57138,
2790.052,337.50343,
2787.142,348.07892,
2784.231,349.75776,
2781.321,366.92849,
2778.410,343.08503,
2775.500,360.88068,
2772.589,335.96329,
2769.678,370.39075,
2766.768,369.76018,
2763.857,365.97399,
2760.947,367.4937,
2758.036,376.66567,
2755.126,363.39531,
2752.215,377.86351,
2749.304,379.83992,
2746.394,375.88706,
2743.483,374.75006,
2740.573,376.80758,
2737.662,380.93639,
2734.751,376.05824,
2731.841,378.28388,
2728.930,384.80515,
2726.020,384.39815,
2723.109,379.97442,
2720.199,385.77504,
2717.288,390.91972,
2714.377,396.1459,
2711.467,410.94285,
2708.556,404.14884,
2705.646,395.66898,
2702.735,401.32216,
2699.825,405.17279,
2696.914,418.07136,
2694.003,407.72927,
2691.093,401.16065,
2688.182,418.59259,
2685.272,414.38478,
2682.361,409.3821,
2679.450,421.5,
2676.540,414.27644,
2673.629,409.8049,
2670.719,419.28835,
2667.808,425.11092,
2664.898,422.46109,
2661.987,430.83355,
2659.076,441.24569,
2656.166,428.09737,
2653.255,441.75681,
2650.345,433.60345,
2647.434,428.78608,
2644.524,436.70861,
2641.613,441.21465,
2638.702,443.56312,
2635.792,439.28265,
2632.881,434.85108,
2629.971,443.86244,
2627.060,435.49938,
2624.149,445.55312,
2621.239,446.99111,
2618.328,451.66955,
2615.418,457.82273,
2612.507,458.77669,
2609.597,458.31637,
2606.686,446.25302,
2603.775,457.82143,
2600.865,461.73549,
2597.954,459.93742,
2595.044,488.5,
2592.133,476.88205,
2589.223,481.09054,
2586.312,479.37938,
2583.401,488.94891,
2580.491,485.8702,
2577.580,501.4835,
2574.670,497.03474,
2571.759,501.59076,
2568.848,492.67679,
2565.938,485.83324,
2563.027,488.62052,
2560.117,485.48134,
2557.206,515.19741,
2554.296,501.93249,
2551.385,514.55796,
2548.474,499.64795,
2545.564,483.87987,
2542.653,504.63759,
2539.743,495.41374,
2536.832,516.09253,
2533.922,531.16885,
2531.011,506.9253,
2528.100,517.7579,
2525.190,533.12828,
2522.279,515.4531,
2519.369,516.61308,
2516.458,526.50354,
2513.548,532.92724,
2510.637,515.60669,
2507.726,523.75648,
2504.816,523.06483,
2501.905,531.8189,
2498.995,534.90281,
2496.084,528.2596,
2493.173,544.44768,
2490.263,538.14066,
2487.352,544.70867,
2484.442,546.36725,
2481.531,544.81909,
2478.621,554.33888,
2475.710,541.69936,
2472.799,567.00673,
2469.889,558.71328,
2466.978,554.38657,
2464.068,581.35723,
2461.157,551.19493,
2458.247,568.89713,
2455.336,571.56457,
2452.425,556.91036,
2449.515,582.97194,
2446.604,588.56455,
2443.694,581.82566,
2440.783,585.11937,
2437.872,599.09889,
2434.962,592.96543,
2432.051,595.25907,
2429.141,578.80596,
2426.230,572.76076,
2423.320,614.47207,
2420.409,593.92936,
2417.498,600.31179,
2414.588,600.76995,
2411.677,611.42425,
2408.767,581.74114,
2405.856,582.31427,
2402.946,606.03619,
2400.035,597.51877,
2397.124,613.7246,
2394.214,612.256,
2391.303,612.4668,
2388.393,592.37203,
2385.482,596.88313,
2382.571,598.69015,
2379.661,605.8718,
2376.750,631.76356,
2373.840,627.36251,
2370.929,646.28341,
2368.019,618.74013,
2365.108,634.91885,
2362.197,623.54106,
2359.287,640.65154,
2356.376,637.51585,
2353.466,653.65064,
2350.555,658.59972,
2347.645,648.86821,
2344.734,677.29269,
2341.823,653.03066,
2338.913,669.94774,
2336.002,662.77025,
2333.092,669.48866,
2330.181,667.78132,
2327.270,675.16997,
2324.360,674.75238,
2321.449,664.79252,
2318.539,669.03211,
2315.628,683.7514,
2312.718,700.98238,
2309.807,685.15843,
2306.896,680.24804,
2303.986,674.27917,
2301.075,672.43615,
2298.165,673.10572,
2295.254,713.59519,
2292.344,707.45025,
2289.433,691.12545,
2286.522,696.41505,
2283.612,696.31886,
2280.701,712.86767,
2277.791,711.66217,
2274.880,735.43408,
2271.969,726.30247,
2269.059,734.94142,
2266.148,734.5,
2263.238,742.59652,
2260.327,735.29308,
2257.417,736.29555,
2254.506,746.88176,
2251.595,753.63449,
2248.685,752.39811,
2245.774,763.91733,
2242.864,743.11098,
2239.953,748.19635,
2237.043,766.57645,
2234.132,750.61423,
2231.221,768.31658,
2228.311,780.19844,
2225.400,781.25992,
2222.490,803.78656,
2219.579,786.47429,
2216.669,783.00715,
2213.758,783.45687,
2210.847,789.33627,
2207.937,823.11559,
2205.026,812.94431,
2202.116,819.64649,
2199.205,835.09953,
2196.294,838.88002,
2193.384,850.84153,
2190.473,836.05047,
2187.563,851.51933,
2184.652,856.7049,
2181.742,870.88728,
2178.831,903.44948,
2175.920,930.6603,
2173.010,941.5754,
2170.099,999.82691,
2167.189,1007.8588,
2164.278,1064.9834,
2161.368,1119.0702,
2158.457,1176.4248,
2155.546,1235.8779,
2152.636,1297.5797,
2149.725,1328.4866,
2146.815,1389.4645,
2143.904,1429.6115,
2140.993,1461.4576,
2138.083,1492.3722,
2135.172,1519.5336,
2132.262,1529.8952,
2129.351,1536.2345,
2126.441,1502.8106,
2123.530,1468.0286,
2120.619,1419.8948,
2117.709,1363.9972,
2114.798,1286.5957,
2111.888,1187.5018,
2108.977,1133.8775,
2106.067,1108.0573,
2103.156,1057.6284,
2100.245,1035.468,
2097.335,981.00786,
2094.424,954.0639,
2091.514,935.91386,
2088.603,918.61979,
2085.692,936.54827,
2082.782,940.67271,
2079.871,898.4265,
2076.961,945.62533,
2074.050,923.20909,
2071.140,915.89093,
2068.229,909.40494,
2065.318,903.40024,
2062.408,905.68985,
2059.497,890.42852,
2056.587,867.91858,
2053.676,878.2994,
2050.766,895.26831,
2047.855,898.84498,
2044.944,878.6282,
2042.034,887.99705,
2039.123,884.72222,
2036.213,892.34883,
2033.302,885.3694,
2030.391,884.1952,
2027.481,899.32907,
2024.570,904.81433,
2021.660,927.0809,
2018.749,929.93014,
2015.839,913.34777,
2012.928,904.78692,
2010.017,930.29154,
2007.107,919.28499,
2004.196,905.0477,
2001.286,929.91696,
1998.375,916.8868,
1995.465,890.04822,
1992.554,879.24122,
1989.643,897.80873,
1986.733,899.24912,
1983.822,913.91063,
1980.912,921.13355,
1978.001,915.87291,
1975.090,913.70305,
1972.180,924.08509,
1969.269,920.64937,
1966.359,929.90568,
1963.448,913.0099,
1960.538,924.41076,
1957.627,932.17492,
1954.716,928.61491,
1951.806,910.14582,
1948.895,919.05673,
1945.985,886.30882,
1943.074,865.64367,
1940.164,898.45179,
1937.253,896.96936,
1934.342,881.76472,
1931.432,878.74606,
1928.521,898.44819,
1925.611,877.87685,
1922.700,887.70303,
1919.790,896.80631,
1916.879,872.38324,
1913.968,907.45451,
1911.058,891.509,
1908.147,885.20518,
1905.237,923.38963,
1902.326,871.59927,
1899.415,865.14025,
1896.505,880.24713,
1893.594,911.67383,
1890.684,913.55892,
1887.773,913.78415,
1884.863,924.13781,
1881.952,911.94512,
1879.041,899.69159,
1876.131,882.0268,
1873.220,878.5,
1870.310,906.34748,
1867.399,901.61196,
1864.489,915.05909,
1861.578,879.8736,
1858.667,882.03294,
1855.757,873.89857,
1852.846,889.82303,
1849.936,927.05857,
1847.025,930.37589,
1844.114,945.01524,
1841.204,926.20629,
1838.293,922.51164,
1835.383,947.19697,
1832.472,948.59217,
1829.562,926.38958,
1826.651,946.06465,
1823.740,937.57276,
1820.830,971.398,
1817.919,971.28435,
1815.009,979.63104,
1812.098,964.44489,
1809.188,985.94956,
1806.277,931.76152,
1803.366,989.53327,
1800.456,991.5,
1797.545,992.88291,
1794.635,1003.2749,
1791.724,976.38356,
1788.813,964.71826,
1785.903,1017.9826,
1782.992,1001.1349,
1780.082,996.44166,
1777.171,1034.508,
1774.261,1033.8394,
1771.350,1010.9728,
1768.439,1053.2441,
1765.529,1039.3166,
1762.618,1019.3544,
1759.708,1021.7827,
1756.797,1031.8106,
1753.887,1024.4227,
1750.976,1042.3174,
1748.065,1085.1498,
1745.155,1053.9584,
1742.244,1049.6748,
1739.334,1056.7071,
1736.423,1057.3262,
1733.512,1084.6952,
1730.602,1119.1846,
1727.691,1096.0259,
1724.781,1104.5913,
1721.870,1082.9427,
1718.960,1092.9446,
1716.049,1130.059,
1713.138,1144.195,
1710.228,1115.9099,
1707.317,1141.5754,
1704.407,1147.2968,
1701.496,1174.8464,
1698.586,1187.6638,
1695.675,1197.8571,
1692.764,1160.6311,
1689.854,1208.2481,
1686.943,1195.0396,
1684.033,1252.0347,
1681.122,1242.6869,
1678.211,1232.5952,
1675.301,1275.3674,
1672.390,1338.3056,
1669.480,1274.0295,
1666.569,1339.3476,
1663.659,1328.4473,
1660.748,1385.8856,
1657.837,1405.1282,
1654.927,1388.828,
1652.016,1403.5206,
1649.106,1445.5772,
1646.195,1490.0345,
1643.285,1551.748,
1640.374,1520.3362,
1637.463,1561.3375,
1634.553,1661.101,
1631.642,1635.2492,
1628.732,1704.134,
1625.821,1810.5831,
1622.911,1936.7843,
1620.000,2032.2905,
1617.089,2156.9925,
1614.179,2292.6365,
1611.268,2389.8937,
1608.358,2488.8177,
1605.447,2631.1583,
1602.536,2735.4844,
1599.626,2697.4233,
1596.715,2712.5596,
1593.805,2677.8324,
1590.894,2616.2564,
1587.984,2637.081,
1585.073,2629.5886,
1582.162,2559.0393,
1579.252,2484.1274,
1576.341,2400.0064,
1573.431,2413.827,
1570.520,2419.4425,
1567.610,2393.1663,
1564.699,2380.1498,
1561.788,2343.9933,
1558.878,2315.162,
1555.967,2304.536,
1553.057,2270.6038,
1550.146,2189.8165,
1547.235,2195.9551,
1544.325,2172.6434,
1541.414,2125.6395,
1538.504,2096.8375,
1535.593,2023.3478,
1532.683,2000.3606,
1529.772,2006.1755,
1526.861,1947.7859,
1523.951,1918.8727,
1521.040,1906.1397,
1518.130,1884.5506,
1515.219,1887.3405,
1512.309,1868.7748,
1509.398,1853.8404,
1506.487,1842.7198,
1503.577,1881.0448,
1500.666,1766.909,
1497.756,1847.059,
1494.845,1815.659,
1491.934,1771.5094,
1489.024,1774.3969,
1486.113,1813.4431,
1483.203,1754.3283,
1480.292,1715.9536,
1477.382,1686.2526,
1474.471,1705.0561,
1471.560,1699.438,
1468.650,1707.4822,
1465.739,1690.4424,
1462.829,1660.7891,
1459.918,1651.71,
1457.008,1633.6997,
1454.097,1631.1377,
1451.186,1623.0532,
1448.276,1607.0071,
1445.365,1627.8183,
1442.455,1597.6063,
1439.544,1614.9296,
1436.633,1609.3252,
1433.723,1610.494,
1430.812,1622.0619,
1427.902,1592.1088,
1424.991,1617.6984,
1422.081,1568.9562,
1419.170,1581.7812,
1416.259,1552.0975,
1413.349,1518.8218,
1410.438,1544.0894,
1407.528,1570.7311,
1404.617,1541.098,
1401.707,1522.9192,
1398.796,1549.7971,
1395.885,1566.7125,
1392.975,1576.5633,
1390.064,1606.5569,
1387.154,1585.714,
1384.243,1545.6734,
1381.332,1581.7879,
1378.422,1674.0941,
1375.511,1705.0078,
1372.601,1676.9313,
1369.690,1750.7928,
1366.780,1742.1151,
1363.869,1823.6772,
1360.958,1828.7709,
1358.048,1857.2184,
1355.137,1914.3613,
1352.227,1971.5263,
1349.316,2017.2766,
1346.406,2032.3738,
1343.495,2042.4861,
1340.584,2063.2494,
1337.674,2112.0761,
1334.763,2183.006,
1331.853,2170.0248,
1328.942,2242.4361,
1326.032,2236.8188,
1323.121,2260.9157,
1320.210,2306.4597,
1317.300,2373.4893,
1314.389,2411.6112,
1311.479,2471.4219,
1308.568,2558.9452,
1305.657,2625.2721,
1302.747,2740.6752,
1299.836,2808.9226,
1296.926,2842.5937,
1294.015,2887.6406,
1291.105,2878.9335,
1288.194,2956.5756,
1285.283,3036.6443,
1282.373,3100.9999,
1279.462,3167.3227,
1276.552,3235.4844,
1273.641,3311.8402,
1270.731,3394.2,
1267.820,3457.7036,
1264.909,3511.4003,
1261.999,3450.1699,
1259.088,3386.3214,
1256.178,3279.7252,
1253.267,3223.373,
1250.356,3157.3197,
1247.446,3069.3069,
1244.535,2984.8662,
1241.625,2892.6335,
1238.714,2779.5139,
1235.804,2678.8982,
1232.893,2612.5108,
1229.982,2562.6107,
1227.072,2536.3567,
1224.161,2454.6521,
1221.251,2397.063,
1218.340,2359.1788,
1215.430,2314.0184,
1212.519,2293.8386,
1209.608,2274.9218,
1206.698,2236.2024,
1203.787,2259.0477,
1200.877,2231.3388,
1197.966,2261.011,
1195.055,2331.6131,
1192.145,2456.2015,
1189.234,2536.9691,
1186.324,2555.5904,
1183.413,2562.5406,
1180.503,2571.4412,
1177.592,2557.3181,
1174.681,2531.4624,
1171.771,2448.3352,
1168.860,2441.1904,
1165.950,2417.1176,
1163.039,2417.7856,
1160.129,2415.1913,
1157.218,2389.3861,
1154.307,2357.3374,
1151.397,2337.7651,
1148.486,2331.2407,
1145.576,2385.5749,
1142.665,2364.2649,
1139.754,2387.7225,
1136.844,2366.8885,
1133.933,2296.2629,
1131.023,2291.7956,
1128.112,2347.7836,
1125.202,2372.7754,
1122.291,2372.1294,
1119.380,2383.448,
1116.470,2378.1529,
1113.559,2423.1217,
1110.649,2428.6419,
1107.738,2424.5,
1104.828,2393.7086,
1101.917,2344.8785,
1099.006,2329.0465,
1096.096,2314.8661,
1093.185,2271.844,
1090.275,2298.443,
1087.364,2302.7555,
1084.453,2353.8092,
1081.543,2391.8707,
1078.632,2380.6651,
1075.722,2372.715,
1072.811,2413.6169,
1069.901,2429.3356,
1066.990,2459.5999,
1064.079,2463.0974,
1061.169,2479.1736,
1058.258,2494.7705,
1055.348,2503.261,
1052.437,2511.9565,
1049.527,2472.9629,
1046.616,2459.0617,
1043.705,2505.2874,
1040.795,2499.7064,
1037.884,2494.5689,
1034.974,2499.3827,
1032.063,2507.2766,
1029.153,2534.5532,
1026.242,2501.6849,
1023.331,2543.8306,
1020.421,2577.5957,
1017.510,2628.2796,
1014.600,2666.6898,
1011.689,2689.8983,
1008.778,2725.6992,
1005.868,2738.5463,
1002.957,2743.7085,
1000.047,2877.7241,
997.136,2970.9621,
994.226,2979.6388,
991.315,2947.0198,
988.404,2925.745,
985.494,2880.7685,
982.583,2892.7603,
979.673,2847.6746,
976.762,2828.7387,
973.852,2850.4845,
970.941,2867.6448,
968.030,2848.3672,
965.120,2898.4893,
962.209,2895.9316,
959.299,2877.0855,
956.388,2868.94,
953.477,2889.4624,
950.567,2928.3884,
947.656,2948.3751,
944.746,2909.2955,
941.835,2937.4631,
938.925,2910.9394,
936.014,2901.5932,
933.103,2896.0824,
930.193,2868.9032,
927.282,2856.3919,
924.372,2817.494,
921.461,2755.7972,
918.551,2708.7771,
915.640,2670.8025,
912.729,2633.424,
909.819,2603.3913,
906.908,2625.2944,
903.998,2585.9364,
901.087,2592.0492,
898.176,2607.7035,
895.266,2635.7657,
892.355,2692.3371,
889.445,2750.2466,
886.534,2732.9677,
883.624,2781.9809,
880.713,2792.1893,
877.802,2750.4035,
874.892,2691.4107,
871.981,2656.5061,
869.071,2699.1122,
866.160,2706.5,
863.250,2722.7503,
860.339,2746.8073,
857.428,2755.0824,
854.518,2718.2001,
851.607,2673.2684,
848.697,2706.0812,
845.786,2706.8552,
842.875,2721.2603,
839.965,2777.6019,
837.054,2773.714,
834.144,2792.7753,
831.233,2801.1663,
828.323,2809.4349,
825.412,2806.485,
822.501,2779.4573,
819.591,2734.8317,
816.680,2731.8974,
813.770,2696.4159,
810.859,2675.5,
807.949,2668.8853,
805.038,2647.9159,
802.127,2618.2833,
799.217,2590.1567,
796.306,2578.0946,
793.396,2554.4769,
790.485,2517.2884,
787.574,2503.0569,
784.664,2544.0625,
781.753,2542.1062,
778.843,2545.3413,
775.932,2554.4259,
773.022,2562.0791,
770.111,2598.0525,
767.200,2585.2738,
764.290,2631.9311,
761.379,2639.1722,
758.469,2595.2205,
755.558,2604.5032,
752.648,2571.1044,
749.737,2560.5833,
746.826,2564.5609,
743.916,2569.2662,
741.005,2565.7009,
738.095,2585.186,
735.184,2569.6235,
732.274,2493.0815,
729.363,2437.5608,
726.452,2459.8321,
723.542,2505.9675,
720.631,2513.8518,
717.721,2522.3741,
714.810,2515.3183,
711.899,2498.5099,
708.989,2511.4207,
706.078,2513.9039,
703.168,2490.2112,
700.257,2472.0246,
697.347,2458.7184,
694.436,2424.1765,
691.525,2449.0944,
688.615,2459.5313,
685.704,2462.0683,
682.794,2469.2233,
679.883,2494.8965,
676.973,2503.7116,
674.062,2545.0611,
671.151,2555.2268,
668.241,2530.2083,
665.330,2500.8025,
662.420,2507.1924,
659.509,2514.2144,
656.598,2527.886,
653.688,2551.1618,
650.777,2581.5558,
647.867,2524.2202,
644.956,2486.734,
642.046,2454.0869,
639.135,2431.1769,
636.224,2437.9217,
633.314,2522.0792,
630.403,2550.0033,
627.493,2530.6874,
624.582,2493.2063,
621.672,2496.3743,
618.761,2490.4205,
615.850,2524.8652,
612.940,2555.8661,
610.029,2557.5793,
607.119,2552.0519,
604.208,2582.7406,
601.297,2555.1201,
598.387,2518.5129,
595.476,2531.0998,
592.566,2558.6472,
589.655,2569.331,
586.745,2532.5749,
583.834,2499.8234,
580.923,2568.5142,
578.013,2570.8684,
575.102,2572.0736,
572.192,2582.1467,
569.281,2611.5916,
566.371,2678.8972,
563.460,2637.5282,
560.549,2611.6527,
557.639,2592.8775,
554.728,2561.3577,
551.818,2606.6161,
548.907,2598.2176,
545.996,2597.7749,
543.086,2618.0164,
540.175,2629.6961,
537.265,2599.356,
534.354,2580.978,
531.444,2597.0713,
528.533,2652.8513,
525.622,2615.6058,
522.712,2659.6808,
519.801,2688.5356,
516.891,2685.5082,
513.980,2710.2856,
511.070,2730.1087,
508.159,2773.3175,
505.248,2821.7634,
502.338,2849.997,
499.427,2866.9773,
496.517,2900.3485,
493.606,2928.8933,
490.695,2938.5044,
487.785,2916.9503,
484.874,2944.5187,
481.964,2956.9319,
479.053,2947.3744,
476.143,2934.319,
473.232,2911.1985,
470.321,2899.094,
467.411,2899.5522,
464.500,2912.1982,
461.590,2939.7648,
458.679,2988.2218,
455.769,3033.4724,
452.858,3060.3749,
449.947,3068.7781,
447.037,3065.6459,
444.126,3075.0697,
441.216,3101.9238,
438.305,3133.163,
435.395,3121.1091,
432.484,3137.0884,
429.573,3172.0325,
426.663,3174.3129,
423.752,3133.3523,
420.842,3078.5084,
417.931,3030.837,
415.020,3017.9449,
412.110,3178.4549,
409.199,3285.9107,
406.289,3320.0194,
403.378,3269.728,
400.468,3337.0115,
397.557,3322.5095,
394.646,3322.7069,
391.736,3416.0312,
388.825,3432.6243,
385.915,3408.7615,
383.004,3393.2085,
380.094,3416.6171,
377.183,3399.3101,
374.272,3408.6123,
371.362,3434.922,
368.451,3470.503,
365.541,3487.0148,
362.630,3465.8267,
359.719,3463.4419,
356.809,3505.4643,
353.898,3455.2948,
350.988,3486.5264,
348.077,3510.8508,
345.167,3478.2568,
342.256,3493.1982,
339.345,3500.1572,
336.435,3508.8846,
333.524,3525.1007,
330.614,3512.4331,
327.703,3511.5804,
324.793,3515.2734,
321.882,3517.5811,
318.971,3551.036,
316.061,3620.1211,
313.150,3680.5,
310.240,3680.5,
307.329,3718.3758,
304.418,3755.8417,
301.508,3775.8046,
298.597,3750.6304,
295.687,3747.1455,
292.776,3768.5835,
289.866,3827.3686,
286.955,3959.6005,
284.044,3983.56,
281.134,4002.0521,
278.223,4028.0689,
275.313,4025.1215,
272.402,4031.4708,
269.492,4068.1853,
266.581,4139.4428,
263.670,4180.6129,
260.760,4243.1712,
257.849,4306.1808,
254.939,4353.8831,
252.028,4332.0608,
249.117,4318.4749,
246.207,4319.5082,
243.296,4346.5936,
240.386,4340.3581,
237.475,4308.2227,
234.565,4260.8189,
231.654,4237.4466,
228.743,4254.364,
225.833,4229.339,
222.922,4137.1987,
220.012,4173.6264,
217.101,4177.1578,
214.191,4183.5807,
211.280,4233.7756,
208.369,4234.8087,
205.459,4203.157,
202.548,4154.993,
199.638,4140.48,
196.727,4241.2189,
193.816,4311.4795,
190.906,4298.8459,
187.995,4337.2192,
185.085,4359.9571,
182.174,4393.8101,
179.264,4479.8193,
176.353,4478.6068,
173.442,4498.2416,
170.532,4543.164,
167.621,4540.2801,
164.711,4438.591,
161.800,4295.1521,
158.890,4141.8502,
155.979,3903.0674,
153.068,3584.2029,
150.158,3200.6317,
147.247,2789.963,
144.337,2298.115,
141.426,1804.0415,
138.516,1343.7974,
135.605,966.83023,
132.694,657.95982,
129.784,420.29849,
126.873,285.85408,
123.963,201.59299,
121.052,140.36949,
118.141,94.679762,
115.231,76.025171,
112.320,63.840005,
109.410,55.591026,
106.499,45.620853,
103.589,38.45771,
100.678,32.598648,
97.767,27.622085,
94.857,31.657934,
91.946,31.484446,
89.036,27.93551,
86.125,24.389484,
83.215,17.128956,
80.304,12.936596,
77.393,17.185616,
74.483,22.74108,
71.572,21.514127,
68.662,14.569267,
65.751,15.275719,
62.840,15.5,
59.930,14.563569,
57.019,11.038159,
54.109,14.680126,
51.198,17.198391,
48.288,16.443376,
45.377,9.4095949,
42.466,11.034413,
39.556,17.039526,
36.645,14.230765,
33.735,15.057745,
30.824,14.512017,
27.914,8.20144,
25.003,8.745275,
22.092,11.760332,
19.182,17.163603,
16.271,37.448817,
13.361,129.37014,
10.450,285.96547,
7.539,526.88427,
4.629,701.02619,
1.718,718.90409,
-1.192,436.56055,
-4.103,232.17555,
-7.013,86.409271,
-9.924,1.5,
