,PL5D93~1,
Wavenumbers [1/cm],Intensity,
3014.167,-5.75,
3011.256,1.8499141,
3008.346,145.60008,
3005.435,160.09452,
3002.525,172.85515,
2999.614,178.91365,
2996.704,196.51598,
2993.793,185.01152,
2990.882,184.15835,
2987.972,199.26513,
2985.061,198.25985,
2982.151,208.22144,
2979.240,218.26424,
2976.329,224.48771,
2973.419,221.32702,
2970.508,225.88329,
2967.598,226.01104,
2964.687,231.27921,
2961.777,247.68595,
2958.866,249.25445,
2955.955,240.97345,
2953.045,260.80034,
2950.134,279.0168,
2947.224,284.50622,
2944.313,282.46367,
2941.403,290.97673,
2938.492,294.4099,
2935.581,284.64267,
2932.671,301.88948,
2929.760,300.31923,
2926.850,287.98158,
2923.939,290.17056,
2921.028,305.97371,
2918.118,306.13162,
2915.207,316.89554,
2912.297,301.30924,
2909.386,306.06022,
2906.476,327.17975,
2903.565,334.02631,
2900.654,314.5432,
2897.744,304.61459,
2894.833,317.58019,
2891.923,287.9519,
2889.012,302.88006,
2886.102,294.70675,
2883.191,259.2887,
2880.280,233.95331,
2877.370,75.12818,
2874.459,9.0490762,
2871.549,127.05341,
2868.638,262.12209,
2865.727,293.69235,
2862.817,282.35026,
2859.906,332.9594,
2856.996,338.28623,
2854.085,340.81304,
2851.175,322.70478,
2848.264,334.60783,
2845.353,342.9912,
2842.443,321.66671,
2839.532,326.65287,
2836.622,352.85092,
2833.711,331.40542,
2830.801,335.14926,
2827.890,342.06294,
2824.979,355.80592,
2822.069,345.31823,
2819.158,348.96967,
2816.248,344.50289,
2813.337,361.77562,
2810.427,344.03651,
2807.516,344.82547,
2804.605,363.47596,
2801.695,371.64474,
2798.784,364.06315,
2795.874,352.80935,
2792.963,371.96447,
2790.052,365.25236,
2787.142,342.82892,
2784.231,357.99066,
2781.321,361.55854,
2778.410,351.66497,
2775.500,354.54759,
2772.589,335.32797,
2769.678,361.46155,
2766.768,371.6267,
2763.857,370.88199,
2760.947,372.74054,
2758.036,371.25,
2755.126,369.48291,
2752.215,380.05905,
2749.304,377.25,
2746.394,374.09676,
2743.483,376.15,
2740.573,361.05525,
2737.662,395.00592,
2734.751,375.78405,
2731.841,379.38553,
2728.930,387.35172,
2726.020,383.69387,
2723.109,385.90975,
2720.199,391.19058,
2717.288,392.26824,
2714.377,373.31688,
2711.467,404.90604,
2708.556,407.93042,
2705.646,414.79927,
2702.735,403.25,
2699.825,402.76091,
2696.914,403.05955,
2694.003,434.12155,
2691.093,417.62427,
2688.182,407.41445,
2685.272,408.53307,
2682.361,405.76747,
2679.450,416.37345,
2676.540,419.18903,
2673.629,417.57735,
2670.719,419.60767,
2667.808,424.95819,
2664.898,435.91245,
2661.987,428.68332,
2659.076,429.99569,
2656.166,429.02486,
2653.255,445.43198,
2650.345,431.51316,
2647.434,448.27887,
2644.524,449.59768,
2641.613,426.70694,
2638.702,449.82391,
2635.792,435.56306,
2632.881,441.64268,
2629.971,437.03516,
2627.060,438.08094,
2624.149,455.87188,
2621.239,451.99555,
2618.328,450.9282,
2615.418,466.58182,
2612.507,442.42796,
2609.597,485.37375,
2606.686,467.08132,
2603.775,456.96825,
2600.865,467.30466,
2597.954,476.82497,
2595.044,481.64238,
2592.133,476.8106,
2589.223,488.49106,
2586.312,497.81279,
2583.401,490.49811,
2580.491,488.02879,
2577.580,483.25165,
2574.670,484.52674,
2571.759,490.20462,
2568.848,499.18925,
2565.938,487.86893,
2563.027,502.15228,
2560.117,493.25933,
2557.206,512.75553,
2554.296,493.504,
2551.385,485.50605,
2548.474,503.50948,
2545.564,513.09172,
2542.653,504.8708,
2539.743,512.22535,
2536.832,507.45374,
2533.922,522.29731,
2531.011,525.52498,
2528.100,521.45208,
2525.190,528.31803,
2522.279,519.57829,
2519.369,521.72197,
2516.458,521.25708,
2513.548,522.77736,
2510.637,543.54476,
2507.726,509.11991,
2504.816,529.31314,
2501.905,538.11951,
2498.995,526.62354,
2496.084,545.18378,
2493.173,549.30298,
2490.263,561.44097,
2487.352,543.95947,
2484.442,559.9652,
2481.531,558.19682,
2478.621,560.3211,
2475.710,569.12732,
2472.799,562.86873,
2469.889,589.34141,
2466.978,565.32236,
2464.068,572.5728,
2461.157,571.71004,
2458.247,569.08828,
2455.336,584.80187,
2452.425,574.20281,
2449.515,557.31654,
2446.604,582.77532,
2443.694,590.99425,
2440.783,603.58559,
2437.872,586.9793,
2434.962,600.47121,
2432.051,593.02794,
2429.141,617.19687,
2426.230,567.16147,
2423.320,619.47905,
2420.409,603.41018,
2417.498,610.25,
2414.588,622.5123,
2411.677,625.96313,
2408.767,617.23819,
2405.856,613.78095,
2402.946,617.35724,
2400.035,610.25938,
2397.124,616.25,
2394.214,617.5476,
2391.303,623.46545,
2388.393,640.43375,
2385.482,607.96841,
2382.571,585.73079,
2379.661,606.64511,
2376.750,638.51103,
2373.840,636.62191,
2370.929,653.04424,
2368.019,641.80292,
2365.108,658.18194,
2362.197,649.61168,
2359.287,641.67841,
2356.376,675.18484,
2353.466,667.91787,
2350.555,653.80513,
2347.645,673.45925,
2344.734,676.94584,
2341.823,699.83542,
2338.913,702.47387,
2336.002,687.20461,
2333.092,684.82454,
2330.181,702.05816,
2327.270,689.18509,
2324.360,704.50238,
2321.449,688.07992,
2318.539,703.80663,
2315.628,718.78837,
2312.718,739.86455,
2309.807,696.13807,
2306.896,709.50978,
2303.986,716.73055,
2301.075,714.46279,
2298.165,706.25954,
2295.254,720.90531,
2292.344,723.83094,
2289.433,719.27318,
2286.522,737.57133,
2283.612,737.51912,
2280.701,732.25,
2277.791,759.53052,
2274.880,769.45994,
2271.969,771.19238,
2269.059,752.45708,
2266.148,761.19324,
2263.238,769.74807,
2260.327,755.31897,
2257.417,760.52,
2254.506,783.55488,
2251.595,790.39913,
2248.685,791.87882,
2245.774,780.73375,
2242.864,780.70386,
2239.953,790.20857,
2237.043,794.79501,
2234.132,791.20582,
2231.221,822.25272,
2228.311,807.15467,
2225.400,836.16556,
2222.490,834.36403,
2219.579,837.88238,
2216.669,826.79054,
2213.758,821.51144,
2210.847,823.25,
2207.937,825.16856,
2205.026,879.58382,
2202.116,865.20117,
2199.205,874.21165,
2196.294,893.49799,
2193.384,886.01349,
2190.473,874.52817,
2187.563,903.192,
2184.652,894.56346,
2181.742,919.45531,
2178.831,943.04381,
2175.920,967.07332,
2173.010,977.70011,
2170.099,1020.7118,
2167.189,1042.5083,
2164.278,1086.1736,
2161.368,1154.533,
2158.457,1209.4027,
2155.546,1258.1414,
2152.636,1325.8191,
2149.725,1386.5184,
2146.815,1404.9497,
2143.904,1438.6738,
2140.993,1499.2764,
2138.083,1527.1222,
2135.172,1560.729,
2132.262,1564.5018,
2129.351,1540.3292,
2126.441,1506.6286,
2123.530,1498.8796,
2120.619,1459.5072,
2117.709,1390.8812,
2114.798,1300.546,
2111.888,1248.1136,
2108.977,1191.4619,
2106.067,1151.257,
2103.156,1086.1809,
2100.245,1064.2287,
2097.335,1028.2029,
2094.424,1008.2237,
2091.514,983.66928,
2088.603,965.87674,
2085.692,956.74818,
2082.782,975.57516,
2079.871,1001.6794,
2076.961,987.47698,
2074.050,988.79545,
2071.140,960.08909,
2068.229,961.97135,
2065.318,963.12599,
2062.408,972.94741,
2059.497,980.62498,
2056.587,965.86638,
2053.676,962.43338,
2050.766,946.55867,
2047.855,957.07913,
2044.944,949.91988,
2042.034,939.59102,
2039.123,946.15236,
2036.213,967.03888,
2033.302,962.61959,
2030.391,967.6905,
2027.481,973.48169,
2024.570,986.04969,
2021.660,975.07781,
2018.749,972.08579,
2015.839,989.61811,
2012.928,969.00839,
2010.017,989.61266,
2007.107,1011.9939,
2004.196,997.45234,
2001.286,999.75174,
1998.375,990.46161,
1995.465,975.95714,
1992.554,993.53219,
1989.643,988.52651,
1986.733,990.6614,
1983.822,980.25,
1980.912,984.57708,
1978.001,985.45407,
1975.090,966.80574,
1972.180,991.49068,
1969.269,995.28734,
1966.359,983.1688,
1963.448,981.90258,
1960.538,1005.1608,
1957.627,998.65866,
1954.716,998.22127,
1951.806,1004.4552,
1948.895,982.87358,
1945.985,945.78595,
1943.074,975.45658,
1940.164,980.91334,
1937.253,969.95872,
1934.342,972.28422,
1931.432,962.39511,
1928.521,960.04275,
1925.611,970.01617,
1922.700,961.16989,
1919.790,987.53291,
1916.879,963.41223,
1913.968,982.22418,
1911.058,965.90166,
1908.147,992.96974,
1905.237,1007.1249,
1902.326,965.19519,
1899.415,957.32926,
1896.505,951.94885,
1893.594,976.05799,
1890.684,976.62922,
1887.773,992.9043,
1884.863,1018.25,
1881.952,986.86281,
1879.041,975.51947,
1876.131,999.86698,
1873.220,982.58619,
1870.310,993.17374,
1867.399,1010.9781,
1864.489,1001.7952,
1861.578,1013.9424,
1858.667,999.63624,
1855.757,995.82995,
1852.846,1020.7628,
1849.936,1017.9717,
1847.025,1016.829,
1844.114,1049.8006,
1841.204,1031.8374,
1838.293,1029.2433,
1835.383,1052.3775,
1832.472,1042.7491,
1829.562,1034.832,
1826.651,1057.3444,
1823.740,1044.1388,
1820.830,1062.4865,
1817.919,1042.5612,
1815.009,1061.0808,
1812.098,1054.4784,
1809.188,1073.8856,
1806.277,1052.759,
1803.366,1101.8175,
1800.456,1077.9537,
1797.545,1108.2641,
1794.635,1113.0899,
1791.724,1085.6771,
1788.813,1120.8469,
1785.903,1104.9186,
1782.992,1074.3245,
1780.082,1038.5134,
1777.171,1017.2495,
1774.261,1009.7749,
1771.350,1042.5953,
1768.439,1128.9552,
1765.529,1151.4305,
1762.618,1134.5537,
1759.708,1138.0219,
1756.797,1162.0833,
1753.887,1160.9672,
1750.976,1151.6603,
1748.065,1183.2008,
1745.155,1170.676,
1742.244,1176.7491,
1739.334,1170.7629,
1736.423,1204.6425,
1733.512,1206.9695,
1730.602,1249.8711,
1727.691,1243.9878,
1724.781,1254.5547,
1721.870,1235.9118,
1718.960,1226.9611,
1716.049,1274.9105,
1713.138,1257.7451,
1710.228,1229.752,
1707.317,1294.362,
1704.407,1299.6564,
1701.496,1311.1001,
1698.586,1302.0862,
1695.675,1331.1927,
1692.764,1302.0082,
1689.854,1385.3957,
1686.943,1351.5653,
1684.033,1397.0579,
1681.122,1413.9781,
1678.211,1366.7068,
1675.301,1416.0958,
1672.390,1469.3906,
1669.480,1516.25,
1666.569,1515.9199,
1663.659,1490.7563,
1660.748,1521.25,
1657.837,1521.8186,
1654.927,1547.7186,
1652.016,1567.1771,
1649.106,1566.3798,
1646.195,1653.0482,
1643.285,1725.0879,
1640.374,1676.3998,
1637.463,1730.8085,
1634.553,1761.649,
1631.642,1789.2598,
1628.732,1881.7951,
1625.821,1973.3154,
1622.911,2072.6865,
1620.000,2188.7759,
1617.089,2294.1405,
1614.179,2380.7965,
1611.268,2538.2644,
1608.358,2693.8988,
1605.447,2820.051,
1602.536,2865.4574,
1599.626,2860.8905,
1596.715,2886.5704,
1593.805,2848.1107,
1590.894,2770.1544,
1587.984,2823.4747,
1585.073,2808.5763,
1582.162,2698.2195,
1579.252,2678.0683,
1576.341,2643.0032,
1573.431,2588.8259,
1570.520,2564.7843,
1567.610,2533.6809,
1564.699,2549.626,
1561.788,2515.5884,
1558.878,2480.1809,
1555.967,2478.196,
1553.057,2451.9055,
1550.146,2397.7628,
1547.235,2367.1661,
1544.325,2297.7794,
1541.414,2250.9503,
1538.504,2256.8466,
1535.593,2221.2968,
1532.683,2173.3591,
1529.772,2174.3061,
1526.861,2137.9706,
1523.951,2065.1318,
1521.040,2076.6103,
1518.130,2081.6853,
1515.219,2029.8105,
1512.309,2014.4887,
1509.398,2014.1683,
1506.487,2005.7693,
1503.577,2027.3145,
1500.666,1981.0262,
1497.756,1982.7589,
1494.845,2024.2895,
1491.934,2001.1398,
1489.024,1967.4525,
1486.113,1968.1044,
1483.203,1948.7103,
1480.292,1913.1581,
1477.382,1868.4541,
1474.471,1876.8997,
1471.560,1878.6217,
1468.650,1901.8479,
1465.739,1844.0771,
1462.829,1847.624,
1459.918,1863.5427,
1457.008,1846.6499,
1454.097,1824.9988,
1451.186,1809.3293,
1448.276,1806.3465,
1445.365,1798.1789,
1442.455,1817.8292,
1439.544,1835.021,
1436.633,1768.2033,
1433.723,1842.7666,
1430.812,1805.8015,
1427.902,1824.2127,
1424.991,1780.6156,
1422.081,1832.4637,
1419.170,1803.5516,
1416.259,1787.7192,
1413.349,1769.3899,
1410.438,1773.3471,
1407.528,1809.4371,
1404.617,1788.4995,
1401.707,1746.9416,
1398.796,1748.4108,
1395.885,1772.5178,
1392.975,1798.7714,
1390.064,1804.0597,
1387.154,1754.8856,
1384.243,1765.0785,
1381.332,1799.8699,
1378.422,1892.5737,
1375.511,1879.4588,
1372.601,1932.7011,
1369.690,1961.2522,
1366.780,1941.4889,
1363.869,1978.1121,
1360.958,2058.291,
1358.048,2098.9631,
1355.137,2142.0993,
1352.227,2171.2173,
1349.316,2203.3552,
1346.406,2275.3839,
1343.495,2312.9591,
1340.584,2340.572,
1337.674,2317.6853,
1334.763,2420.8971,
1331.853,2411.6248,
1328.942,2456.6127,
1326.032,2444.3063,
1323.121,2460.256,
1320.210,2505.8734,
1317.300,2564.7955,
1314.389,2596.8751,
1311.479,2657.6088,
1308.568,2758.6261,
1305.657,2836.7838,
1302.747,2925.2449,
1299.836,2993.0559,
1296.926,2974.2238,
1294.015,3059.7209,
1291.105,3072.0554,
1288.194,3144.3381,
1285.283,3218.0982,
1282.373,3290.242,
1279.462,3340.6614,
1276.552,3387.9824,
1273.641,3451.4797,
1270.731,3499.544,
1267.820,3502.1197,
1264.909,3509.4918,
1261.999,3510.8173,
1259.088,3498.9597,
1256.178,3416.0302,
1253.267,3352.3823,
1250.356,3293.2285,
1247.446,3229.4189,
1244.535,3168.5269,
1241.625,3093.6501,
1238.714,2994.0661,
1235.804,2905.3277,
1232.893,2857.3887,
1229.982,2792.3983,
1227.072,2708.2042,
1224.161,2674.5134,
1221.251,2618.6234,
1218.340,2588.2938,
1215.430,2546.5663,
1212.519,2495.1593,
1209.608,2469.7306,
1206.698,2473.484,
1203.787,2470.4711,
1200.877,2468.3117,
1197.966,2501.5806,
1195.055,2580.0424,
1192.145,2643.59,
1189.234,2694.636,
1186.324,2721.9781,
1183.413,2737.6409,
1180.503,2765.1128,
1177.592,2785.9366,
1174.681,2744.2363,
1171.771,2736.2609,
1168.860,2693.3926,
1165.950,2608.6211,
1163.039,2610.9005,
1160.129,2597.2457,
1157.218,2573.5582,
1154.307,2568.5892,
1151.397,2581.0277,
1148.486,2598.6016,
1145.576,2587.1299,
1142.665,2538.2947,
1139.754,2535.0636,
1136.844,2526.8464,
1133.933,2527.3555,
1131.023,2540.6361,
1128.112,2560.8202,
1125.202,2578.907,
1122.291,2589.1301,
1119.380,2602.224,
1116.470,2599.5764,
1113.559,2597.7035,
1110.649,2628.6826,
1107.738,2631.8545,
1104.828,2604.0221,
1101.917,2558.468,
1099.006,2509.8581,
1096.096,2535.6587,
1093.185,2526.0007,
1090.275,2541.4354,
1087.364,2561.7169,
1084.453,2575.9996,
1081.543,2602.2846,
1078.632,2634.5777,
1075.722,2639.2918,
1072.811,2610.1187,
1069.901,2622.3444,
1066.990,2669.3249,
1064.079,2714.9562,
1061.169,2698.6642,
1058.258,2687.4955,
1055.348,2708.544,
1052.437,2713.5137,
1049.527,2734.8136,
1046.616,2723.5189,
1043.705,2725.3331,
1040.795,2702.6253,
1037.884,2695.8246,
1034.974,2708.9536,
1032.063,2725.9729,
1029.153,2740.4071,
1026.242,2708.4037,
1023.331,2766.4129,
1020.421,2804.0428,
1017.510,2861.1926,
1014.600,2905.7086,
1011.689,2918.9604,
1008.778,2930.5806,
1005.868,2973.4739,
1002.957,2998.4242,
1000.047,3093.25,
997.136,3179.522,
994.226,3213.5731,
991.315,3200.203,
988.404,3170.4405,
985.494,3134.9048,
982.583,3119.4867,
979.673,3112.8601,
976.762,3077.1981,
973.852,3068.2783,
970.941,3081.6188,
968.030,3069.7529,
965.120,3078.4648,
962.209,3129.6173,
959.299,3097.8798,
956.388,3140.0462,
953.477,3157.4781,
950.567,3128.2755,
947.656,3158.0164,
944.746,3125.7333,
941.835,3142.0659,
938.925,3158.753,
936.014,3147.5461,
933.103,3123.8943,
930.193,3109.8529,
927.282,3098.371,
924.372,3063.7012,
921.461,3018.748,
918.551,2971.1368,
915.640,2926.0028,
912.729,2883.5638,
909.819,2845.8052,
906.908,2842.4355,
903.998,2829.5242,
901.087,2849.8007,
898.176,2882.3378,
895.266,2913.7242,
892.355,2942.3753,
889.445,2975.1068,
886.534,2986.9382,
883.624,3020.2003,
880.713,3036.2707,
877.802,3004.9426,
874.892,2918.3276,
871.981,2801.8493,
869.071,2742.535,
866.160,2797.1062,
863.250,2903.3078,
860.339,2990.7907,
857.428,3008.8584,
854.518,2952.25,
851.607,2952.25,
848.697,2880.717,
845.786,2853.4397,
842.875,2901.2445,
839.965,2983.0462,
837.054,2992.0036,
834.144,3059.1325,
831.233,3092.9152,
828.323,3106.712,
825.412,3097.6934,
822.501,3071.25,
819.591,3071.25,
816.680,3079.2628,
813.770,2996.6721,
810.859,2943.5426,
807.949,2939.1476,
805.038,2928.8827,
802.127,2867.9713,
799.217,2889.0841,
796.306,2853.4118,
793.396,2812.6316,
790.485,2802.25,
787.574,2801.7829,
784.664,2789.4813,
781.753,2798.6567,
778.843,2827.7739,
775.932,2852.25,
773.022,2854.6592,
770.111,2870.1931,
767.200,2867.4434,
764.290,2885.32,
761.379,2891.3726,
758.469,2883.4353,
755.558,2897.0618,
752.648,2823.7475,
749.737,2826.8753,
746.826,2842.3109,
743.916,2859.8605,
741.005,2887.3417,
738.095,2888.1536,
735.184,2790.2868,
732.274,2757.5608,
729.363,2766.2761,
726.452,2775.9044,
723.542,2796.1393,
720.631,2795.7209,
717.721,2792.9586,
714.810,2802.6704,
711.899,2819.3688,
708.989,2811.2996,
706.078,2842.5008,
703.168,2816.2456,
700.257,2804.1517,
697.347,2810.2074,
694.436,2780.9227,
691.525,2768.8656,
688.615,2772.5391,
685.704,2752.0752,
682.794,2741.7817,
679.883,2812.1419,
676.973,2809.7378,
674.062,2793.2979,
671.151,2814.4948,
668.241,2845.1496,
665.330,2819.25,
662.420,2819.25,
659.509,2831.3137,
656.598,2836.9518,
653.688,2842.3813,
650.777,2865.0079,
647.867,2828.3768,
644.956,2788.0542,
642.046,2734.6675,
639.135,2701.2938,
636.224,2754.4728,
633.314,2798.9334,
630.403,2835.6721,
627.493,2855.5544,
624.582,2862.2517,
621.672,2875.7156,
618.761,2881.5696,
615.850,2890.4128,
612.940,2921.5236,
610.029,2958.0184,
607.119,2884.5828,
604.208,2885.0601,
601.297,2932.1196,
598.387,2957.6189,
595.476,2913.924,
592.566,2942.2585,
589.655,2920.0386,
586.745,2900.4763,
583.834,2899.9592,
580.923,2920.2926,
578.013,2927.3553,
575.102,2920.6462,
572.192,2929.9705,
569.281,2960.7808,
566.371,2974.868,
563.460,2978.3664,
560.549,2965.6062,
557.639,2945.073,
554.728,2930.1223,
551.818,2959.7743,
548.907,2965.6406,
545.996,2949.3096,
543.086,2933.6447,
540.175,2977.2489,
537.265,2955.6245,
534.354,2957.2872,
531.444,2975.4951,
528.533,2993.7534,
525.622,2986.7698,
522.712,2992.531,
519.801,3017.8715,
516.891,3054.2236,
513.980,3068.9352,
511.070,3099.8326,
508.159,3135.1732,
505.248,3167.0098,
502.338,3188.9218,
499.427,3246.0374,
496.517,3286.7045,
493.606,3307.2595,
490.695,3311.8176,
487.785,3330.2926,
484.874,3330.0189,
481.964,3324.0972,
479.053,3314.9406,
476.143,3301.1172,
473.232,3298.8112,
470.321,3297.2768,
467.411,3291.1848,
464.500,3275.9979,
461.590,3266.0433,
458.679,3370.0072,
455.769,3441.1817,
452.858,3406.5681,
449.947,3409.6239,
447.037,3411.4635,
444.126,3420.3833,
441.216,3445.7591,
438.305,3512.0471,
435.395,3552.0649,
432.484,3564.916,
429.573,3546.2273,
426.663,3486.1762,
423.752,3304.1056,
420.842,3134.9994,
417.931,3035.5925,
415.020,3071.9937,
412.110,3345.4101,
409.199,3515.6656,
406.289,3585.3143,
403.378,3573.2551,
400.468,3574.7671,
397.557,3523.835,
394.646,3532.89,
391.736,3689.0086,
388.825,3681.4662,
385.915,3689.3617,
383.004,3696.5367,
380.094,3694.2846,
377.183,3734.1659,
374.272,3776.1885,
371.362,3796.6578,
368.451,3785.5296,
365.541,3823.0564,
362.630,3826.1489,
359.719,3838.896,
356.809,3881.7548,
353.898,3857.0445,
350.988,3863.8122,
348.077,3867.9898,
345.167,3849.8337,
342.256,3841.616,
339.345,3839.25,
336.435,3853.6848,
333.524,3891.297,
330.614,3892.7873,
327.703,3901.9779,
324.793,3906.6409,
321.882,3896.2843,
318.971,3910.4097,
316.061,3946.9904,
313.150,3978.8643,
310.240,3974.4116,
307.329,4060.0064,
304.418,4090.1464,
301.508,4075.9946,
298.597,4041.195,
295.687,4099.8789,
292.776,4144.2501,
289.866,4190.3162,
286.955,4309.251,
284.044,4292.095,
281.134,4304.465,
278.223,4369.4892,
275.313,4439.4904,
272.402,4442.6319,
269.492,4450.7263,
266.581,4483.9378,
263.670,4451.5898,
260.760,4493.9659,
257.849,4576.9212,
254.939,4678.9309,
252.028,4687.4884,
249.117,4697.5592,
246.207,4712.3111,
243.296,4735.7363,
240.386,4727.8021,
237.475,4731.4705,
234.565,4744.8696,
231.654,4736.105,
228.743,4704.3309,
225.833,4668.2248,
222.922,4636.284,
220.012,4637.0125,
217.101,4664.2394,
214.191,4684.6004,
211.280,4659.1392,
208.369,4707.0382,
205.459,4718.474,
202.548,4694.9881,
199.638,4670.3161,
196.727,4774.731,
193.816,4841.403,
190.906,4811.8911,
187.995,4887.1896,
185.085,4915.6143,
182.174,4941.9519,
179.264,5029.4066,
176.353,5047.5801,
173.442,5059.1386,
170.532,5077.0465,
167.621,5126.7938,
164.711,5052.4802,
161.800,4881.5798,
158.890,4613.1214,
155.979,4361.2856,
153.068,4013.122,
150.158,3580.0219,
147.247,3102.5837,
144.337,2571.8865,
141.426,2033.2298,
138.516,1506.3147,
135.605,1084.6878,
132.694,745.41918,
129.784,485.75244,
126.873,324.1331,
123.963,216.70181,
121.052,145.80225,
118.141,109.39325,
115.231,92.906882,
112.320,77.353646,
109.410,63.341026,
106.499,53.370853,
103.589,41.165419,
100.678,32.163513,
97.767,29.319763,
94.857,41.030814,
91.946,40.606448,
89.036,31.233919,
86.125,24.851071,
83.215,21.126319,
80.304,20.207731,
77.393,23.04041,
74.483,21.284595,
71.572,18.438239,
68.662,15.52707,
65.751,18.352874,
62.840,17.323192,
59.930,15.062714,
57.019,14.357632,
54.109,12.458517,
51.198,12.154828,
48.288,14.25,
45.377,14.25,
42.466,13.013342,
39.556,11.710474,
36.645,14.519235,
33.735,15.25,
30.824,13.262017,
27.914,6.95144,
25.003,4.3820876,
22.092,3.8958091,
19.182,5.7763058,
16.271,21.864579,
13.361,65.338302,
10.450,106.75501,
7.539,51.588095,
4.629,5.7541765,
1.718,-122.96112,
-1.192,-446.43618,
-4.103,-345.55534,
-7.013,-175.92027,
-9.924,2.25,
