,PLA2FA~1,
Raman shift [1/cm],Intensity,
3014.167,-1,
3011.256,2.6999356,
3008.346,228.0611,
3005.435,262.92226,
3002.525,284.36018,
2999.614,271.75327,
2996.704,279.50413,
2993.793,304.13306,
2990.882,292.91606,
2987.972,294.12108,
2985.061,315.3399,
2982.151,342.82356,
2979.240,332.74809,
2976.329,350.51365,
2973.419,353.96945,
2970.508,362.26657,
2967.598,375.66546,
2964.687,373.29823,
2961.777,387.05992,
2958.866,388.33284,
2955.955,403.41812,
2953.045,415.95304,
2950.134,439.81925,
2947.224,439.34163,
2944.313,450.10114,
2941.403,462.90511,
2938.492,448.43632,
2935.581,454.11288,
2932.671,474.79827,
2929.760,468.13846,
2926.850,484.21616,
2923.939,476.2336,
2921.028,491.83523,
2918.118,485.20404,
2915.207,499.16432,
2912.297,511.88999,
2909.386,510.74454,
2906.476,515.41008,
2903.565,502.58074,
2900.654,509.56419,
2897.744,498.87428,
2894.833,502.19563,
2891.923,516.9455,
2889.012,497.95376,
2886.102,497.29461,
2883.191,497.98962,
2880.280,466.25359,
2877.370,426.68034,
2874.459,421.57875,
2871.549,466.19766,
2868.638,497.36494,
2865.727,523.94616,
2862.817,515.62835,
2859.906,536.88604,
2856.996,525.54755,
2854.085,545.80888,
2851.175,535.14455,
2848.264,538.86267,
2845.353,531,
2842.443,526.20836,
2839.532,517.44777,
2836.622,523.82031,
2833.711,535.05181,
2830.801,508.12279,
2827.890,536.3549,
2824.979,538.07401,
2822.069,505.38665,
2819.158,537.47978,
2816.248,532.75868,
2813.337,537.60853,
2810.427,549.3967,
2807.516,540.84172,
2804.605,543.86058,
2801.695,557.82895,
2798.784,541.47846,
2795.874,537.14512,
2792.963,534.35713,
2790.052,557.99485,
2787.142,545.44731,
2784.231,522.67859,
2781.321,547.19434,
2778.410,553.79571,
2775.500,553.31724,
2772.589,560.49924,
2769.678,552.71329,
2766.768,555.3767,
2763.857,563.57996,
2760.947,582.56619,
2758.036,576.05722,
2755.126,571.04274,
2752.215,580.80905,
2749.304,593.70142,
2746.394,568.29228,
2743.483,589.1,
2740.573,577.57959,
2737.662,590.56361,
2734.751,589.30107,
2731.841,576.86447,
2728.930,603.75429,
2726.020,579.87211,
2723.109,590.93775,
2720.199,611.53141,
2717.288,598.87592,
2714.377,618.44984,
2711.467,595.67144,
2708.556,629.60632,
2705.646,628.61971,
2702.735,624.68042,
2699.825,631.64179,
2696.914,641.19093,
2694.003,619.18373,
2691.093,629.08906,
2688.182,619.18148,
2685.272,629.39829,
2682.361,630.84716,
2679.450,646.52667,
2676.540,644.16259,
2673.629,647.35429,
2670.719,638.64233,
2667.808,643.75682,
2664.898,662.06518,
2661.987,645.73329,
2659.076,645.74569,
2656.166,683.16023,
2653.255,660.37415,
2650.345,673.52087,
2647.434,673.91426,
2644.524,669.91126,
2641.613,674.60025,
2638.702,661.28406,
2635.792,689.15653,
2632.881,678.33943,
2629.971,680.72489,
2627.060,693.33562,
2624.149,685.56561,
2621.239,685.97628,
2618.328,680.55103,
2615.418,692.00454,
2612.507,700.54937,
2609.597,707,
2606.686,703.58434,
2603.775,705.51984,
2600.865,713.40958,
2597.954,739.13755,
2595.044,723.32152,
2592.133,728.44588,
2589.223,722.86736,
2586.312,737.94977,
2583.401,736.52923,
2580.491,736.83657,
2577.580,767.93729,
2574.670,730.27674,
2571.759,732.10103,
2568.848,732.17679,
2565.938,747.19046,
2563.027,745.34093,
2560.117,743.44861,
2557.206,773.12177,
2554.296,779.08238,
2551.385,756.23991,
2548.474,754.14833,
2545.564,772.52517,
2542.653,756.46309,
2539.743,770.34597,
2536.832,786.02056,
2533.922,773.67808,
2531.011,811.05042,
2528.100,788.93725,
2525.190,772.30369,
2522.279,775.32829,
2519.369,788.03737,
2516.458,804.77974,
2513.548,802.14552,
2510.637,797.49186,
2507.726,806.56134,
2504.816,802.12401,
2501.905,821.15915,
2498.995,798.76112,
2496.084,800.21257,
2493.173,805.36821,
2490.263,823.1345,
2487.352,812.54253,
2484.442,829.27193,
2481.531,841.05318,
2478.621,823.57339,
2475.710,814.26837,
2472.799,849.98654,
2469.889,855.90859,
2466.978,858.27836,
2464.068,838.84649,
2461.157,864.42251,
2458.247,856.02934,
2455.336,857.23289,
2452.425,881.61323,
2449.515,869.79209,
2446.604,857.17279,
2443.694,876.95398,
2440.783,867.56757,
2437.872,899.67182,
2434.962,886.00922,
2432.051,899.30915,
2429.141,915.90015,
2426.230,881.08612,
2423.320,911.15712,
2420.409,913.89099,
2417.498,914.60674,
2414.588,916.26995,
2411.677,925.07172,
2408.767,929.02362,
2405.856,923.74292,
2402.946,920.58356,
2400.035,934.88968,
2397.124,935.01069,
2394.214,945.5952,
2391.303,946.71274,
2388.393,954.1977,
2385.482,950.35249,
2382.571,966.4936,
2379.661,971.23252,
2376.750,980.78814,
2373.840,980.29377,
2370.929,981.96751,
2368.019,999.61453,
2365.108,995.62827,
2362.197,986.02737,
2359.287,991.57995,
2356.376,1013.9648,
2353.466,985.78766,
2350.555,995.71524,
2347.645,998.30332,
2344.734,1014.2765,
2341.823,1029.8342,
2338.913,1006.0657,
2336.002,1023.9784,
2333.092,1041.4943,
2330.181,1038.7545,
2327.270,1042.78,
2324.360,1049.5802,
2321.449,1034.6463,
2318.539,1030.893,
2315.628,1064.3593,
2312.718,1058.0352,
2309.807,1066.6584,
2306.896,1061.4961,
2303.986,1066.9611,
2301.075,1077.234,
2298.165,1084.3847,
2295.254,1086,
2292.344,1060.3111,
2289.433,1089.7568,
2286.522,1094.0046,
2283.612,1087.7309,
2280.701,1105.1166,
2277.791,1116.3607,
2274.880,1123.288,
2271.969,1118.1605,
2269.059,1129.4959,
2266.148,1161.0751,
2263.238,1116.0232,
2260.327,1134.1728,
2257.417,1174.6278,
2254.506,1171.4502,
2251.595,1174.5746,
2248.685,1151.377,
2245.774,1187.252,
2242.864,1177.3242,
2239.953,1182.6827,
2237.043,1184.6104,
2234.132,1196.1142,
2231.221,1197.4728,
2228.311,1220.9652,
2225.400,1217.2665,
2222.490,1258.9576,
2219.579,1259.9152,
2216.669,1270.5405,
2213.758,1280.9164,
2210.847,1309.539,
2207.937,1360.0455,
2205.026,1374.1111,
2202.116,1396.7632,
2199.205,1454.2878,
2196.294,1458.554,
2193.384,1467.421,
2190.473,1534.9225,
2187.563,1556.145,
2184.652,1592.4763,
2181.742,1638.7512,
2178.831,1675.6304,
2175.920,1719.2295,
2173.010,1753.2262,
2170.099,1765.9325,
2167.189,1848.2009,
2164.278,1883.19,
2161.368,1933.8561,
2158.457,1981.4176,
2155.546,2040.1049,
2152.636,2109.1701,
2149.725,2194.2483,
2146.815,2264.0312,
2143.904,2306.7993,
2140.993,2314.5449,
2138.083,2347.459,
2135.172,2339.0924,
2132.262,2338.64,
2129.351,2321.5895,
2126.441,2236.2522,
2123.530,2186.3041,
2120.619,2108.8998,
2117.709,1986.6413,
2114.798,1899.0305,
2111.888,1799.14,
2108.977,1700.2251,
2106.067,1633.0476,
2103.156,1601.5235,
2100.245,1533.9812,
2097.335,1496.8953,
2094.424,1449.0689,
2091.514,1454.1343,
2088.603,1440.9493,
2085.692,1410.082,
2082.782,1396.4819,
2079.871,1419.7153,
2076.961,1407.1624,
2074.050,1399.9333,
2071.140,1381.4136,
2068.229,1402.164,
2065.318,1412.9002,
2062.408,1403.3714,
2059.497,1402.3809,
2056.587,1409.4765,
2053.676,1390.5015,
2050.766,1377.6158,
2047.855,1377.8259,
2044.944,1399.8814,
2042.034,1358.578,
2039.123,1352.9798,
2036.213,1373.1112,
2033.302,1392.848,
2030.391,1387.2881,
2027.481,1390.2317,
2024.570,1417.1279,
2021.660,1416.3548,
2018.749,1386.2279,
2015.839,1393.4797,
2012.928,1405.9883,
2010.017,1417.6232,
2007.107,1405.9271,
2004.196,1403.9405,
2001.286,1409.311,
1998.375,1389.8661,
1995.465,1374.7741,
1992.554,1404.4291,
1989.643,1414.7926,
1986.733,1383.836,
1983.822,1424.5487,
1980.912,1365.1781,
1978.001,1369.347,
1975.090,1381.6397,
1972.180,1358.7593,
1969.269,1365.7184,
1966.359,1402.9463,
1963.448,1424.3052,
1960.538,1380.7439,
1957.627,1389.6161,
1954.716,1397.8276,
1951.806,1387.5097,
1948.895,1359.7652,
1945.985,1359.281,
1943.074,1348.7784,
1940.164,1376.1538,
1937.253,1374.4434,
1934.342,1373.9572,
1931.432,1358.0315,
1928.521,1348.7012,
1925.611,1367.4608,
1922.700,1354.4227,
1919.790,1349.8613,
1916.879,1363.0235,
1913.968,1394.9619,
1911.058,1386.6787,
1908.147,1364.546,
1905.237,1349.5442,
1902.326,1362.8593,
1899.415,1331.7305,
1896.505,1364.4337,
1893.594,1360.1829,
1890.684,1349.7386,
1887.773,1348.3533,
1884.863,1373.41,
1881.952,1391.2774,
1879.041,1376.6007,
1876.131,1370.1856,
1873.220,1388.3054,
1870.310,1406.7802,
1867.399,1368.6397,
1864.489,1427.4687,
1861.578,1364.9066,
1858.667,1374.5628,
1855.757,1426.0358,
1852.846,1399.0666,
1849.936,1424.3964,
1847.025,1403.2311,
1844.114,1413.1482,
1841.204,1408.5699,
1838.293,1402.0283,
1835.383,1419.4295,
1832.472,1427.2435,
1829.562,1395.7523,
1826.651,1412.6673,
1823.740,1446.8391,
1820.830,1434.9368,
1817.919,1419.2275,
1815.009,1453.8181,
1812.098,1486.9291,
1809.188,1459.0466,
1806.277,1469.7123,
1803.366,1482.6506,
1800.456,1462.9343,
1797.545,1477.6171,
1794.635,1462.839,
1791.724,1463.4174,
1788.813,1510.2054,
1785.903,1514.3373,
1782.992,1475.1461,
1780.082,1468.9495,
1777.171,1444.3351,
1774.261,1464.8703,
1771.350,1504.83,
1768.439,1534.5327,
1765.529,1530.1796,
1762.618,1531.46,
1759.708,1571.5002,
1756.797,1574.6364,
1753.887,1572.1035,
1750.976,1583.5897,
1748.065,1577.8556,
1745.155,1576.5548,
1742.244,1613.7554,
1739.334,1582.0165,
1736.423,1582.3159,
1733.512,1599.2764,
1730.602,1656.6052,
1727.691,1651.2025,
1724.781,1658.1584,
1721.870,1718.3337,
1718.960,1666.2214,
1716.049,1681.3641,
1713.138,1729.7498,
1710.228,1712.6317,
1707.317,1732.8834,
1704.407,1793.4974,
1701.496,1743.484,
1698.586,1776.8073,
1695.675,1819.2998,
1692.764,1775.6106,
1689.854,1785.437,
1686.943,1864.2682,
1684.033,1873.8261,
1681.122,1931.9974,
1678.211,1928.0476,
1675.301,1971.8643,
1672.390,1994.1675,
1669.480,2050.722,
1666.569,2140.5332,
1663.659,2182.0817,
1660.748,2188.3883,
1657.837,2259.503,
1654.927,2283.7338,
1652.016,2356.9477,
1649.106,2395.7099,
1646.195,2426.4935,
1643.285,2529.7318,
1640.374,2605.777,
1637.463,2691.0537,
1634.553,2804.6847,
1631.642,2918.3247,
1628.732,3040.1199,
1625.821,3228.1413,
1622.911,3442.7828,
1620.000,3604.9464,
1617.089,3719.7114,
1614.179,4036.8629,
1611.268,4229.899,
1608.358,4371.3979,
1605.447,4486.4295,
1602.536,4598.3032,
1599.626,4677.7548,
1596.715,4608.6691,
1593.805,4642.1393,
1590.894,4674.3008,
1587.984,4646.8207,
1585.073,4620.7296,
1582.162,4507.6299,
1579.252,4407.4431,
1576.341,4353.1511,
1573.431,4278.2134,
1570.520,4212.6086,
1567.610,4191.294,
1564.699,4091.121,
1561.788,3999.0709,
1558.878,3963.0275,
1555.967,3894.2369,
1553.057,3794.38,
1550.146,3746.1673,
1547.235,3688.6416,
1544.325,3612.8472,
1541.414,3536.6352,
1538.504,3505.1932,
1535.593,3493.0103,
1532.683,3461.0557,
1529.772,3437.5126,
1526.861,3420.1721,
1523.951,3411.8818,
1521.040,3408.2871,
1518.130,3412.4781,
1515.219,3424.5203,
1512.309,3399.8693,
1509.398,3382.7715,
1506.487,3453.6857,
1503.577,3400.4982,
1500.666,3413.2092,
1497.756,3396.559,
1494.845,3367.3202,
1491.934,3375.1638,
1489.024,3425.2134,
1486.113,3361.1677,
1483.203,3358.6645,
1480.292,3329.3021,
1477.382,3262.5731,
1474.471,3209.6311,
1471.560,3226.301,
1468.650,3194.637,
1465.739,3203.8221,
1462.829,3293.4085,
1459.918,3386.0943,
1457.008,3412.3691,
1454.097,3358.2464,
1451.186,3279.6325,
1448.276,3198.2478,
1445.365,3093.3167,
1442.455,3026.3405,
1439.544,2972.6493,
1436.633,2874.6882,
1433.723,2822.7598,
1430.812,2802.2165,
1427.902,2828.5343,
1424.991,2766.9297,
1422.081,2644.8105,
1419.170,2667.6984,
1416.259,2648.6981,
1413.349,2662.6363,
1410.438,2658.5033,
1407.528,2639.1939,
1404.617,2645.0911,
1401.707,2630.0928,
1398.796,2643.874,
1395.885,2689.3741,
1392.975,2676.1033,
1390.064,2602.3886,
1387.154,2491.2973,
1384.243,2401.6542,
1381.332,2386.8452,
1378.422,2478.589,
1375.511,2567.5832,
1372.601,2736.7258,
1369.690,2844.4372,
1366.780,2873.4646,
1363.869,2970.7155,
1360.958,3040.9915,
1358.048,3091.6321,
1355.137,3150.7979,
1352.227,3233.4121,
1349.316,3271.7809,
1346.406,3262.0325,
1343.495,3345.3729,
1340.584,3455.7142,
1337.674,3453.64,
1334.763,3414.3281,
1331.853,3554.34,
1328.942,3586.6839,
1326.032,3582.6594,
1323.121,3648.4278,
1320.210,3710.6234,
1317.300,3789.6134,
1314.389,3875.7092,
1311.479,3972.6112,
1308.568,4095.8011,
1305.657,4226.8054,
1302.747,4330.0986,
1299.836,4379.5136,
1296.926,4482.5375,
1294.015,4623.194,
1291.105,4637.8054,
1288.194,4721.2705,
1285.283,4762.0481,
1282.373,4830.7498,
1279.462,4906.6267,
1276.552,4976.2364,
1273.641,5022.5553,
1270.731,5050.2881,
1267.820,5083.835,
1264.909,5027.5716,
1261.999,5034.7724,
1259.088,4918.9331,
1256.178,4830.6366,
1253.267,4786.3122,
1250.356,4665.2531,
1247.446,4549.8069,
1244.535,4471.8081,
1241.625,4374.0224,
1238.714,4241.1457,
1235.804,4129.4079,
1232.893,4032.2697,
1229.982,3941.4975,
1227.072,3897.1372,
1224.161,3751.9549,
1221.251,3680.3294,
1218.340,3583.3757,
1215.430,3531.843,
1212.519,3488.421,
1209.608,3447.9613,
1206.698,3446.787,
1203.787,3430.0855,
1200.877,3503.7303,
1197.966,3547.7891,
1195.055,3645.5638,
1192.145,3763.4314,
1189.234,3862.528,
1186.324,4002.1918,
1183.413,4092.0914,
1180.503,4086.2196,
1177.592,4055.3836,
1174.681,4008.0034,
1171.771,3943.6922,
1168.860,3843.6662,
1165.950,3770.3031,
1163.039,3715.191,
1160.129,3690.9217,
1157.218,3756.1875,
1154.307,3861.311,
1151.397,3937.0679,
1148.486,4024.3372,
1145.576,4097.8413,
1142.665,4048.1182,
1139.754,4007.3867,
1136.844,3907.9606,
1133.933,3871.9325,
1131.023,3856.0604,
1128.112,3801.7193,
1125.202,3737.5845,
1122.291,3731.128,
1119.380,3739.0606,
1116.470,3745.2383,
1113.559,3727.442,
1110.649,3723.3097,
1107.738,3672.5615,
1104.828,3588.0544,
1101.917,3540.2844,
1099.006,3545.8045,
1096.096,3476.9036,
1093.185,3442.6615,
1090.275,3490.984,
1087.364,3468.0077,
1084.453,3503.7467,
1081.543,3577.743,
1078.632,3627.8947,
1075.722,3643.7522,
1072.811,3648.7375,
1069.901,3673.1888,
1066.990,3637.8168,
1064.079,3650.0959,
1061.169,3704.1841,
1058.258,3703.1568,
1055.348,3645.945,
1052.437,3622.7684,
1049.527,3589.7245,
1046.616,3556.709,
1043.705,3530.6478,
1040.795,3516.3379,
1037.884,3514.5287,
1034.974,3519.2345,
1032.063,3519.6617,
1029.153,3513.8815,
1026.242,3554.5345,
1023.331,3556,
1020.421,3621.5275,
1017.510,3690.3399,
1014.600,3795.5898,
1011.689,3902.8417,
1008.778,3920.4398,
1005.868,3923.4711,
1002.957,3975.9527,
1000.047,4080.824,
997.136,4158.1128,
994.226,4177.6309,
991.315,4127.9431,
988.404,4030.1373,
985.494,3972.0053,
982.583,3882.9234,
979.673,3849.5139,
976.762,3830.258,
973.852,3830.3982,
970.941,3830.9231,
968.030,3815.1157,
965.120,3860.8425,
962.209,3823.3306,
959.299,3895.6157,
956.388,3936.3995,
953.477,3932.3133,
950.567,3923.797,
947.656,3942.3315,
944.746,3937.2342,
941.835,3955.6257,
938.925,3952.7614,
936.014,3955.5757,
933.103,3945.0515,
930.193,3897.8197,
927.282,3829.8378,
924.372,3771.491,
921.461,3696.9876,
918.551,3649.7627,
915.640,3626.6258,
912.729,3593.5796,
909.819,3531.0034,
906.908,3561.3307,
903.998,3582.0887,
901.087,3610.5507,
898.176,3611.5929,
895.266,3635.7705,
892.355,3727.2089,
889.445,3781.7613,
886.534,3783.6697,
883.624,3808.222,
880.713,3824.0828,
877.802,3830.4317,
874.892,3829.6684,
871.981,3806.1578,
869.071,3812.8411,
866.160,3793.3012,
863.250,3804.4439,
860.339,3846.6263,
857.428,3884.4086,
854.518,3864.1575,
851.607,3835.0351,
848.697,3842.3807,
845.786,3805.4448,
842.875,3782.7783,
839.965,3819.5681,
837.054,3845.4,
834.144,3881.0364,
831.233,3932.6634,
828.323,3950.0543,
825.412,3934.0533,
822.501,3911.1489,
819.591,3911.9753,
816.680,3846.2948,
813.770,3851.9276,
810.859,3855.5239,
807.949,3838.7634,
805.038,3822.6106,
802.127,3802.8556,
799.217,3751.0588,
796.306,3730.5946,
793.396,3711.2594,
790.485,3683.1048,
787.574,3675.097,
784.664,3651.3138,
781.753,3670.4844,
778.843,3691.8016,
775.932,3718.975,
773.022,3757.3804,
770.111,3759.8331,
767.200,3779.7941,
764.290,3786.5779,
761.379,3790.5448,
758.469,3776.7475,
755.558,3703.7569,
752.648,3695.6108,
749.737,3637.8601,
746.826,3551.5872,
743.916,3435.3434,
741.005,3272.9295,
738.095,3015.5646,
735.184,2663.2231,
732.274,2538.1554,
729.363,2736.3499,
726.452,3169.8001,
723.542,3434.4717,
720.631,3507.8695,
717.721,3569.5363,
714.810,3602,
711.899,3598.6139,
708.989,3584.0892,
706.078,3628.873,
703.168,3610.8534,
700.257,3578.7977,
697.347,3556.3047,
694.436,3542.1708,
691.525,3511.6262,
688.615,3520.7228,
685.704,3521.7978,
682.794,3511.9362,
679.883,3516.1173,
676.973,3540.9598,
674.062,3551.1047,
671.151,3557.945,
668.241,3566.812,
665.330,3580.7395,
662.420,3617.4812,
659.509,3668.1753,
656.598,3693.4327,
653.688,3692.6197,
650.777,3689.4851,
647.867,3733.2832,
644.956,3702.7552,
642.046,3667.2204,
639.135,3661.0132,
636.224,3695.1432,
633.314,3723.725,
630.403,3761.1517,
627.493,3746.6651,
624.582,3694.944,
621.672,3717.1198,
618.761,3671.6437,
615.850,3684.5494,
612.940,3728.1751,
610.029,3767.0272,
607.119,3755.1827,
604.208,3776.0104,
601.297,3764.5608,
598.387,3749.446,
595.476,3760.4002,
592.566,3732.8528,
589.655,3753.2677,
586.745,3766.1321,
583.834,3749.4095,
580.923,3693.8247,
578.013,3664.7895,
575.102,3736.1552,
572.192,3838.2314,
569.281,3919.0932,
566.371,3936.3109,
563.460,3986.6773,
560.549,3980.1997,
557.639,3945.2859,
554.728,3930.991,
551.818,3994.1966,
548.907,4034.2048,
545.996,4037.0036,
543.086,4022.3816,
540.175,4056.642,
537.265,4081.4527,
534.354,4043.3428,
531.444,4029.3243,
528.533,4108.3647,
525.622,4043.1851,
522.712,4041.1351,
519.801,4071.149,
516.891,4115.9208,
513.980,4160.0557,
511.070,4123.1479,
508.159,4121.7597,
505.248,4154.0217,
502.338,4200.4911,
499.427,4251.432,
496.517,4242.3738,
493.606,4240.8151,
490.695,4265.153,
487.785,4215.8864,
484.874,4206.0613,
481.964,4227.8403,
479.053,4251.1748,
476.143,4214.3126,
473.232,4227.1075,
470.321,4218.4027,
467.411,4207.0522,
464.500,4218.903,
461.590,4215.0743,
458.679,4247.0177,
455.769,4286.9176,
452.858,4315,
449.947,4315,
447.037,4333.2028,
444.126,4318.0121,
441.216,4277.4238,
438.305,4308.663,
435.395,4328.7353,
432.484,4328.2482,
429.573,4326.2951,
426.663,4370.3833,
423.752,4371.2103,
420.842,4365.8898,
417.931,4380.6077,
415.020,4449.6182,
412.110,4544.9149,
409.199,4603.9388,
406.289,4641.561,
403.378,4676.6747,
400.468,4580.6634,
397.557,4534.5755,
394.646,4511.1116,
391.736,4482.7264,
388.825,4349.2274,
385.915,4267.9567,
383.004,4254.4146,
380.094,4318.4896,
377.183,4426.0938,
374.272,4565.0989,
371.362,4679.0746,
368.451,4731.7265,
365.541,4727.2232,
362.630,4739.656,
359.719,4766.0943,
356.809,4800.822,
353.898,4781.3532,
350.988,4731.5161,
348.077,4705.6164,
345.167,4733.8108,
342.256,4730.0755,
339.345,4709.8684,
336.435,4733.5285,
333.524,4838.9765,
330.614,4838.2314,
327.703,4853.9156,
324.793,4870.0312,
321.882,4873.1749,
318.971,4945.2888,
316.061,5032.5042,
313.150,5104.2357,
310.240,5124.2728,
307.329,5174.3099,
304.418,5218.6215,
301.508,5238.7446,
298.597,5203.945,
295.687,5105.5091,
292.776,5142.9171,
289.866,5311.312,
286.955,5559.5238,
284.044,5852.4272,
281.134,6162.3346,
278.223,6456.5562,
275.313,6603.9272,
272.402,6809.8519,
269.492,6992.0829,
266.581,7123.405,
263.670,7268.9707,
260.760,7385.1784,
257.849,7510.4845,
254.939,7674.8742,
252.028,7683.5146,
249.117,7690.1114,
246.207,7691.4012,
243.296,7677.4925,
240.386,7613.3128,
237.475,7514.6882,
234.565,7402.4077,
231.654,7354.2024,
228.743,7262.8731,
225.833,7182.8768,
222.922,7131.0206,
220.012,7002.7949,
217.101,6905.5491,
214.191,6814.5603,
211.280,6703.2585,
208.369,6684.235,
205.459,6661.0337,
202.548,6633.8747,
199.638,6633.149,
196.727,6614.5611,
193.816,6600.0969,
190.906,6599.6507,
187.995,6646.7123,
185.085,6667.7286,
182.174,6684.753,
179.264,6728.119,
176.353,6752.2234,
173.442,6735.8082,
170.532,6687.0759,
167.621,6679.1452,
164.711,6631.8012,
161.800,6503.9993,
158.890,6249.2158,
155.979,5817.9563,
153.068,5358.2159,
150.158,4852.1129,
147.247,4194.4687,
144.337,3480.8808,
141.426,2759.4409,
138.516,2051.1523,
135.605,1475.9381,
132.694,1004.2397,
129.784,640.0253,
126.873,429.77712,
123.963,289.11994,
121.052,197.15278,
118.141,152.17695,
115.231,115.76091,
112.320,91.68001,
109.410,77.909158,
106.499,72.211916,
103.589,63.716692,
100.678,57.456757,
97.767,56.034881,
94.857,51.842066,
91.946,49.193778,
89.036,45.742042,
86.125,31.557936,
83.215,38.087487,
80.304,44.605673,
77.393,37.523974,
74.483,30.44865,
71.572,28.449408,
68.662,30.238058,
65.751,22.467096,
62.840,19.518298,
59.930,19.374572,
57.019,20.784736,
54.109,24.582965,
51.198,25.793563,
48.288,22.971688,
45.377,19.454797,
42.466,20.061097,
39.556,22.19417,
36.645,17.278838,
33.735,26.904218,
30.824,35.232904,
27.914,29.623502,
25.003,33.9811,
22.092,40.229046,
19.182,47.32036,
16.271,57.113222,
13.361,248.12734,
10.450,667.73693,
7.539,1613.2559,
4.629,2424.3758,
1.718,2807.9629,
-1.192,2331.8132,
-4.103,1385.0179,
-7.013,566.74188,
-9.924,3,
