,PL49BE~1,
Wavenumbers [1/cm],Intensity,
3014.167,-3.875,
3011.256,0.17490337,
3008.346,114.807,
3005.435,142.77871,
3002.525,142.91751,
2999.614,156.84705,
2996.704,153.34665,
2993.793,159.8773,
2990.882,162.64406,
2987.972,169.06951,
2985.061,148.81464,
2982.151,176.75529,
2979.240,177.85884,
2976.329,192.4064,
2973.419,194.64824,
2970.508,188.74166,
2967.598,206.93384,
2964.687,200.25951,
2961.777,207.09091,
2958.866,203.12797,
2955.955,197.6073,
2953.045,216.5098,
2950.134,223.48651,
2947.224,226.38122,
2944.313,237.37215,
2941.403,245.33942,
2938.492,240.72122,
2935.581,248.60353,
2932.671,245.52846,
2929.760,247.62113,
2926.850,236.96823,
2923.939,242.16236,
2921.028,258.83096,
2918.118,247.88823,
2915.207,261.76409,
2912.297,257.10807,
2909.386,255.69435,
2906.476,259.24857,
2903.565,268.41686,
2900.654,257.19475,
2897.744,263.15014,
2894.833,251.10464,
2891.923,235.9904,
2889.012,253.33309,
2886.102,272.2466,
2883.191,235.17126,
2880.280,180.60824,
2877.370,75.712468,
2874.459,114.42058,
2871.549,150.73075,
2868.638,243.17649,
2865.727,255.44039,
2862.817,237.36699,
2859.906,265.45547,
2856.996,283.19746,
2854.085,263.60399,
2851.175,281.67615,
2848.264,282.14434,
2845.353,282.10343,
2842.443,271.54171,
2839.532,273.42341,
2836.622,281.42839,
2833.711,282.07319,
2830.801,282.92353,
2827.890,285.39598,
2824.979,287.40899,
2822.069,284.35244,
2819.158,298.80424,
2816.248,292.36632,
2813.337,284.9189,
2810.427,294.47073,
2807.516,298.96672,
2804.605,312.125,
2801.695,309.86184,
2798.784,305.34677,
2795.874,289.53394,
2792.963,296.5533,
2790.052,292.12457,
2787.142,303.28285,
2784.231,291.02874,
2781.321,297.8107,
2778.410,301.0095,
2775.500,300.63707,
2772.589,292.27943,
2769.678,307.1591,
2766.768,308.44344,
2763.857,294.54697,
2760.947,312.18804,
2758.036,310.26506,
2755.126,294.02031,
2752.215,310.6158,
2749.304,309.23111,
2746.394,318.54838,
2743.483,309.67504,
2740.573,318.86844,
2737.662,310.91198,
2734.751,315.45027,
2731.841,330.17995,
2728.930,325.65472,
2726.020,325.46701,
2723.109,326.8055,
2720.199,312.29987,
2717.288,330.5812,
2714.377,328.38336,
2711.467,337.20741,
2708.556,330.67784,
2705.646,331.29398,
2702.735,351.76931,
2699.825,340.39595,
2696.914,335.74362,
2694.003,366.48273,
2691.093,354.98181,
2688.182,350.70722,
2685.272,346.85046,
2682.361,338.82478,
2679.450,349.83282,
2676.540,351.125,
2673.629,351.125,
2670.719,351.125,
2667.808,365.39547,
2664.898,363.89154,
2661.987,364.82537,
2659.076,356.43105,
2656.166,353.125,
2653.255,355.05017,
2650.345,361.82917,
2647.434,361.26847,
2644.524,383.73891,
2641.613,382.43927,
2638.702,367.36172,
2635.792,377.46698,
2632.881,383.0418,
2629.971,384.10491,
2627.060,377.95781,
2624.149,377.99063,
2621.239,385.14872,
2618.328,379.63365,
2615.418,394.44319,
2612.507,385.61122,
2609.597,398.82959,
2606.686,391.0989,
2603.775,389.36309,
2600.865,386.18303,
2597.954,382.65205,
2595.044,398.4111,
2592.133,412.18236,
2589.223,409.6671,
2586.312,413.83352,
2583.401,419.88047,
2580.491,405.50965,
2577.580,425.09199,
2574.670,410.10627,
2571.759,413.76627,
2568.848,406.125,
2565.938,422.26792,
2563.027,418.14997,
2560.117,415.59227,
2557.206,439.05489,
2554.296,418.23713,
2551.385,424.01715,
2548.474,432.56924,
2545.564,432.96672,
2542.653,446.28272,
2539.743,437.77903,
2536.832,434.94183,
2533.922,416.23538,
2531.011,429.72444,
2528.100,450.32362,
2525.190,453.91557,
2522.279,442.2188,
2519.369,442.31379,
2516.458,442.57259,
2513.548,432.37065,
2510.637,436.73983,
2507.726,445.50046,
2504.816,458.75184,
2501.905,449.02378,
2498.995,435.90135,
2496.084,450.27135,
2493.173,455.125,
2490.263,456.72048,
2487.352,466.29193,
2484.442,474.39693,
2481.531,483.01864,
2478.621,488.03498,
2475.710,471.26302,
2472.799,488.3851,
2469.889,486.60977,
2466.978,492.89814,
2464.068,501.82873,
2461.157,489.9749,
2458.247,493.75721,
2455.336,502.84519,
2452.425,484.92214,
2449.515,494.47428,
2446.604,505.1826,
2443.694,519.91615,
2440.783,530.74437,
2437.872,517.5051,
2434.962,507.16647,
2432.051,524.125,
2429.141,512.02515,
2426.230,492.16806,
2423.320,524.69623,
2420.409,525.18284,
2417.498,522.89468,
2414.588,519.49767,
2411.677,529.16086,
2408.767,528.10138,
2405.856,512.27505,
2402.946,534.66745,
2400.035,534.84095,
2397.124,556.66512,
2394.214,541.2322,
2391.303,530.98137,
2388.393,517.9273,
2385.482,481.6231,
2382.571,506.59298,
2379.661,522.84586,
2376.750,528.54619,
2373.840,544.5968,
2370.929,568.90841,
2368.019,568.16134,
2365.108,557.80039,
2362.197,552.30584,
2359.287,563.90662,
2356.376,551.15142,
2353.466,568.15585,
2350.555,553.80477,
2347.645,563.66272,
2344.734,572.39688,
2341.823,585.87625,
2338.913,599.99364,
2336.002,599.39525,
2333.092,599.35516,
2330.181,585.61605,
2327.270,590.79497,
2324.360,600.76419,
2321.449,587.52638,
2318.539,599.50725,
2315.628,621.32525,
2312.718,604.86067,
2309.807,597.24272,
2306.896,624.10935,
2303.986,611.1639,
2301.075,608.91221,
2298.165,605.94217,
2295.254,632.50025,
2292.344,624.12921,
2289.433,611.48409,
2286.522,631.98649,
2283.612,636.15432,
2280.701,620.8739,
2277.791,628.16882,
2274.880,667.70918,
2271.969,645.89044,
2269.059,660.53916,
2266.148,667.79779,
2263.238,659.53041,
2260.327,684.71088,
2257.417,656.86944,
2254.506,672.125,
2251.595,683.54311,
2248.685,681.07696,
2245.774,695.14667,
2242.864,688.8931,
2239.953,672.03533,
2237.043,674.73536,
2234.132,678.53017,
2231.221,693.49457,
2228.311,706.82344,
2225.400,713.09685,
2222.490,708.78291,
2219.579,699.59546,
2216.669,704.15362,
2213.758,717.69365,
2210.847,735.3794,
2207.937,740.96213,
2205.026,740.90255,
2202.116,744.50292,
2199.205,740.83724,
2196.294,744.439,
2193.384,768.70304,
2190.473,786.84683,
2187.563,791.04283,
2184.652,774.87806,
2181.742,779.42049,
2178.831,802.10953,
2175.920,828.95924,
2173.010,853.50198,
2170.099,904.72025,
2167.189,888.43355,
2164.278,938.90189,
2161.368,986.69612,
2158.457,1011.341,
2155.546,1070.8808,
2152.636,1112.7579,
2149.725,1151.5813,
2146.815,1166.8247,
2143.904,1243.6343,
2140.993,1261.0034,
2138.083,1264.9152,
2135.172,1282.7803,
2132.262,1292.9155,
2129.351,1295.7766,
2126.441,1285.824,
2123.530,1278.5301,
2120.619,1216.0796,
2117.709,1145.7417,
2114.798,1117.7441,
2111.888,1057.9521,
2108.977,1011.4892,
2106.067,977.75638,
2103.156,935.45094,
2100.245,909.13002,
2097.335,914.11453,
2094.424,883.02972,
2091.514,853.76747,
2088.603,852.1757,
2085.692,851.125,
2082.782,858.19323,
2079.871,849.62442,
2076.961,880.8002,
2074.050,860.27045,
2071.140,860.38958,
2068.229,842.85938,
2065.318,839.48351,
2062.408,862.40562,
2059.497,846.46424,
2056.587,833.9272,
2053.676,810.17665,
2050.766,817.04727,
2047.855,852.24215,
2044.944,824.38621,
2042.034,835.09604,
2039.123,835.38762,
2036.213,841.22491,
2033.302,818.84235,
2030.391,837.22626,
2027.481,846.8689,
2024.570,812.56877,
2021.660,868.22247,
2018.749,846.88481,
2015.839,862.35859,
2012.928,846.63004,
2010.017,875.44965,
2007.107,877.38108,
2004.196,867.35115,
2001.286,865.79283,
1998.375,885.34646,
1995.465,863.59375,
1992.554,851.74268,
1989.643,852.09044,
1986.733,870.16184,
1983.822,853.26606,
1980.912,860.50175,
1978.001,872.09159,
1975.090,855.70363,
1972.180,872.3311,
1969.269,862.4439,
1966.359,862.39545,
1963.448,848.20954,
1960.538,850.67463,
1957.627,858.47485,
1954.716,871.75155,
1951.806,846.47275,
1948.895,847.64128,
1945.985,816.8652,
1943.074,852.94034,
1940.164,865.31702,
1937.253,842.125,
1934.342,840.10789,
1931.432,841.58872,
1928.521,854.51533,
1925.611,821.9241,
1922.700,844.32251,
1919.790,856.70879,
1916.879,818.98473,
1913.968,848.08565,
1911.058,889.22708,
1908.147,837.04765,
1905.237,859.50002,
1902.326,867.85094,
1899.415,840.65913,
1896.505,828.43841,
1893.594,861.39029,
1890.684,871.99431,
1887.773,873.90072,
1884.863,879.40063,
1881.952,869.6626,
1879.041,853.02115,
1876.131,832.83742,
1873.220,825.63826,
1870.310,888.24596,
1867.399,859.66878,
1864.489,878.51444,
1861.578,884.48242,
1858.667,851.7657,
1855.757,864.13574,
1852.846,857.40191,
1849.936,867.38126,
1847.025,881.29041,
1844.114,917.84731,
1841.204,895.86976,
1838.293,904.10671,
1835.383,920.0435,
1832.472,884.98413,
1829.562,911.78439,
1826.651,929.81701,
1823.740,927.03688,
1820.830,941.24323,
1817.919,912.54994,
1815.009,959.92397,
1812.098,943.09352,
1809.188,917.61342,
1806.277,924.92581,
1803.366,934.69246,
1800.456,912.03773,
1797.545,963.41571,
1794.635,974.06097,
1791.724,957.9794,
1788.813,956.53709,
1785.903,984.74522,
1782.992,939.90737,
1780.082,905.9452,
1777.171,903.78452,
1774.261,888.44023,
1771.350,950.86602,
1768.439,999.10134,
1765.529,981.58057,
1762.618,991.50688,
1759.708,1018.1144,
1756.797,1046.0417,
1753.887,1021.2256,
1750.976,1004.0216,
1748.065,1049.2924,
1745.155,1036.164,
1742.244,1019.4221,
1739.334,1037.8732,
1736.423,1033.8203,
1733.512,1060.4137,
1730.602,1051.9285,
1727.691,1085.811,
1724.781,1080.0337,
1721.870,1074.3202,
1718.960,1086.4585,
1716.049,1110.9383,
1713.138,1117.69,
1710.228,1076.3507,
1707.317,1093.1239,
1704.407,1090.7346,
1701.496,1151.1987,
1698.586,1126.6335,
1695.675,1167.1676,
1692.764,1108.5881,
1689.854,1174.9636,
1686.943,1195.5179,
1684.033,1173.6962,
1681.122,1208.5133,
1678.211,1176.4391,
1675.301,1238.9307,
1672.390,1269.0263,
1669.480,1236.3657,
1666.569,1266.4678,
1663.659,1293.86,
1660.748,1337.7201,
1657.837,1317.3,
1654.927,1326.0856,
1652.016,1366.3437,
1649.106,1376.5939,
1646.195,1435.7244,
1643.285,1459.2363,
1640.374,1423.0483,
1637.463,1513.4673,
1634.553,1532.5683,
1631.642,1562.733,
1628.732,1618.605,
1625.821,1699.144,
1622.911,1727.9616,
1620.000,1850.5628,
1617.089,1967.7767,
1614.179,2052.7279,
1611.268,2192.8086,
1608.358,2287.7236,
1605.447,2317.5823,
1602.536,2403.9267,
1599.626,2394.4861,
1596.715,2380.4186,
1593.805,2354.978,
1590.894,2324.8242,
1587.984,2308.9997,
1585.073,2305.4234,
1582.162,2275.904,
1579.252,2236.5747,
1576.341,2221.9154,
1573.431,2180.1831,
1570.520,2148.4868,
1567.610,2113.0657,
1564.699,2091.5245,
1561.788,2092.7587,
1558.878,2090.3457,
1555.967,2075.5724,
1553.057,2026.3841,
1550.146,1991.6778,
1547.235,1998.7025,
1544.325,1954.3995,
1541.414,1934.7273,
1538.504,1931.0315,
1535.593,1837.0878,
1532.683,1800.5517,
1529.772,1813.1943,
1526.861,1771.5506,
1523.951,1774.3978,
1521.040,1765.727,
1518.130,1739.6255,
1515.219,1703.8841,
1512.309,1733.3818,
1509.398,1729.1916,
1506.487,1724.117,
1503.577,1730.1859,
1500.666,1712.4535,
1497.756,1706.5148,
1494.845,1697.7643,
1491.934,1665.2195,
1489.024,1694.0943,
1486.113,1701.6155,
1483.203,1621.3017,
1480.292,1613.6705,
1477.382,1585.8363,
1474.471,1593.7052,
1471.560,1602.479,
1468.650,1587.7264,
1465.739,1567.9557,
1462.829,1557.5441,
1459.918,1571.1472,
1457.008,1548.0784,
1454.097,1521.906,
1451.186,1530.4616,
1448.276,1527.0181,
1445.365,1518.0523,
1442.455,1517.3376,
1439.544,1555.3493,
1436.633,1550.0078,
1433.723,1529.3501,
1430.812,1586.6817,
1427.902,1580.5838,
1424.991,1557.8375,
1422.081,1543.3628,
1419.170,1532.6203,
1416.259,1502.7728,
1413.349,1485.5516,
1410.438,1487.0235,
1407.528,1515.5184,
1404.617,1526.0151,
1401.707,1479.6699,
1398.796,1470.8627,
1395.885,1487.5894,
1392.975,1491.0428,
1390.064,1536.299,
1387.154,1511.4697,
1384.243,1471.6789,
1381.332,1530.113,
1378.422,1554.5114,
1375.511,1562.0057,
1372.601,1584.2427,
1369.690,1677.8478,
1366.780,1638.4746,
1363.869,1661.1753,
1360.958,1739.166,
1358.048,1805.3505,
1355.137,1850.2037,
1352.227,1878.8179,
1349.316,1905.067,
1346.406,1938.1078,
1343.495,1947.9002,
1340.584,1931.6603,
1337.674,1964.5219,
1334.763,2026.3014,
1331.853,2030.9376,
1328.942,2096.9453,
1326.032,2063.5283,
1323.121,2120.0708,
1320.210,2175.0892,
1317.300,2196.4371,
1314.389,2229.9311,
1311.479,2277.785,
1308.568,2333.6562,
1305.657,2403.0157,
1302.747,2463.9725,
1299.836,2561.9875,
1296.926,2621.4151,
1294.015,2692.203,
1291.105,2695.125,
1288.194,2757.427,
1285.283,2769.545,
1282.373,2814.3201,
1279.462,2860.3403,
1276.552,2923.511,
1273.641,2976.6066,
1270.731,2993.825,
1267.820,3035.1006,
1264.909,3018.4113,
1261.999,3063.2928,
1259.088,3040.4898,
1256.178,2994.5893,
1253.267,2900.4319,
1250.356,2836.1988,
1247.446,2823.4055,
1244.535,2774.5984,
1241.625,2682.7733,
1238.714,2602.7729,
1235.804,2546.5377,
1232.893,2520.5148,
1229.982,2450.4572,
1227.072,2371.6951,
1224.161,2295.5227,
1221.251,2265.0013,
1218.340,2273.3769,
1215.430,2256.3509,
1212.519,2218.4674,
1209.608,2190.3919,
1206.698,2202.1256,
1203.787,2254.9893,
1200.877,2165.6354,
1197.966,2222.2824,
1195.055,2295.0914,
1192.145,2378.5026,
1189.234,2432.6182,
1186.324,2456.7621,
1183.413,2455.1758,
1180.503,2461.9878,
1177.592,2488.1552,
1174.681,2461.4503,
1171.771,2435.342,
1168.860,2401.4046,
1165.950,2360.2294,
1163.039,2340.649,
1160.129,2343.7931,
1157.218,2329.4148,
1154.307,2301.8176,
1151.397,2298.9454,
1148.486,2314.6812,
1145.576,2279.4356,
1142.665,2309.6247,
1139.754,2299.9206,
1136.844,2299.9262,
1133.933,2292.9139,
1131.023,2303.6484,
1128.112,2304.6275,
1125.202,2288.1008,
1122.291,2336.3784,
1119.380,2345.3935,
1116.470,2372.7519,
1113.559,2388.497,
1110.649,2398.6735,
1107.738,2414.4488,
1104.828,2388.0921,
1101.917,2326.3613,
1099.006,2311.1866,
1096.096,2349.2325,
1093.185,2350.9885,
1090.275,2306.6151,
1087.364,2350.3287,
1084.453,2370.6253,
1081.543,2367.5632,
1078.632,2373.4527,
1075.722,2387.3817,
1072.811,2398.6763,
1069.901,2420.5078,
1066.990,2447.1833,
1064.079,2462.6522,
1061.169,2466.0204,
1058.258,2478.2531,
1055.348,2497.3008,
1052.437,2495.5333,
1049.527,2472.6956,
1046.616,2487.4657,
1043.705,2506.0818,
1040.795,2502.1859,
1037.884,2502.6881,
1034.974,2494.3454,
1032.063,2478.994,
1029.153,2503.6057,
1026.242,2499.2809,
1023.331,2528.2898,
1020.421,2566.8888,
1017.510,2602.9758,
1014.600,2650.9989,
1011.689,2685.9982,
1008.778,2669.1513,
1005.868,2675.4339,
1002.957,2709.8481,
1000.047,2791.565,
997.136,2881.7942,
994.226,2904.1561,
991.315,2878.7339,
988.404,2864.5605,
985.494,2784.2209,
982.583,2788.5037,
979.673,2799.3681,
976.762,2781.4022,
973.852,2783.8054,
970.941,2798.7155,
968.030,2786.2349,
965.120,2815.168,
962.209,2825.3985,
959.299,2859.7045,
956.388,2861.9257,
953.477,2864.6338,
950.567,2882.1707,
947.656,2883.8995,
944.746,2874.5544,
941.835,2911.3764,
938.925,2881.3,
936.014,2856.0667,
933.103,2847.5941,
930.193,2833.1347,
927.282,2800.3459,
924.372,2785.9706,
921.461,2762.7694,
918.551,2742.3445,
915.640,2722.0765,
912.729,2686.4616,
909.819,2635.4628,
906.908,2675.8992,
903.998,2614.4959,
901.087,2645.863,
898.176,2672.1706,
895.266,2682.234,
892.355,2717.5904,
889.445,2778.8569,
886.534,2800.8317,
883.624,2816.5631,
880.713,2807.3247,
877.802,2779.2293,
874.892,2738.4173,
871.981,2671.6257,
869.071,2608.1343,
866.160,2633.0029,
863.250,2719.3682,
860.339,2803.8875,
857.428,2835.9597,
854.518,2812.0067,
851.607,2738.7846,
848.697,2692.422,
845.786,2670.3784,
842.875,2716.9068,
839.965,2811.8919,
837.054,2797.3669,
834.144,2818.9145,
831.233,2839.1238,
828.323,2859.9839,
825.412,2869.5834,
822.501,2854.9759,
819.591,2815.3087,
816.680,2805.3109,
813.770,2785.5829,
810.859,2771.9663,
807.949,2768.6762,
805.038,2765.9436,
802.127,2731.3722,
799.217,2713.2172,
796.306,2675.7734,
793.396,2652.293,
790.485,2645.4912,
787.574,2615.0244,
784.664,2665.0512,
781.753,2631.853,
778.843,2662.0936,
775.932,2718.8286,
773.022,2730.6753,
770.111,2753.5675,
767.200,2745.2279,
764.290,2710.3417,
761.379,2708,
758.469,2737.1953,
755.558,2724.6905,
752.648,2676.6289,
749.737,2672.3473,
746.826,2678.8548,
743.916,2687.5926,
741.005,2693.1642,
738.095,2640.3922,
735.184,2576.2052,
732.274,2505.7942,
729.363,2496.748,
726.452,2578.0351,
723.542,2660.5932,
720.631,2665.125,
717.721,2647.3668,
714.810,2647.0681,
711.899,2670.1943,
708.989,2679.0705,
706.078,2681.5289,
703.168,2678.4817,
700.257,2681.901,
697.347,2678.8218,
694.436,2637.754,
691.525,2624.0893,
688.615,2614.8359,
685.704,2629.2561,
682.794,2664.3589,
679.883,2700.0797,
676.973,2676.84,
674.062,2667.0203,
671.151,2704.013,
668.241,2737.2564,
665.330,2679.9737,
662.420,2676.7788,
659.509,2698.9825,
656.598,2736.359,
653.688,2762.834,
650.777,2742.9108,
647.867,2677.6119,
644.956,2661.2675,
642.046,2649.3454,
639.135,2638.946,
636.224,2657.3597,
633.314,2704.2021,
630.403,2719.0811,
627.493,2717.6683,
624.582,2717.5987,
621.672,2742.1505,
618.761,2762.8834,
615.850,2755.9013,
612.940,2773.1308,
610.029,2823.5739,
607.119,2802.2539,
604.208,2775.2745,
601.297,2773.1013,
598.387,2786.571,
595.476,2798.4166,
592.566,2780.314,
589.655,2779.0687,
586.745,2774.9174,
583.834,2761.7571,
580.923,2739.2909,
578.013,2766.7566,
575.102,2782.7288,
572.192,2815.2068,
569.281,2861.2814,
566.371,2856.5857,
563.460,2863.8852,
560.549,2844.7102,
557.639,2822.1993,
554.728,2825.7163,
551.818,2835.08,
548.907,2820.0614,
545.996,2841.0057,
543.086,2877.5362,
540.175,2814.4659,
537.265,2797.8123,
534.354,2804.6639,
531.444,2833.9591,
528.533,2879.2421,
525.622,2866.8269,
522.712,2882.3276,
519.801,2886.4874,
516.891,2888.367,
513.980,2958.8279,
511.070,2953.8554,
508.159,3001.6573,
505.248,3041.5996,
502.338,2991.7683,
499.427,3082.0726,
496.517,3121.3977,
493.606,3142.8833,
490.695,3161.1621,
487.785,3154.234,
484.874,3108.5356,
481.964,3089.5236,
479.053,3103.3762,
476.143,3129.4869,
473.232,3124.6504,
470.321,3117.7458,
467.411,3107.5533,
464.500,3090.8923,
461.590,3081.7034,
458.679,3120.9474,
455.769,3161.7413,
452.858,3177.5566,
449.947,3191.3074,
447.037,3176.5289,
444.126,3188.7856,
441.216,3233.8874,
438.305,3261.3169,
435.395,3245.4559,
432.484,3268.0484,
429.573,3301.1673,
426.663,3245.6771,
423.752,3167.896,
420.842,3048.898,
417.931,2946.8488,
415.020,2952.9156,
412.110,3180.6567,
409.199,3314.0027,
406.289,3359.2376,
403.378,3338.2198,
400.468,3366.1916,
397.557,3353.5307,
394.646,3367.3319,
391.736,3458.0485,
388.825,3393.1847,
385.915,3367.2065,
383.004,3379.6853,
380.094,3427.0847,
377.183,3445.8966,
374.272,3457.0956,
371.362,3479.7846,
368.451,3521.2132,
365.541,3506.2025,
362.630,3537.6306,
359.719,3579.5556,
356.809,3606.3158,
353.898,3559.8904,
350.988,3546.5825,
348.077,3551.6428,
345.167,3565.0872,
342.256,3564.3401,
339.345,3567.845,
336.435,3555.5798,
333.524,3517.004,
330.614,3576.6165,
327.703,3591.0178,
324.793,3573.4621,
321.882,3534.3071,
318.971,3609.3948,
316.061,3629.2652,
313.150,3637.444,
310.240,3683.4552,
307.329,3720.8568,
304.418,3741.5083,
301.508,3731.7957,
298.597,3666.639,
295.687,3713.2725,
292.776,3751.8751,
289.866,3799.9277,
286.955,3936.592,
284.044,3948.535,
281.134,3951.901,
278.223,3970.6218,
275.313,4008.2014,
272.402,4065.5018,
269.492,4087.5003,
266.581,4056.1806,
263.670,4028.979,
260.760,4085.9005,
257.849,4146.6648,
254.939,4151.0681,
252.028,4162.7065,
249.117,4173.0638,
246.207,4189.7849,
243.296,4227.1188,
240.386,4201.7404,
237.475,4180.3622,
234.565,4169.7446,
231.654,4160.98,
228.743,4150.4945,
225.833,4131.6242,
222.922,4102.9891,
220.012,4100.0749,
217.101,4099.6157,
214.191,4109.7417,
211.280,4141.75,
208.369,4199.2957,
205.459,4189.394,
202.548,4124.8492,
199.638,4071.1512,
196.727,4144.8287,
193.816,4217.6608,
190.906,4243.2678,
187.995,4275.8489,
185.085,4278.6136,
182.174,4275.1974,
179.264,4297.6031,
176.353,4387.2709,
173.442,4410.0208,
170.532,4366.6452,
167.621,4388.2745,
164.711,4284.8069,
161.800,4131.3195,
158.890,3970.8202,
155.979,3722.7911,
153.068,3413.5505,
150.158,3051.7224,
147.247,2649.6692,
144.337,2180.3726,
141.426,1716.4094,
138.516,1292.0098,
135.605,926.78231,
132.694,634.02783,
129.784,411.08727,
126.873,272.35208,
123.963,182.09636,
121.052,122.94356,
118.141,92.245778,
115.231,81.466445,
112.320,69.075917,
109.410,56.488737,
106.499,47.942874,
103.589,43.883982,
100.678,37.779053,
97.767,26.404052,
94.857,33.05489,
91.946,31.69078,
89.036,25.350796,
86.125,26.769206,
83.215,19.692115,
80.304,14.801029,
77.393,19.758218,
74.483,23.400675,
71.572,19.689718,
68.662,10.609872,
65.751,15.55503,
62.840,17.606702,
59.930,18.125,
57.019,18.125,
54.109,18.125,
51.198,17.521781,
48.288,16.136325,
45.377,17.543081,
42.466,16.888342,
39.556,15.240119,
36.645,15.942309,
33.735,18.721242,
30.824,18.253469,
27.914,9.1381912,
25.003,8.7476375,
22.092,12.999855,
19.182,21.903017,
16.271,45.685682,
13.361,149.95304,
10.450,332.8883,
7.539,639.44875,
4.629,829.61854,
1.718,818.09142,
-1.192,443.02766,
-4.103,252.32267,
-7.013,112.08947,
-9.924,2.125,
