,PL008A~1,
Wavenumbers [1/cm],Intensity,
3014.167,-7.5,
3011.256,2.0999141,
3008.346,41.562279,
3005.435,49.76855,
3002.525,44.122483,
2999.614,57.836355,
2996.704,49.774228,
2993.793,55.243088,
2990.882,55.416058,
2987.972,70.444505,
2985.061,53.736446,
2982.151,57.948749,
2979.240,65.715774,
2976.329,72.00273,
2973.419,69.623493,
2970.508,62.366614,
2967.598,72.213253,
2964.687,68.410326,
2961.777,76.841945,
2958.866,69.502969,
2955.955,61.705757,
2953.045,73.133108,
2950.134,77.564153,
2947.224,68.354065,
2944.313,85.814814,
2941.403,83.666969,
2938.492,80.947163,
2935.581,86.682828,
2932.671,83.821906,
2929.760,79.065362,
2926.850,75.029699,
2923.939,84.939247,
2921.028,95.976556,
2918.118,88.642322,
2915.207,100.43662,
2912.297,102.47038,
2909.386,78.879568,
2906.476,91.460647,
2903.565,94.984449,
2900.654,88.55864,
2897.744,92.512572,
2894.833,86.489821,
2891.923,70.012797,
2889.012,81.621388,
2886.102,87.459466,
2883.191,120.46507,
2880.280,64.184207,
2877.370,32.3838,
2874.459,-9.2230361,
2871.549,24.973628,
2868.638,76.869026,
2865.727,88.419245,
2862.817,86.871654,
2859.906,89.779195,
2856.996,97.047551,
2854.085,92.661776,
2851.175,86.313193,
2848.264,100.36267,
2845.353,88.909774,
2842.443,99.114622,
2839.532,102.79841,
2836.622,99.072919,
2833.711,89.181324,
2830.801,98.794855,
2827.890,91.332158,
2824.979,98.981908,
2822.069,112.51137,
2819.158,106.65902,
2816.248,96.247105,
2813.337,114.15976,
2810.427,103.85262,
2807.516,102.23375,
2804.605,102.45673,
2801.695,103.55265,
2798.784,106.79569,
2795.874,117.5,
2792.963,122.00011,
2790.052,103.5045,
2787.142,102.07892,
2784.231,89.56523,
2781.321,106.61996,
2778.410,100.96953,
2775.500,109.20241,
2772.589,90.885316,
2769.678,108.92659,
2766.768,109.38348,
2763.857,107.71195,
2760.947,112.95902,
2758.036,104.80572,
2755.126,106.25428,
2752.215,111.60891,
2749.304,107.22301,
2746.394,108.80647,
2743.483,97.000023,
2740.573,106.69475,
2737.662,116.81953,
2734.751,118.10664,
2731.841,109.55311,
2728.930,120.25429,
2726.020,111.94387,
2723.109,117.70608,
2720.199,123.44058,
2717.288,127.23722,
2714.377,119.27508,
2711.467,117.74615,
2708.556,124.22295,
2705.646,117.68304,
2702.735,124.48452,
2699.825,112.43456,
2696.914,110.64272,
2694.003,138.57318,
2691.093,114.78521,
2688.182,118.30148,
2685.272,125.74751,
2682.361,114.56441,
2679.450,122.83747,
2676.540,131.35773,
2673.629,124.16816,
2670.719,112.5804,
2667.808,125.52729,
2664.898,122.82491,
2661.987,120.26688,
2659.076,124.13578,
2656.166,120.79006,
2653.255,121.35034,
2650.345,116.09165,
2647.434,131.75722,
2644.524,127.55033,
2641.613,129.52891,
2638.702,120.73672,
2635.792,129.5638,
2632.881,124.11897,
2629.971,131.86244,
2627.060,120.33032,
2624.149,138.98751,
2621.239,124.2337,
2618.328,129.8391,
2615.418,139.15909,
2612.507,133.81229,
2609.597,135.76547,
2606.686,138.86346,
2603.775,138.25793,
2600.865,138.38057,
2597.954,144.30834,
2595.044,146.77724,
2592.133,141.76734,
2589.223,160.81371,
2586.312,133.30898,
2583.401,147.13499,
2580.491,127.32212,
2577.580,160.45544,
2574.670,142.35559,
2571.759,151.18665,
2568.848,143.61604,
2565.938,150.07153,
2563.027,136.86591,
2560.117,141.94861,
2557.206,149.92435,
2554.296,135.73112,
2551.385,155.26009,
2548.474,156.64795,
2545.564,155.40503,
2542.653,160.95302,
2539.743,149.04313,
2536.832,133.41775,
2533.922,159.46846,
2531.011,155.85014,
2528.100,144.56967,
2525.190,148.77746,
2522.279,149.29727,
2519.369,157.04768,
2516.458,144.72734,
2513.548,144.02736,
2510.637,149.00814,
2507.726,142.43681,
2504.816,145.06257,
2501.905,146.31159,
2498.995,164.32084,
2496.084,156.90067,
2493.173,163.63212,
2490.263,168.72484,
2487.352,162.54173,
2484.442,163.2152,
2481.531,166.71272,
2478.621,177.40998,
2475.710,137.7607,
2472.799,169.28029,
2469.889,163.46953,
2466.978,176.76793,
2464.068,178.62697,
2461.157,164.15253,
2458.247,161.48533,
2455.336,178.03035,
2452.425,168.45281,
2449.515,178.64137,
2446.604,175.67279,
2443.694,175.10442,
2440.783,164.83221,
2437.872,175.57293,
2434.962,174.6106,
2432.051,172.83962,
2429.141,175.94122,
2426.230,165.15191,
2423.320,199.51467,
2420.409,186.52558,
2417.498,188.50842,
2414.588,171.78524,
2411.677,172.57172,
2408.767,176.77657,
2405.856,181.15477,
2402.946,173.70822,
2400.035,184.08686,
2397.124,185.9492,
2394.214,185.9316,
2391.303,180.10772,
2388.393,184.48605,
2385.482,159.68967,
2382.571,177.01921,
2379.661,173.22086,
2376.750,180.07881,
2373.840,169.5188,
2370.929,195.18594,
2368.019,191.1872,
2365.108,181.5,
2362.197,188.06989,
2359.287,191.70167,
2356.376,190.50176,
2353.466,202.34936,
2350.555,192.2651,
2347.645,200.05231,
2344.734,213.53228,
2341.823,182.08041,
2338.913,210.52683,
2336.002,198.6243,
2333.092,205.10941,
2330.181,198.51789,
2327.270,192.88504,
2324.360,199.24762,
2321.449,210.5,
2318.539,203.86084,
2315.628,206.56675,
2312.718,217.56608,
2309.807,199.04651,
2306.896,206.5,
2303.986,201.27917,
2301.075,196.35106,
2298.165,211.06756,
2295.254,209.60772,
2292.344,223.7698,
2289.433,206.89773,
2286.522,215.28578,
2283.612,212.33036,
2280.701,215.36547,
2277.791,222.10112,
2274.880,234.36004,
2271.969,219.92387,
2269.059,216.20301,
2266.148,228.06594,
2263.238,236.79729,
2260.327,217.22437,
2257.417,236.23,
2254.506,232.614,
2251.595,240.64913,
2248.685,248.75764,
2245.774,249.89567,
2242.864,235.62967,
2239.953,238.63791,
2237.043,233.53823,
2234.132,222.25323,
2231.221,243.68614,
2228.311,234.97296,
2225.400,246.06291,
2222.490,258.81582,
2219.579,235.65427,
2216.669,249.49046,
2213.758,245.6294,
2210.847,232.82747,
2207.937,247.76708,
2205.026,253.61079,
2202.116,260.14013,
2199.205,254.73741,
2196.294,259.30999,
2193.384,261.5,
2190.473,255.49413,
2187.563,261.54834,
2184.652,269.84327,
2181.742,265.52335,
2178.831,277.93969,
2175.920,273.2541,
2173.010,294.87698,
2170.099,333.9633,
2167.189,284.84442,
2164.278,333.67387,
2161.368,338.21456,
2158.457,343.09068,
2155.546,367.5904,
2152.636,396.4042,
2149.725,412.98993,
2146.815,427.0662,
2143.904,433.80111,
2140.993,437.89681,
2138.083,445.05318,
2135.172,438.09656,
2132.262,447.77993,
2129.351,448.41717,
2126.441,445.3835,
2123.530,427.35409,
2120.619,415.05044,
2117.709,411.11675,
2114.798,377.68063,
2111.888,354.42514,
2108.977,349.59271,
2106.067,333.33244,
2103.156,324.10082,
2100.245,318.48745,
2097.335,301.87172,
2094.424,319.55887,
2091.514,292.13705,
2088.603,284.39861,
2085.692,284.1357,
2082.782,289.56823,
2079.871,282.64236,
2076.961,295.46675,
2074.050,276.77879,
2071.140,314.4201,
2068.229,282.67056,
2065.318,294.58625,
2062.408,301.34871,
2059.497,276.02971,
2056.587,267.39511,
2053.676,280.03293,
2050.766,294.42227,
2047.855,291.24369,
2044.944,286.88941,
2042.034,306.73109,
2039.123,281.56061,
2036.213,279.98219,
2033.302,277.02164,
2030.391,275.41545,
2027.481,288.6096,
2024.570,260.7866,
2021.660,313.77486,
2018.749,294.77818,
2015.839,279.32481,
2012.928,295.89094,
2010.017,293.09718,
2007.107,294.31308,
2004.196,282.86903,
2001.286,310.12892,
1998.375,298.79428,
1995.465,292.36607,
1992.554,303.26463,
1989.643,289.05302,
1986.733,293.60702,
1983.822,293.66617,
1980.912,280.45033,
1978.001,280.71151,
1975.090,297.69542,
1972.180,299.98271,
1969.269,293.70687,
1966.359,308.60837,
1963.448,311.46433,
1960.538,303.63094,
1957.627,317.65791,
1954.716,295.21817,
1951.806,316.09614,
1948.895,323.80168,
1945.985,300.95098,
1943.074,305.45211,
1940.164,287.51912,
1937.253,281.51298,
1934.342,280.9615,
1931.432,288.04574,
1928.521,290.65544,
1925.611,286.77923,
1922.700,284.12569,
1919.790,292.11262,
1916.879,277.68574,
1913.968,320.4459,
1911.058,273.83033,
1908.147,285.93948,
1905.237,326.16171,
1902.326,288.01705,
1899.415,278.12439,
1896.505,298.3797,
1893.594,309.68898,
1890.684,301.69604,
1887.773,298.83643,
1884.863,323.11503,
1881.952,315.39025,
1879.041,302.98702,
1876.131,304.94314,
1873.220,261.91575,
1870.310,277.77799,
1867.399,303.11615,
1864.489,315.48747,
1861.578,290.2198,
1858.667,287.64671,
1855.757,290.69212,
1852.846,307.541,
1849.936,309.73426,
1847.025,273.9647,
1844.114,308.54709,
1841.204,327.71678,
1838.293,324.02079,
1835.383,327.89498,
1832.472,309.47565,
1829.562,282.38958,
1826.651,306.8511,
1823.740,299.84479,
1820.830,300.98826,
1817.919,315.71565,
1815.009,294.52545,
1812.098,337.17714,
1809.188,323.74035,
1806.277,293.16396,
1803.366,314.74954,
1800.456,329.77479,
1797.545,333.85464,
1794.635,328.53202,
1791.724,333.3544,
1788.813,324.90309,
1785.903,336.61045,
1782.992,331.42843,
1780.082,309.94797,
1777.171,335.16595,
1774.261,317.5347,
1771.350,319.59826,
1768.439,349.30666,
1765.529,330.13611,
1762.618,337.19627,
1759.708,345.47825,
1756.797,356.87121,
1753.887,357.90962,
1750.976,342.24477,
1748.065,372.75191,
1745.155,353.98416,
1742.244,363.60683,
1739.334,366.80589,
1736.423,360.5,
1733.512,378.69111,
1730.602,397.46827,
1727.691,362.34931,
1724.781,351.28658,
1721.870,370.8144,
1718.960,359.05536,
1716.049,365.5677,
1713.138,386.30991,
1710.228,361.6505,
1707.317,387.57543,
1704.407,379.82084,
1701.496,378.5,
1698.586,399.75164,
1695.675,423.0213,
1692.764,396.09835,
1689.854,383.01968,
1686.943,399.89294,
1684.033,396.59934,
1681.122,425.99023,
1678.211,442.34772,
1675.301,431.53392,
1672.390,486.35943,
1669.480,439.72462,
1666.569,467.41113,
1663.659,460.81032,
1660.748,479.34575,
1657.837,470.84391,
1654.927,442.67146,
1652.016,490.47944,
1649.106,451.01782,
1646.195,511.69181,
1643.285,518.93034,
1640.374,494.8763,
1637.463,513.54484,
1634.553,570.13055,
1631.642,545.69544,
1628.732,563.55925,
1625.821,573.52682,
1622.911,614.26896,
1620.000,651.03385,
1617.089,691.68408,
1614.179,722.62577,
1611.268,752.38466,
1608.358,803.0652,
1605.447,827.18589,
1602.536,833.15944,
1599.626,831.66013,
1596.715,866.89645,
1593.805,787.32713,
1590.894,810.08479,
1587.984,821.42874,
1585.073,835.26225,
1582.162,824.14182,
1579.252,788.76796,
1576.341,744.65108,
1573.431,747.24761,
1570.520,743.62061,
1567.610,750.44131,
1564.699,757.12515,
1561.788,743.71141,
1558.878,746.37592,
1555.967,727.37674,
1553.057,710.3966,
1550.146,693.36549,
1547.235,728.77448,
1544.325,706.90554,
1541.414,676.22103,
1538.504,699.91408,
1535.593,683.82439,
1532.683,662.98486,
1529.772,657.95654,
1526.861,635.51164,
1523.951,624.33662,
1521.040,614.88797,
1518.130,632.21763,
1515.219,604.74036,
1512.309,607.61266,
1509.398,636.5288,
1506.487,583.37354,
1503.577,619.23836,
1500.666,592.37343,
1497.756,580.07684,
1494.845,633.81908,
1491.934,593.5378,
1489.024,605.08771,
1486.113,598.08228,
1483.203,588.61832,
1480.292,584.95447,
1477.382,552.97832,
1474.471,542.43048,
1471.560,571.25231,
1468.650,572.93417,
1465.739,565.93804,
1462.829,572.25863,
1459.918,574.73755,
1457.008,562.34602,
1454.097,546.49195,
1451.186,534.09381,
1448.276,525.39309,
1445.365,526.71485,
1442.455,540.05967,
1439.544,551.21841,
1436.633,537.71449,
1433.723,575.87689,
1430.812,574.01201,
1427.902,605.04901,
1424.991,586.09376,
1422.081,555.22326,
1419.170,560.27654,
1416.259,532.33773,
1413.349,514.92663,
1410.438,534.59273,
1407.528,588.91818,
1404.617,577.09805,
1401.707,542.49101,
1398.796,551.02094,
1395.885,545.93681,
1392.975,527.7298,
1390.064,557.56016,
1387.154,539.8349,
1384.243,482.57213,
1381.332,564.61067,
1378.422,564.00254,
1375.511,534.96233,
1372.601,602.69621,
1369.690,572.49666,
1366.780,556.99558,
1363.869,595.18271,
1360.958,627.66562,
1358.048,640.65318,
1355.137,653.488,
1352.227,659.29737,
1349.316,660.94361,
1346.406,686.10422,
1343.495,714.27524,
1340.584,687.67891,
1337.674,672.25365,
1334.763,727.93544,
1331.853,713.09974,
1328.942,735.62607,
1326.032,726.26569,
1323.121,782.03619,
1320.210,783.85422,
1317.300,779.22186,
1314.389,773.76372,
1311.479,796.51919,
1308.568,829.67537,
1305.657,836.0432,
1302.747,879.86058,
1299.836,870.16835,
1296.926,904.44004,
1294.015,924.66516,
1291.105,906.12808,
1288.194,940.24218,
1285.283,973.1281,
1282.373,973.64066,
1279.462,982.77423,
1276.552,1005.6497,
1273.641,1056.081,
1270.731,1093.3895,
1267.820,1034.4613,
1264.909,1036.1819,
1261.999,1077.1005,
1259.088,1066.1551,
1256.178,1058.6483,
1253.267,1019.1402,
1250.356,998.01845,
1247.446,973.55128,
1244.535,934.72328,
1241.625,922.82218,
1238.714,921.32739,
1235.804,876.46601,
1232.893,877.63406,
1229.982,835.79473,
1227.072,814.97255,
1224.161,805.09496,
1221.251,805.73353,
1218.340,787.06564,
1215.430,773.74732,
1212.519,770.14172,
1209.608,759.28623,
1206.698,749.90444,
1203.787,774.92714,
1200.877,792.83135,
1197.966,782.04144,
1195.055,817.33644,
1192.145,818.99194,
1189.234,834.3686,
1186.324,848.40956,
1183.413,844.99238,
1180.503,835.16274,
1177.592,839.14657,
1174.681,849.17809,
1171.771,813.32422,
1168.860,849.04779,
1165.950,840.40566,
1163.039,838.1984,
1160.129,830.83188,
1157.218,829.34589,
1154.307,822.36924,
1151.397,800.63253,
1148.486,795.9467,
1145.576,814.99888,
1142.665,803.45601,
1139.754,807.38177,
1136.844,764.38092,
1133.933,767.78723,
1131.023,777.83485,
1128.112,794.35383,
1125.202,825.11356,
1122.291,795.38276,
1119.380,815.44803,
1116.470,810.15286,
1113.559,837.33697,
1110.649,834.36762,
1107.738,826.35673,
1104.828,821.1712,
1101.917,806.14453,
1099.006,779.57221,
1096.096,772.38137,
1093.185,803.11146,
1090.275,820.06686,
1087.364,826.24449,
1084.453,814.00086,
1081.543,801.74712,
1078.632,810.4688,
1075.722,830.55073,
1072.811,813.43795,
1069.901,812.56469,
1066.990,815.73333,
1064.079,849.16467,
1061.169,846.82636,
1058.258,831.65303,
1055.348,842.84625,
1052.437,869.38422,
1049.527,853.26503,
1046.616,847.18323,
1043.705,863.45683,
1040.795,864.03047,
1037.884,862.00574,
1034.974,859.52062,
1032.063,856.16917,
1029.153,860.77296,
1026.242,854.71827,
1023.331,873.66544,
1020.421,897.71594,
1017.510,907.62055,
1014.600,927.10892,
1011.689,940.52705,
1008.778,907.12794,
1005.868,887.80117,
1002.957,921.35498,
1000.047,951.25201,
997.136,997.50152,
994.226,983.34678,
991.315,946.59157,
988.404,971.96035,
985.494,949.19048,
982.583,980.0265,
979.673,994.74305,
976.762,964.44808,
973.852,955.97036,
970.941,980.24209,
968.030,988.19359,
965.120,969.5358,
962.209,978.06122,
959.299,980.20825,
956.388,972.10054,
953.477,968.78822,
950.567,974.54569,
947.656,981.39937,
944.746,1011.1338,
941.835,980.91728,
938.925,990.60931,
936.014,992.92426,
933.103,982.26287,
930.193,974.5,
927.282,975.1416,
924.372,986.9801,
921.461,964.93519,
918.551,939.65293,
915.640,926.65011,
912.729,931.67219,
909.819,945.94229,
906.908,926.56651,
903.998,884.93642,
901.087,918.41893,
898.176,937.29646,
895.266,929.2304,
892.355,927.75648,
889.445,934.47062,
886.534,952.86718,
883.624,984.08612,
880.713,974.02363,
877.802,939.68868,
874.892,910.88152,
871.981,881.9932,
869.071,902.87852,
866.160,885.80121,
863.250,914.7668,
860.339,954.51164,
857.428,960.43906,
854.518,945.83905,
851.607,888.42627,
848.697,906.01269,
845.786,899.29825,
842.875,909.46388,
839.965,955.75227,
837.054,929.79771,
834.144,956.31779,
831.233,994.1643,
828.323,981.81484,
825.412,953.78785,
822.501,957.39364,
819.591,962.35203,
816.680,972.1154,
813.770,961.34344,
810.859,946.28015,
807.949,944.39028,
805.038,959.11503,
802.127,931.1287,
799.217,906.13827,
796.306,908.71629,
793.396,911.43888,
790.485,905.6058,
787.574,913.71796,
784.664,919.45875,
781.753,923.18394,
778.843,912.73803,
775.932,910.99365,
773.022,938.43073,
770.111,963.77565,
767.200,932.76356,
764.290,899.38488,
761.379,900.22404,
758.469,933.35947,
755.558,954.60042,
752.648,924.46009,
749.737,917.84721,
746.826,921.69599,
743.916,925.10388,
741.005,920.67466,
738.095,913.36776,
735.184,851.00487,
732.274,794.94616,
729.363,783.98398,
726.452,830.1942,
723.542,894.94567,
720.631,906.90993,
717.721,927.25821,
714.810,940.5,
711.899,938.24257,
708.989,928.55947,
706.078,943.72476,
703.168,904.99453,
700.257,904.72975,
697.347,933.50105,
694.436,897.80551,
691.525,909.05878,
688.615,888.8592,
685.704,886.29234,
682.794,911.96796,
679.883,948.81518,
676.973,933.58913,
674.062,920.29069,
671.151,925.89658,
668.241,930.01708,
665.330,896.80253,
662.420,903.19238,
659.509,919.10341,
656.598,933.99125,
653.688,940.8897,
650.777,935.04096,
647.867,921.50338,
644.956,898.6872,
642.046,884.01241,
639.135,886.99788,
636.224,911.62334,
633.314,936.23543,
630.403,934.81426,
627.493,926.81148,
624.582,927.62057,
621.672,950.5884,
618.761,945.42049,
615.850,917.05258,
612.940,916.67515,
610.029,953.81737,
607.119,931.70771,
604.208,947.25033,
601.297,935.55633,
598.387,924.23907,
595.476,943.20288,
592.566,940.05461,
589.655,929.78165,
586.745,918.42444,
583.834,918.18544,
580.923,945.50474,
578.013,946.28947,
575.102,953.38306,
572.192,961.00099,
569.281,974.21718,
566.371,1022.7399,
563.460,980.23363,
560.549,970.24557,
557.639,968.14609,
554.728,936.27377,
551.818,964.36515,
548.907,981.46944,
545.996,986.16726,
543.086,986.19078,
540.175,1003.321,
537.265,990.01441,
534.354,977.47633,
531.444,979.41705,
528.533,1001.0653,
525.622,980.89063,
522.712,967.3987,
519.801,982.50341,
516.891,1014.935,
513.980,1007.192,
511.070,1022.7,
508.159,1035.2308,
505.248,1037.9949,
502.338,1028.2004,
499.427,1052.1271,
496.517,1065.2879,
493.606,1072.8554,
490.695,1080.4956,
487.785,1102.0497,
484.874,1086.7595,
481.964,1092.2806,
479.053,1114.5,
476.143,1114.5,
473.232,1079.2492,
470.321,1090.3154,
467.411,1095.2261,
464.500,1033.3727,
461.590,1067.831,
458.679,1111.068,
455.769,1128.1029,
452.858,1106.4544,
449.947,1115.6216,
447.037,1115.6797,
444.126,1115.6091,
441.216,1114.8542,
438.305,1099.6156,
435.395,1094.8775,
432.484,1107.2528,
429.573,1126.3225,
426.663,1125.5624,
423.752,1026.4665,
420.842,981.21657,
417.931,967.29562,
415.020,927.861,
412.110,1003.3194,
409.199,1056.4388,
406.289,1093.5691,
403.378,1127.7587,
400.468,1204.1141,
397.557,1145.2078,
394.646,1093.7039,
391.736,1166.7998,
388.825,1144.9271,
385.915,1129.9849,
383.004,1147.6278,
380.094,1210.7303,
377.183,1215.2452,
374.272,1199.6738,
371.362,1190.5036,
368.451,1201.8617,
365.541,1191.3542,
362.630,1197.7861,
359.719,1214.675,
356.809,1235.911,
353.898,1226.1766,
350.988,1224.585,
348.077,1223.4671,
345.167,1219.4082,
342.256,1237.3378,
339.345,1213.2712,
336.435,1191.3863,
333.524,1202.8623,
330.614,1246.0813,
327.703,1266.6877,
324.793,1257.7747,
321.882,1212.5631,
318.971,1238.5836,
316.061,1247.0117,
313.150,1249.5024,
310.240,1259.1499,
307.329,1290.944,
304.418,1282.0702,
301.508,1256.3031,
298.597,1255.5627,
295.687,1264.3041,
292.776,1267.25,
289.866,1272.6618,
286.955,1306.6431,
284.044,1331.74,
281.134,1342.3891,
278.223,1350.847,
275.313,1421.5851,
272.402,1412.1021,
269.492,1391.3315,
266.581,1388.9143,
263.670,1450.6694,
260.760,1452.8285,
257.849,1433.8807,
254.939,1420.6708,
252.028,1470.4453,
249.117,1472.5974,
246.207,1463.6752,
243.296,1506.8654,
240.386,1480.8094,
237.475,1451.4376,
234.565,1434.5262,
231.654,1460.0896,
228.743,1446.5129,
225.833,1430.9755,
222.922,1428.2134,
220.012,1443.5131,
217.101,1462.24,
214.191,1482.6197,
211.280,1502.9886,
208.369,1474.8962,
205.459,1450.1195,
202.548,1432.2437,
199.638,1419.182,
196.727,1468.3594,
193.816,1502.2857,
190.906,1494.2015,
187.995,1542.7111,
185.085,1535.8572,
182.174,1517.3353,
179.264,1546.246,
176.353,1550.7816,
173.442,1562.0142,
170.532,1577.1397,
167.621,1548.3007,
164.711,1498.4546,
161.800,1444.5253,
158.890,1397.743,
155.979,1343.4619,
153.068,1237.9714,
150.158,1098.2007,
147.247,984.76425,
144.337,812.28322,
141.426,625.1365,
138.516,441.61235,
135.605,327.6451,
132.694,231.48981,
129.784,152.48979,
126.873,95.994533,
123.963,66.858826,
121.052,48.684083,
118.141,36.547749,
115.231,28.683726,
112.320,22.534549,
109.410,18.772711,
106.499,20.197021,
103.589,19.939746,
100.678,15.697296,
97.767,5.7441701,
94.857,9.6579343,
91.946,9.4844456,
89.036,6.7257958,
86.125,8.1442064,
83.215,6.3763186,
80.304,6.1760288,
77.393,11.133218,
74.483,12.81027,
71.572,9.8764789,
68.662,3.915605,
65.751,8.1543115,
62.840,4.6829802,
59.930,-0.3127138,
57.019,0.39236818,
54.109,2.2914825,
51.198,3.8016093,
48.288,4.5169873,
45.377,6.6271215,
42.466,7.0877807,
39.556,6.3848814,
36.645,5.6826912,
33.735,6.5384969,
30.824,5.9537912,
27.914,1.0455645,
25.003,1.745275,
22.092,3.4687137,
19.182,5.9805401,
16.271,20.669833,
13.361,112.47743,
10.450,257.78308,
7.539,416.30066,
4.629,463.6959,
1.718,367.29544,
-1.192,34.060355,
-4.103,-22.476398,
-7.013,-21.467262,
-9.924,1.5,
